##TITLE=Sample description
##JCAMP-DX=4.24
##DATA TYPE=INFRARED SPECTRUM
##DATE=25/8/2023
##SAMPLING PROCEDURE=Instrument type and / or accessory
##ORIGIN=Default
##XUNITS=1/CM
##YUNITS=ABSORBANCE
##RESOLUTION=4
##FIRSTX=4397.6552
##LASTX=599.8556
##DELTAX=-1.9287962
##MAXY=1.8263345
##MINY=0.320811
##XFACTOR=1
##YFACTOR=1.7009065e-009
##NPOINTS=1970
##FIRSTY=0.51719737
##XYDATA=(X++(Y..Y))
4398+304071601+304605619+305303708+305886506+305721489+305293090+305368993
4384+305206955+304187277+303422186+303532431+303706804+303585030+303457895
4371+303454951+303342253+302891076+302644690+302938489+303061840+302637752
4357+302161239+301961740+301620772+301235091+301914221+303324662+303697833
4344+303048734+302806588+302705805+301889341+301401649+301732945+301858223
4330+301906722+302279018+302311818+301590495+300485383+299633141+299214379
4317+299269816+300015248+300869418+300965646+300323100+299700879+299571641
4303+299285796+298665958+298527433+298869732+299234493+299429297+299431014
4290+299564141+300132782+300756896+300594472+300078220+300285954+300779884
4276+300814156+300494495+300142629+300037886+300306104+300737937+300664382
4263+300000741+299630758+299513540+299004051+298673001+299056896+299383531
4249+298840997+297862530+297690645+298431906+298549160+297576160+297017226
4236+297539049+298097492+297774993+297143555+297226432+297614356+297612534
4222+297409075+297059487+296629862+296601933+297073575+297447272+297335450
4209+296981062+296632981+296322641+296157309+296104079+295931422+295855765
4195+295793213+295314037+295081388+295561720+296029753+295988647+295635626
4182+295327213+295238275+295359523+295605594+295799521+295705641+295481016
4168+295344489+295031031+294628879+294364971+294231948+294660663+295677151
4155+296270147+295750286+294847792+294542849+294362273+293495575+292516758
4141+292138610+292282479+292914669+293696704+293994253+293817759+293444202
4128+292973664+292649150+292858934+293497275+293899830+293878050+293719867
4114+293245527+292227304+291356506+291407598+291943737+292208766+292260314
4101+292310776+292344469+292321849+292174774+291910446+291651339+291692357
4087+291954723+291929369+291756976+291768855+291765491+291599405+291325686
4074+291034059+290841954+290928282+291197324+291053876+290386169+289810590
4060+289549398+289400536+289370854+289447125+289476403+289540251+289805771
4047+290038211+289941808+289675359+289409857+289131529+288955053+288993565
4033+289056590+288758480+288207536+287864887+287636250+287185230+286719914
4020+286836011+287549238+288069853+288087602+287944084+287831298+287901524
4006+288179572+288423418+288354874+287828460+287149259+286772934+286738399
3993+286813618+286953194+287031673+286663810+286183793+286231171+286469042
3979+286384326+286129739+285921970+285696031+285501035+285610632+286127847
3966+286557998+286241123+285584858+285391298+285542123+285572049+285120294
3952+284319845+283724642+283602991+283567142+283037714+282825460+283942819
3939+285135468+285001043+283536322+281806325+281621579+282701530+282795200
3925+281918971+281923421+282442774+282152777+281943518+282937071+284118173
3912+284623895+284439394+283178376+280586921+277804430+276503165+277180684
3898+279296152+280806202+280396305+279331458+279990877+281083531+280477780
3885+279152301+278446187+278594594+280071878+280813228+279474257+277347926
3871+275972336+276414927+277297657+276891650+277374489+279293489+279568558
3858+277335241+273114537+269550607+272759168+277770228+280175570+280203359
3844+278747311+276305576+273422915+272065529+273590630+275721744+276978644
3831+277643197+277747590+277495457+277057789+275358455+273387346+274039091
3817+275640217+277666028+279912819+280665452+279236772+276689506+275245967
3804+274206824+273427190+274760799+276647682+278523387+280216150+280787944
3790+280638066+280296188+279706749+279266453+278870626+277994642+278021748
3777+279428789+280063731+279020295+277528432+277412212+278331422+279205654
3763+279325290+278066953+276649592+276550000+276028702+272960664+268634394
3750+268648989+271243669+272488391+273714524+275290314+275148373+272518703
3736+269154798+269576399+273593433+276896504+277918319+277405309+277013880
3723+277554574+278865773+280403997+281195405+280381850+277945460+277877301
3709+283560396+290825764+297355109+304673707+315072048+326916538+338015000
3696+347743671+353843023+354948064+352653492+349674007+346779747+343019156
3682+337788973+331554882+325077278+317952852+313020778+311179801+308268194
3669+305961743+306152762+306009051+304322893+301538912+298137056+294462460
3655+291942125+289948536+285655416+280608087+281625960+285336789+287017726
3642+286491049+284742234+282406592+279574340+276403205+272991467+268212986
3628+263587380+262350507+261409799+258526787+253773589+249613545+247877907
3615+246390355+244367365+242653681+241072161+240001129+239448713+237935790
3601+235363836+233074240+231161162+229352074+228252323+227137224+224498847
3588+221631937+221420033+222225563+221979440+220742864+219213296+217786473
3574+216596943+215401876+213114189+209159900+206562259+207669842+209048288
3561+208752526+207834245+207308497+206763546+205708895+204482570+203272452
3547+202201244+201770900+201950845+202191292+201947902+201147085+200317235
3534+199580668+198397884+196970641+196324573+196405872+196416963+196358845
3520+196388543+196338485+196288268+196007119+194759698+193140157+192666605
3507+192950470+192744663+192335766+192376573+192534897+192710216+193049869
3493+192959301+192140892+191290489+190881066+190759117+190712843+190803306
3480+191161426+191463443+191290227+190761833+190472396+190661225+190884781
3466+190716820+190071961+189201041+188698911+188882326+189458045+190084226
3453+190384631+189951869+189116325+188611777+188619154+189007026+189716066
3439+190224328+190165946+190090061+190193770+190335641+190702908+191198186
3426+191659999+191852805+191798488+192170679+192994011+193919230+195071860
3412+196042267+196310065+196489379+197069532+197796163+198827194+200150238
3399+201285504+202306864+203466204+204603415+205657610+207005587+208800027
3385+210659296+212414979+214351798+216654623+219138654+221473228+223501754
3372+225661429+228596479+232048850+235385983+238542522+241715934+245155076
3358+249107351+253496979+257987372+262511161+266910390+270795348+274514991
3345+278636207+282881563+286942734+291185391+295642249+299694641+303044950
3331+305775525+308114882+310448457+312723895+314561964+316105742+317680989
3318+319202341+320734555+322588498+324435923+325525020+325850498+326020877
3304+326400216+326742760+326476890+325498248+323788331+321263562+318503866
3291+315733482+312813710+310244858+307826935+304947217+301970886+299094882
3277+296296464+293976171+292084469+290384136+288831790+287008649+284885069
3264+283214979+282176606+281303968+280374789+279315391+278229955+277291525
3250+276397248+275473851+274696407+274139892+273413961+272226849+271034603
3237+270323215+269857408+269245734+268369505+267223095+266232030+265737295
3223+265296946+264665439+263970153+263046406+261993963+261193251+260813334
3210+260865110+261060877+261149903+261087649+260747628+260144751+259469510
3196+259098756+259135464+259028653+258571344+258219356+258003632+257496246
3183+256839525+256358807+256149093+256291963+256437198+256564141+257011042
3169+257396058+257424531+257317247+257196594+257166370+257386439+257758717
3156+257823616+257493267+257309467+257505935+257827944+258007697+258006102
3142+258059332+258087279+257871730+257713757+257885362+258202798+258401824
3129+258608261+258987741+259247951+259274304+259292228+259345511+259471437
3115+259818519+260269504+260434082+260250090+260135710+260166180+259993997
3102+259762258+259891076+260315199+260645706+260655063+260409517+260120606
3088+260000252+260010116+260080885+260225805+260259972+260234829+260238981
3075+259997553+259568821+259330337+259200661+258806359+258245848+257914465
3061+257932390+258178461+258455667+258682815+258810056+258667221+258361998
3047+258235738+258347017+258549722+258542293+258174869+257933511+258012305
3034+257858221+257313094+256875637+256862706+257166422+257545849+257782704
3020+257933634+258173835+258215273+257827804+257553050+257762659+258024482
3007+258084703+258190813+258524509+258978332+259434292+260061507+260821832
2993+261457439+262067518+262722207+263219430+263552652+264060967+264939351
2980+265824657+266258382+266309019+266318796+266311350+266176680+266046688
2966+265995018+265873840+265625596+265330833+265078822+265025802+265089317
2953+265032022+265062019+265289342+265439746+265548204+265732039+265774861
2939+265569650+265429426+265615363+265904309+265921165+265609721+265222270
2926+264961236+264832348+264748613+264577394+264195794+263574589+262965176
2912+262711221+262814457+263095553+263431684+263720543+263896826+264004635
2899+264181812+264398850+264449470+264382695+264409696+264484565+264538566
2885+264648040+264840513+265068922+265175996+265134505+265190101+265357448
2872+265381750+265237041+265032933+264806294+264700744+264868232+265201016
2858+265451047+265562221+265489472+265031129+264326452+263743408+263496531
2845+263708786+264228314+264764978+265175418+265423451+265661988+266101986
2831+266567688+266746565+266799094+267007529+267388287+267774214+267880640
2818+267785253+267924496+268385239+268854060+269173441+269494223+269882849
2804+270152311+270277309+270548769+270968459+271262732+271420372+271485026
2791+271451876+271404182+271451981+271736494+272179909+272424438+272438350
2777+272542865+272667390+272662292+272820142+273168854+273405446+273492773
2764+273526133+273605628+273864788+274337183+274846233+275044961+274967569
2750+275018083+275169784+275292504+275572006+275971565+276261807+276348661
2737+276361452+276523052+276784349+276975368+277141839+277329424+277448955
2723+277581469+277836389+278133149+278573060+279212540+279720434+279846640
2710+279676017+279579999+279861253+280317301+280693837+280986322+281140546
2696+281162745+281141737+281103278+281131172+281276950+281518518+281829699
2683+282041218+282084846+282199296+282480130+282740989+282838163+282825968
2669+282860099+282936738+282931079+282901135+283007525+283260377+283580003
2656+283897176+284152883+284328255+284386707+284304321+284204099+284315377
2642+284682434+284990128+285054379+285106925+285250741+285330569+285369467
2629+285487806+285698011+286026450+286364929+286567109+286686658+286765557
2615+286901120+287154007+287389355+287586261+287780293+287966949+288173807
2602+288386763+288593919+288770605+288865816+288916173+289009142+289208518
2588+289521854+289781294+289845300+289824817+289850994+290011806+290235432
2575+290266305+290113185+289969001+289920396+289922341+289839430+289809643
2561+290064791+290401482+290547436+290505209+290373431+290283195+290299893
2548+290419109+290579868+290648622+290637601+290695720+290905697+291150471
2534+291297108+291472761+291646258+291605678+291528847+291631978+291756327
2521+291797275+291848560+291905295+291986051+292248224+292603401+292759149
2507+292738316+292785028+292988575+293308972+293640653+293884726+294046852
2494+294191789+294372400+294551995+294635467+294584900+294494875+294520351
2480+294655126+294734078+294702995+294766072+295038565+295314948+295438509
2467+295475304+295577139+295754386+295837297+295830394+295881346+296024146
2453+296164422+296182750+296153489+296210679+296315668+296379305+296325444
2440+296187936+296166140+296342160+296555501+296720027+296941253+297138509
2426+297119411+296996550+296958494+297048694+297282500+297603949+297884186
2413+298071210+298215236+298348189+298556834+298925660+299318386+299569468
2399+299682341+299810072+300037220+300223193+300319911+300441685+300629375
2386+300755319+300564966+299915446+298848952+297434201+295696145+293749075
2372+291858144+290103583+288334216+286546784+285003093+284200822+284439902
2359+285199369+286024400+287567373+290489388+293842990+295577279+294808579
2345+292806913+291699628+291760795+292051108+292142360+292260875+292857620
2332+293894328+295032573+296018329+296824104+297674525+298889461+300439688
2318+301746086+302546500+303245150+304181250+305279458+306282665+307067065
2305+307661182+308095293+308397888+308699397+309156636+309707440+310193415
2291+310566025+310830985+311029923+311229037+311483343+311732462+311835348
2278+311858617+312042837+312437525+312849173+313095455+313161651+313175493
2264+313265237+313473287+313749880+314001944+314237467+314531371+314844690
2251+315055823+315148126+315213971+315333012+315509243+315687155+315902459
2237+316230670+316567783+316751898+316885551+317186464+317522981+317728262
2224+317985547+318343790+318598201+318693833+318716086+318734413+318837089
2210+318991242+319047276+319114488+319396408+319808372+320129645+320268450
2197+320405257+320706065+321011008+321198873+321307155+321310344+321309678
2183+321483071+321795618+322107114+322321506+322434975+322513436+322610750
2170+322769915+322983711+323229853+323486401+323650682+323742670+323938034
2156+324221706+324461925+324712692+325014446+325209915+325237458+325258519
2143+325432963+325694768+325835570+325868090+325978580+326208637+326456810
2129+326686902+327007193+327433525+327816789+328003147+327914699+327767694
2116+327944906+328395557+328761334+328988728+329151572+329260275+329456935
2102+329754800+330029536+330292533+330542003+330737542+330946117+331311895
2089+331831791+332268530+332565588+332962939+333537292+334163823+334779562
2075+335382124+335957458+336438841+336813905+337204003+337790200+338620330
2062+339444959+340159378+340939537+341802818+342678960+343555838+344493480
2048+345562217+346583191+347344953+347977127+348716741+349506713+350126972
2035+350601312+351175875+351796869+352136961+352242720+352314032+352328785
2021+352213634+351858370+351469639+351467502+351659852+351617064+351436804
2008+351412870+351469919+351406141+351279181+351250236+351390968+351482885
1994+351217751+350899492+351037210+351510885+352058219+352532875+352881446
1981+353257596+353751385+354334744+354914178+355330592+355478473+355558616
1967+356113590+357229776+358285022+359030524+359667463+360229270+360803658
1954+361614164+362630688+363564580+364160940+364345160+364383112+365112424
1940+366600239+367747017+368368747+368996225+369671571+370080592+370158877
1927+369964985+369483531+369248464+369507325+369725677+370211266+371112919
1913+371522641+371255719+371147892+371689480+372394893+372840498+373087445
1900+373199862+373051281+372778227+372807733+372962132+373244577+374202719
1886+375272753+375877768+376279009+376658068+377190124+377877174+378388800
1873+378121003+376628912+375199759+376083014+378184080+379438299+379795316
1859+379917090+379990224+380035079+380118376+380087363+379616072+378442030
1846+376981128+377001453+378718484+379804953+379971511+380282131+380493615
1832+379423686+377760587+377679813+378654530+379669337+380823158+381576019
1819+381785085+381784104+381550333+380994973+380658036+381091902+381806601
1805+382046540+381522439+380833286+380979625+381454981+381003138+379794370
1792+380151036+382775326+384722133+385137636+384925171+384590442+384657023
1778+385145346+384684672+382762010+381289334+382692100+385392363+387508462
1765+388325381+388088982+388198456+388598014+388769970+389026729+388279650
1751+386029337+384696937+385882683+387536811+388272431+388384779+388867494
1738+389226894+387884191+386459944+388365435+391226580+393412659+394495764
1724+394475229+393864958+391947832+388269873+386871382+390322789+393714449
1711+395026348+394355137+392443444+391012398+390211283+388361580+386269661
1697+386687582+390176380+393760390+394623355+393560540+391487089+388151498
1684+386639679+389744512+392230558+392746775+392177083+391529386+390379489
1670+389043865+390427322+392572472+392518155+391957785+392839393+393107471
1657+390901417+386184016+383575355+386229537+386457666+386159311+390112287
1643+394336635+395958594+395189894+392921779+394094348+400636502+405433345
1630+407830067+409851444+412059461+414558227+418156815+420893137+421748463
1616+424278559+429441390+433194060+434992530+436305061+438170148+439989994
1603+441340301+442644737+443959089+444977400+445792708+446775835+448080797
1589+449882771+451952859+453633269+454943837+456005566+455866832+454281878
1576+454868846+458438768+460080106+460475284+462913812+465971443+467561058
1562+466957479+463654759+463869361+471375929+477254616+481585494+485202304
1549+488753057+490616357+489340236+486336046+486464267+497092034+507235052
1535+511955011+516616414+523205910+528248929+531685758+535073423+537884597
1522+542549749+551196822+559863519+568706272+577295664+583272296+585731990
1508+586551923+596424025+611776656+620812670+626438943+631741630+640093117
1495+650602403+657982361+662321089+668566919+679331178+690201546+698517359
1481+705489558+712332660+718091044+722152512+727446228+739088801+752587665
1468+762520216+770690811+780248193+788761157+793104160+795273734+803696428
1454+816558703+825963998+832025434+837309898+843701788+849561796+854187175
1441+858944805+862880259+866032365+872417526+880127448+884323692+885974001
1427+888497438+890479953+890964175+889874622+884355090+877938531+876549361
1414+875682471+873011573+870708556+868749940+865574355+862003837+858335409
1400+852949110+847038429+842728367+840441820+841125226+842263208+840395633
1387+836150470+834481098+836942719+840239482+841714647+840700786+837438225
1373+835280776+836264429+837268828+836670226+834851991+832262674+832023541
1360+834995947+836317134+833994212+831728200+832857141+835342662+836435158
1346+837362813+839218053+840249574+839771660+839402518+840146408+841921610
1333+844015912+845152632+844852595+843864387+843292627+842790252+841939201
1319+843226396+848133379+853180183+855691145+857534960+860253936+863746449
1306+868720924+874323368+878802688+883201058+888743789+894750207+900078125
1292+903549401+905282411+907355687+911133519+915147960+917788370+919843564
1279+921891610+923415834+924168205+924434390+925685281+927853313+928729875
1265+927877633+926597306+926899656+929697619+932948896+934563041+934419856
1252+934154862+935461610+937595160+939093243+940665126+943221924+945665533
1238+946799310+946874372+946686332+946920278+948073749+949453737+950023955
1225+950596555+951613990+951620508+949841522+946990714+944352687+942680231
1211+940925495+937666648+933904866+931190165+929065306+927392499+927097789
1198+927721341+927462445+925029278+921016449+917427779+914952911+913033543
1184+911618933+910596662+909582171+908110791+906908050+907237172+907614794
1171+906504006+904866803+903404604+902669825+903670229+905693394+907239906
1157+908427649+909450690+910300900+911348192+912341307+913688144+915821204
1144+917779539+918662830+919053908+920784606+923984931+926997636+929045611
1130+929856784+930746662+933841228+937209759+937970960+937572032+938031795
1117+939317237+940835364+942259577+943350321+943415851+943166836+944645926
1103+948319680+952840911+956523987+959189417+962307882+966568464+970497191
1090+972555468+973785403+977184772+983212846+987480647+988584217+990962997
1076+995552351+999036103+1000975656+1003612982+1006744203+1010046853+1015171382
1063+1019212876+1019211965+1020076192+1023839306+1025528863+1025848243
1051+1029109263+1032114329+1032409950+1033763516+1035272182+1033312304
1040+1031316403+1034187605+1039718421+1041603657+1039103559+1038274375
1028+1042110587+1048068786+1052487061+1051558706+1047303310+1046684102
1016+1049772150+1051824961+1052330280+1052289700+1052088133+1051822228
1005+1048977098+1045093647+1045284700+1048045868+1049552922+1048674748
993+1045414710+1042491924+1043962743+1049672418+1053027633+1051169800
982+1048862998+1047737561+1047190262+1048687503+1050961225+1050109893
970+1047120526+1046644364+1048865101+1050606240+1051236662+1053671791
959+1058618232+1061992930+1062539739+1062407698+1061873434+1062050541
947+1063628521+1063293161+1060164674+1058019139+1058963334+1062146979
935+1065595547+1067976570+1068362813+1066503228+1065759898+1068372485
924+1071794701+1073741823+1073406112+1070915265+1069652601+1071716275
912+1073536682+1072927006+1070071012+1063836956+1059298063+1062171298
901+1067804370+1070552151+1071053895+1070604295+1070740471+1072330436
889+1072940813+1071247682+1068776599+1067122015+1068091020+1070634642
878+1070234382+1065326208+1058000006+1052332662+1051582114+1051971931
866+1049600510+1047450140+1046299962+1043209462+1036636541+1027160388
854+1018405488+1014001160+1012811875+1010165228+1005043923+1000863939+996955748
841+989989156+983257350+980079803+976349209+970522912+966522138+966274525
827+966242636+960939038+953959409+951795162+952519007+952098072+949528869
814+945487726+941395980+939089879+938880743+938679177+937427095+936821274
800+937944257+937509235+933586537+928596712+923270056+918290885+915801720
787+916417844+916819084+913437097+910674317+911450236+909196139+903325687
773+899566218+896727956+893176011+890117960+888445995+890990668+894975182
760+892222845+884267203+878271578+874783831+872193532+871061578+870403262
746+869045772+868050064+868501416+869198278+867491200+864112296+862864069
733+864491110+865318332+863892578+864443662+868747487+872516067+872701864
719+871501786+870394992+868109496+866495702+867148200+867662840+868089732
706+870687320+871680365+865165755+856481081+853265547+852717056+851094992
692+848855683+846223332+843509332+841594309+841358611+840879926+838881921
679+838915843+842557568+847211962+848742144+843190863+832723487+828673863
665+832085287+831629169+826675369+823446519+825423217+828256012+826938891
652+823662663+824548477+828088577+824435989+818233191+820168679+825365957
638+828965420+831422836+829748068+821823824+811198686+805922771+806507707
625+805147693+800229356+797664288+797269706+794412661+791519872+789617465
611+788254928+792716656+803180667+808484615+800170204+787633337+780262140
##END=
