##TITLE=Sample description
##JCAMP-DX=4.24
##DATA TYPE=INFRARED SPECTRUM
##DATE=25/8/2023
##SAMPLING PROCEDURE=Instrument type and / or accessory
##ORIGIN=Default
##XUNITS=1/CM
##YUNITS=ABSORBANCE
##RESOLUTION=4
##FIRSTX=4397.6552
##LASTX=599.8556
##DELTAX=-1.9287962
##MAXY=1.8602631
##MINY=0.14626235
##XFACTOR=1
##YFACTOR=1.732505e-009
##NPOINTS=1970
##FIRSTY=0.15932652
##XYDATA=(X++(Y..Y))
4398+91963094+92174333+92409509+92409182+92258820+92314804+92584460+92672671
4382+92343066+91995202+91948258+92082475+92308456+92380695+92180268+92069359
4367+92200730+92536450+93180754+93886556+94259733+94357285+94368346+94144790
4351+93652877+93375523+93336990+93090806+92781551+92654850+92586017+92437530
4336+92241894+92134692+92101939+92141873+92272117+92439947+92555604+92401561
4321+92202992+92336358+92391730+92044425+91812286+92099454+92503560+92545352
4305+92385787+92340090+92314520+92114342+91949574+91927306+91756689+91664212
4290+92042550+92475486+92493204+92432473+92888383+93663645+93998961+93817163
4274+93592206+93380786+93121305+93037394+93074670+92896106+92498004+92201744
4259+92200343+92436559+92774739+92959685+92764443+92468038+92523308+92866373
4243+93206067+93401351+93410107+93347286+93275115+93049719+92585604+92179227
4228+92241593+92618443+93002466+93385818+93656498+93761532+93774236+93680314
4212+93622920+93684270+93637920+93470451+93473883+93751891+94050231+94045638
4197+93850681+93777565+93728350+93552556+93461368+93651294+94005532+94324438
4182+94520616+94484303+94153073+93803367+93796891+94094174+94347703+94305584
4166+94165630+94199716+94127674+93831449+93744769+93895200+93976831+93998204
4151+93917717+93747349+93800151+94059099+94232201+94149968+93918714+93876105
4135+93962854+93907026+93886143+94229896+94727374+94852612+94681807+94600252
4120+94549223+94447844+94520444+94764290+94887498+94765029+94507870+94387680
4104+94512428+94732690+94927028+95055603+95196409+95292017+95274617+95375455
4089+95604644+95662605+95546321+95590598+95808202+95853073+95778684+95876726
4074+96008458+95981924+95974604+96129499+96371116+96503570+96376560+96201953
4058+96264851+96466552+96583774+96642252+96720873+96676088+96452833+96388782
4043+96688834+96935896+96751862+96420107+96328060+96330210+96214209+96020421
4027+95723208+95590444+95897617+96224891+96324748+96392670+96398880+96324026
4012+96241035+95976970+95546278+95440495+95766625+95999676+95873397+95588956
3996+95396114+95426699+95565045+95730716+96046173+96239720+95994524+95729848
3981+95766445+95695504+95367301+95218935+95380417+95495051+95445638+95441149
3966+95420670+95211590+95082068+95294219+95641886+95707778+95260486+94516454
3950+93913674+93913348+94197935+93934102+93620357+94170524+95055586+95280088
3935+94298644+92804524+92616843+93673743+94012164+93312942+93001554+93169057
3919+92937296+92943747+94047599+95343330+95970854+95743437+94226680+91431909
3904+89035844+88647899+89815321+91974525+93679686+93439178+92172906+92368749
3888+93142747+92654437+91643965+90989013+91167224+92747439+93464422+92082845
3873+90017735+88630602+88889611+89884188+89906749+90511394+92432559+93222942
3858+91800735+88191284+84422466+86764303+91570995+94348512+94581227+92844337
3842+90335866+87956676+87074822+88657334+90677401+92055572+93050063+93489304
3827+93504124+92846032+90301824+87659436+88402024+90318622+92821468+95678474
3811+96858170+95619412+93255281+92062108+91091966+89997600+91103139+93175405
3796+95231337+97170143+98242834+98548253+98312020+97617555+97222815+97108044
3780+96553774+96693470+98102450+98844908+97857916+96058360+95271624+95686138
3765+96513298+96981473+96164298+95007885+95069726+94780055+92169904+88334025
3750+88113170+90198260+91235249+92405277+94077737+94341674+92191466+88946429
3734+89255056+93326884+96685644+97729866+97346221+97075051+97644553+98882683
3719+100319572+101056767+100034340+97025389+95224285+97705310+100924519
3705+102166348+101760186+101824194+103219739+104434577+104637525+103478695
3692+100996199+99670529+102409161+106161542+108417679+108973987+107907153
3678+105607719+103622692+105245422+107684922+108919758+112505857+117599640
3665+121267061+123429293+124700674+125259262+125733500+127057253+127698280
3651+125848925+124234168+128863173+135603768+140633078+144230015+146945699
3638+148990554+150605569+151937423+152419712+152159156+154740829+160154154
3624+164122883+165662329+165821550+167280784+170317808+173035050+175617257
3611+178091470+180368533+183945524+188140664+190890984+192319444+193848708
3597+195627364+197436415+199916254+202001430+202150948+201876613+204281572
3584+207937536+210593900+212094884+212872150+213407335+213996137+214407589
3570+213840890+211730600+210586933+212786622+215672339+217384217+218588830
3557+219893333+220537836+220282336+219889463+219533573+219165092+219648533
3543+221245417+222847031+223780869+224224763+224524403+224722327+224574013
3530+223971311+223511505+223675284+224215715+225166721+226283861+226975067
3516+227251415+227198485+226672503+226117382+226241854+226680278+226636345
3503+226321516+226564097+227039539+227135664+227363777+227791502+227842832
3489+227605120+227592580+228001881+228244874+228072512+228162460+228415035
3476+228178389+227817563+227851433+228028045+227963331+227422006+226568656
3462+225949750+225872393+225992857+225925908+225793488+225587237+225078200
3449+224329987+223917538+224201455+224594965+224664099+224506736+224169356
3435+223779648+223626396+223786529+223931506+223833111+223662228+223531425
3422+223495748+223738123+224265291+225109645+226254945+227122263+227367717
3408+227613153+228542174+230003163+231427942+232497640+233333290+234312919
3395+235495341+236760797+238144876+239565045+240828797+241990302+243406652
3381+245011397+246492340+247997934+249575328+251144809+252750879+254270870
3368+255714124+257268674+259023299+260964220+262929809+264859359+266929037
3354+269178852+271342193+273096715+274667933+276821642+279488464+281773251
3341+283632153+285556234+287775000+290435475+292901431+294443304+295557262
3327+296676553+297613264+298544917+299557316+300500425+301460290+302407252
3314+303331405+304488231+306154232+308184121+309920994+311057074+311823555
3300+312494668+313250759+313977366+314123720+313538856+313115759+313306906
3287+313314957+312643499+311741433+310960124+310476132+310722291+311214299
3273+310866340+310290352+310746855+311577293+311568382+311219184+311405068
3260+312104427+312916217+313221447+312904451+312505609+312398132+312482077
3246+312175505+311469712+310942854+310387543+309660420+309272243+309221050
3233+308971313+308240337+307247892+306497237+306165654+305860871+305295549
3219+304591752+303871269+303209272+302751909+302401713+301987768+301889304
3206+302152699+302152321+301858066+301553352+301287170+301003924+300465506
3192+299773922+299132980+298529435+298166923+297898815+297262759+296426541
3179+295856403+295743318+295881173+295897481+295749751+295417273+294731056
3165+294060321+293899897+293888612+293574196+293214058+293124987+293245503
3152+293312900+293152992+292631431+291874824+291527484+291724308+291751624
3138+291268252+290668629+290164855+289658191+289240599+288932857+288661343
3125+288344055+288014708+288005866+288118899+287733577+287079545+286745485
3111+286476775+285866487+285177724+284670234+284086868+283285605+282812433
3098+282962055+283185541+283033030+282500012+281812419+281443026+281698629
3084+282201526+282380872+282237925+282071376+282120832+282660626+283845869
3071+285187615+285597123+284561863+282622817+280433827+278195314+276000459
3057+273929044+271901271+270100390+268950376+268330318+267757943+267173940
3044+266797649+266784799+267092816+267362042+267245121+266689948+265905749
3030+265138752+264500959+264054432+263723606+263533285+263728509+264271778
3017+264938884+265699137+266700905+268044819+269597046+271280043+273320115
3003+275968033+279059794+282279897+285946871+290716037+296860200+304514997
2990+313394395+321972416+328253334+331215392+331106952+329065434+326500636
2976+324174874+321857335+319232090+316620812+314670601+313663157+313258328
2963+313021562+312846894+312900667+313314785+314016139+314780556+315459410
2949+316411706+317817718+319051642+319581735+319399670+318661882+317497728
2936+316108918+314787471+313471184+311849770+310030570+308224580+306102592
2922+303329479+299912190+295816185+291251050+286855044+283080163+279853161
2909+276909749+274225484+271897228+269803142+267910610+266434896+265391757
2895+264682559+264287707+264194215+264481864+265141178+265997005+266981468
2882+268022903+268877355+269541777+270216589+270695282+270814285+270955151
2868+271158030+270917840+270216417+269310618+267977886+265960606+263282327
2855+260044780+256230232+251753704+246930868+242359282+238267388+234413361
2841+230659277+227306272+224542224+222068148+219608419+217235232+215139821
2828+213524823+212370922+211342646+210252116+209119322+208083700+207438940
2814+207144134+206811141+206389764+206065904+205737486+205237325+204704015
2801+204370746+204132500+203667947+202948393+202194572+201518590+200805745
2787+199871907+198760495+197683709+196678742+195655712+194715682+193940634
2774+193207869+192523871+191932179+191394810+190945686+190521970+190076631
2760+189682863+189300551+188929816+188661089+188486266+188291077+187911965
2747+187381820+186923975+186565007+186123418+185600687+185213749+184960331
2733+184645038+184266941+183969589+183815753+183760638+183723878+183639932
2720+183528137+183418802+183236239+182976852+182764581+182655710+182634363
2706+182648812+182589776+182488525+182428852+182288967+182073960+181906431
2693+181629275+181176229+180829853+180672731+180481773+180258630+180070321
2679+179696559+179097917+178567119+178195868+177819939+177368149+176867127
2666+176358502+175935267+175636333+175445186+175335559+175139027+174718511
2652+174235809+173891600+173715091+173677092+173690269+173642448+173457270
2639+173176656+173014012+173029029+173050514+173048742+173073221+173060078
2625+173005961+172982911+173019276+173107882+173227521+173373118+173572625
2612+173842505+174119249+174365975+174644869+174939486+175191321+175403592
2598+175554848+175661775+175822028+176088175+176424334+176702282+176793245
2585+176722408+176586754+176448262+176359448+176342883+176311507+176113341
2571+175748507+175353621+174989165+174608109+174210075+173898257+173642413
2558+173292768+172896282+172628828+172502927+172362233+172126447+171867834
2544+171677186+171577295+171501555+171408665+171390224+171477214+171531761
2531+171486245+171412260+171409800+171527358+171674571+171808023+171996091
2517+172176487+172268793+172341969+172477984+172691030+172950709+173243743
2504+173562923+173843194+174080855+174358235+174645764+174841297+174933069
2490+174968316+175015243+175069635+175025151+174912358+174859549+174879847
2477+174903706+174805019+174572639+174380477+174280173+174160654+173965172
2463+173724518+173461777+173191707+172964161+172757222+172475748+172158787
2450+171936539+171770575+171568522+171382449+171225430+171043744+170855298
2436+170682282+170514581+170327011+170092464+169863232+169745072+169765422
2423+169878180+169994430+170011374+169933863+169821638+169732584+169767194
2409+169888484+169916179+169876219+169945078+170033926+170032085+170122739
2396+170288049+170333668+170338502+170369053+170327063+170117131+169672893
2382+168975805+167984736+166669034+165148974+163578839+161935166+160233024
2369+158731748+157546643+156576096+155813451+155483451+155795476+156596257
2355+157852939+159834767+162082328+163299601+162831814+161389781+160298340
2342+159975615+160245272+160849367+161377654+161733612+162138097+162759531
2328+163442772+163996156+164577855+165391021+166352589+167322155+168220092
2315+168893993+169319687+169702670+170149867+170617861+171067277+171421721
2301+171649078+171843545+172092508+172396379+172675290+172873679+173027257
2288+173163496+173302229+173442424+173520934+173531719+173544672+173615836
2274+173716949+173768107+173780441+173795837+173803801+173845550+173948383
2261+174005390+173931370+173841060+173912517+174055189+174065923+174047947
2247+174130981+174197105+174191411+174213928+174308418+174389370+174400482
2234+174410356+174471148+174549915+174634170+174746704+174852393+174881653
2220+174847645+174898993+175106843+175349561+175560043+175720244+175806425
2207+175875233+175968553+176087676+176195927+176259471+176354305+176538606
2193+176726347+176842546+176912351+176952121+176980591+177024008+177080516
2180+177183229+177335517+177458493+177510236+177535678+177578424+177617610
2166+177661527+177778310+177892135+177861859+177770586+177793448+177988723
2153+178256143+178427853+178510903+178626981+178807773+179008656+179161787
2139+179240297+179296839+179368571+179440802+179526983+179641169+179777150
2126+179931932+180050212+180091325+180128274+180231245+180374106+180511085
2112+180600380+180640357+180703109+180823797+180996521+181192640+181362990
2099+181545605+181779929+181976065+182073290+182193410+182473267+182848423
2085+183195281+183533866+183873585+184114188+184249481+184406413+184660416
2072+184958198+185167940+185215778+185302373+185653033+186048744+186268584
2058+186446933+186640850+186770036+186865885+187030541+187266946+187492205
2045+187615542+187609865+187654281+187883943+188164471+188383399+188593571
2031+188840160+189080333+189307260+189554795+189788172+189887444+189821166
2018+189877312+190286373+190776506+191079241+191288175+191548095+191904725
2004+192329748+192706555+192984744+193276694+193534688+193517520+193488432
1991+193945176+194660636+195318091+195970747+196617211+197198668+197690040
1977+198123372+198595924+199139383+199531568+199621792+199882160+200721301
1964+201626773+202167669+202539504+202850462+203098978+203412774+203794208
1950+204006565+203837609+203289058+202634338+202687733+203623738+204411687
1937+204685644+204748000+204824703+205019635+205252342+205181831+204579130
1923+204143028+204330975+204622771+205289859+206387786+206948824+206764403
1910+206643130+207222334+208097582+208710244+209085967+209306547+209207499
1896+209009488+209154448+209221088+209119528+209717551+210716773+211383363
1883+211848278+212256805+212627729+212953412+213114610+212632425+211074813
1869+209842333+211106327+213376595+214655416+215124786+215455939+215898251
1856+216396245+216777696+216878671+216578482+215809300+214842211+215176203
1842+217263305+218979811+219714468+220230524+220498667+219700655+218588468
1828+219058423+220352881+221678956+223373632+224757041+225493642+225996263
1815+226242078+225892072+225631481+226415851+227599563+228101824+227615630
1801+226915892+227245515+228068744+227883859+226847515+227398130+230162263
1788+232293747+233139563+233485079+233641668+234139180+235032198+234951040
1774+233300727+231922462+233408755+236385091+238850204+239829919+239716421
1761+240349313+241578008+242648686+243715821+243486796+241590892+240706079
1747+242546490+245018020+246793270+248148674+249793172+251018375+250524028
1734+250473059+253849975+257960860+261640787+264320201+265917360+266760871
1720+265970187+263660269+264316348+269820137+275082860+278315194+279513717
1707+279484577+280095381+281332642+282142506+283707566+287419007+294185207
1693+300701240+303950535+305708016+306675689+306627077+309968161+317951238
1680+324752375+329847741+334458736+339569342+343832137+348600529+356839398
1666+363826452+367021906+368964581+371241214+371929839+369656475+364426041
1653+360556893+363021852+364134228+365454609+372420024+380057653+385117892
1639+387986544+390143487+397842905+411020189+421098213+429433344+439081149
1626+449763474+461888176+476367057+488162412+496714940+507540936+519368527
1612+527531742+533026845+537452541+541232067+543815306+545071799+545436444
1599+544693770+542558124+539740630+536908033+533785653+530232848+526464814
1585+522407134+518215727+513884813+508806340+502252290+496462967+494847127
1572+493415760+490482910+489303550+490097279+490754355+490239091+487100541
1558+486192764+494197413+502307887+508834688+514283965+519882313+524949054
1545+528496320+531270465+538217474+558335987+576170815+587562683+601477136
1531+617995264+630742123+641392281+652188173+661343489+669502954+678017947
1518+684947341+691015266+696393258+698530005+696456836+691049807+689760424
1504+697142640+703139073+706257497+707519632+709969178+714949669+718676970
1491+720536354+723939985+731439517+740338800+748241889+754782727+759510144
1477+761182923+759764113+758076678+761242441+768878763+776011690+781402205
1464+785638749+788645773+790036785+788042607+788011437+795978999+803996445
1450+808929184+812122951+817106539+823887171+828516607+830294316+831373562
1437+833216501+837467702+842765189+846293567+848479925+849418665+847618799
1423+845752947+845281203+842599225+841335920+846471916+852090734+854096541
1410+852841905+849540798+845278932+842345532+841454269+838119446+831318860
1396+826933828+826668782+827795848+827508164+824454558+821079001+821461914
1383+824064626+824813526+823018133+820079847+816932662+815778073+816779291
1369+817235278+817336356+817671311+816548579+814569126+813892335+814360364
1356+814963530+814530387+813218642+812172768+812119029+812701278+812284374
1342+809965424+807319295+807344823+809726731+811182766+811371987+812876944
1329+815672591+816621584+816234060+817080461+818548124+820488770+823850015
1315+826582085+827592385+829493673+833010010+836349374+839231375+842297504
1302+845599025+848566553+850785388+852976286+855367002+857013702+857977970
1288+858743040+858405884+856585032+854664822+853813192+853513466+852553258
1275+851070870+849903551+849314078+849325431+848891944+846248223+841769476
1261+838113873+837030017+837609239+837553849+836245131+835255610+834705219
1248+833582901+832872876+833219804+832990537+831719732+830968974+831071153
1234+831393653+832285261+834275517+836569627+837842152+838475525+839089219
1221+839475297+840372960+842129408+843788218+844866569+845995356+847821162
1207+849976212+851666192+852382340+852119977+851599999+851613279+852812662
1194+856053700+860449947+863160962+863805069+864854726+866818354+868278724
1180+869697878+872054878+874924906+878212183+881807649+885142059+887764862
1167+889481127+890557207+891194089+892925147+897568000+903424135+907716896
1153+910216602+912195987+914617803+917058473+918841343+920719375+923497958
1140+926678308+930607971+935615366+939072598+940272256+941705447+944047447
1126+947077177+949866288+950975533+950971749+951090029+952073563+954332856
1113+957475844+959629999+959205526+957569284+957190293+958954172+961336425
1099+963347392+967143500+972007225+974774937+976958335+979564762+981074605
1086+983362315+987867278+991119050+990520769+989393290+990385563+992010589
1072+993654743+996119083+999776682+1003649028+1006753415+1009182732+1010409982
1059+1011446773+1014063796+1016929971+1019926674+1025948291+1030949081
1047+1027882056+1022036174+1021440301+1025728451+1031078852+1033785462
1036+1032772410+1030983003+1031668394+1032845896+1030977567+1029551119
1024+1032389565+1035702163+1036513197+1037965103+1040453250+1040963389
1013+1040322722+1039770198+1037874759+1035028951+1032742272+1031678921
1001+1032455139+1032774887+1031329999+1031904472+1034718767+1036861156
989+1037646731+1036380467+1035033010+1035248997+1035023377+1035052689
978+1035715856+1035063699+1035550580+1039070839+1041793826+1042518094
966+1043630298+1044344313+1044560643+1046234523+1047827278+1047635168
955+1047710099+1050193636+1054632681+1058017252+1057960141+1054934402
943+1051648157+1051257193+1052397333+1052894948+1054386557+1055354540
932+1053649766+1052583457+1054359171+1056315161+1056511194+1056976539
920+1059699044+1063589074+1066079285+1067668256+1069938008+1070660968
908+1069667939+1069296448+1070600349+1073741823+1073146501+1067039287
897+1064641072+1065931074+1064031093+1063203615+1066679287+1070068467
885+1070875854+1068129335+1063615221+1061528772+1061311960+1058399064
874+1053199628+1051149096+1051956827+1051486322+1050479944+1048585055
862+1043351008+1037499965+1034367573+1032309336+1027009647+1019694243
851+1015753570+1012846592+1007813257+1004383273+1003433111+1001402052+995307086
837+986025302+978699784+975284456+970389217+961935669+956750751+957171646
824+958090088+957182586+955962355+954506113+951743218+949562365+949564911
810+949619544+948680529+946803392+942745885+936979543+932056093+929507190
797+928182164+927782943+930214806+931253798+923557407+911574724+905269414
783+905554896+907386482+908488434+907945612+904751569+900598350+896741829
770+893407075+890800992+887833669+884946439+882415769+878792505+874957865
756+872230062+869688176+866954111+865306723+865073328+865835577+867156956
743+866845395+863704403+858643476+853417755+851115182+852605552+855733677
729+857740309+857267189+856731179+856994230+855335213+853587021+854896015
716+856457187+855775649+853951495+851900000+850014538+848025314+845808268
702+844371293+843211543+841391792+840179129+839835848+839436215+839114608
689+839400022+841551631+844307371+843667874+839691628+836306438+835459762
675+835082422+833237350+829666999+824526737+822122604+823407514+824448571
662+826207978+828849841+831243722+829258764+819719984+811877309+811259074
648+812452195+815070113+817966976+815239999+811709831+815742706+824373571
635+834183521+842192642+837521509+826029423+818811932+808483931+797084184
621+794752712+794597069+789846533+793145025+813314078+833698635+836800269
608+831835810+825257472+814452841+808294641+811960772
##END=
