##TITLE=Sample description
##JCAMP-DX=4.24
##DATA TYPE=INFRARED SPECTRUM
##DATE=25/8/2023
##SAMPLING PROCEDURE=Instrument type and / or accessory
##ORIGIN=Default
##XUNITS=1/CM
##YUNITS=ABSORBANCE
##RESOLUTION=4
##FIRSTX=4397.6552
##LASTX=599.8556
##DELTAX=-1.9287962
##MAXY=1.9396788
##MINY=0.61627471
##XFACTOR=1
##YFACTOR=1.8064666e-009
##NPOINTS=1970
##FIRSTY=0.72868335
##XYDATA=(X++(Y..Y))
4398+403374928+404224751+405587451+406399165+406631055+406649565+406835658
4384+407162244+406627062+405764668+405619687+404907751+403360278+402830079
4371+403853721+405016998+405254596+405307817+405421980+404650587+403350050
4357+402628544+402800020+403682509+404856080+405514862+405294454+404728026
4344+404186345+403947394+404120024+404514679+405141950+405679705+405807529
4330+405493877+404911578+404698990+404989249+404821171+403578442+402806322
4317+403933437+405252616+405009871+404195814+404068024+404430806+404540086
4303+404357952+404395765+404657812+404981297+405281289+405594710+406192285
4290+406334791+405344640+404259858+404152360+405005647+406095675+406423746
4276+405705442+405066193+405152608+404899139+404234155+404154834+404504121
4263+404584299+403757936+402581064+402602775+403500936+404285396+404806093
4249+404457961+403712369+403752095+403915257+403433725+402795137+402368378
4236+402295161+402810150+403446131+403429634+403198041+403622688+404645604
4222+405954918+407188310+407143403+405294982+403567323+403312468+403357374
4209+403084702+403115223+403438740+403595797+403347839+402935597+402884653
4195+403106875+402980537+402754289+403268683+404186378+404551007+404294635
4182+403957523+403990980+404578789+405399873+405637373+404959652+404020808
4168+403327844+402723900+402488678+402986080+403498330+403576429+403469261
4155+403153596+402924445+403051575+403190353+402819092+401976626+401627406
4141+401964022+402182153+402339078+402790221+403049728+402676124+402206470
4128+402336207+402886369+403261326+403123043+402565953+402127975+402264971
4114+402815000+403177221+402995946+402787977+403196094+403600714+403117434
4101+402353893+402511313+403505061+404146816+404089504+403888398+403486287
4087+402886072+402829617+403194939+402887787+401979926+401710619+402170737
4074+402331654+402025426+402014406+402738121+403640935+403969501+403725864
4060+403009902+402413647+402817277+403451279+403461210+403398585+403226813
4047+402511676+402157770+402990732+403664460+403015215+402303080+402443640
4033+402684504+402655403+402719248+402837965+402501942+401834813+401677888
4020+402336603+403134888+403133370+402331324+401735102+401855501+402309580
4006+402675299+402588917+402252070+402480297+403146568+403490939+403375918
3993+403178706+403396408+403740943+403488992+403053390+403171381+403527168
3979+403683796+403571315+402945199+402212212+402272725+402913821+403175208
3966+402928569+402683283+402633164+402953250+403542477+403852863+403698445
3952+403145711+402383753+401986591+402383456+402972915+403014357+402854033
3939+402677608+402323570+401880346+401128387+400482342+400769301+401692538
3925+402578821+402848655+402353464+401667000+401430754+401651624+402122432
3912+402729576+403328504+403497901+402457234+400628048+399455434+398920879
3898+399475891+400775900+401164187+400733006+401395021+402599839+402202841
3885+400557736+399394557+399129837+400866141+402893133+402195780+399119180
3871+396336798+396158723+397839694+398208613+398258072+400464755+402450404
3858+401894699+398824599+395373207+396737293+399755524+400975355+401007625
3844+400871223+400101380+398056175+396605906+397639677+399376344+400496860
3831+401174184+401387630+401086813+400332544+398242400+395578305+395678214
3817+396948198+398672327+401429171+403348565+403391293+402085312+400748514
3804+399322364+397983388+398620887+399825705+400594393+401729031+403047220
3790+404017772+404341356+404047138+403896647+404130781+403697587+403153596
3777+403961483+404872083+404295790+402596374+402291004+403772882+404724067
3763+404578492+403779382+403013499+403209754+403571480+402599047+400301264
3750+401196852+405342462+408199578+409810171+412493832+414875191+415497743
3736+415123710+416007057+418748459+421927080+423800875+423216168+420818839
3723+418568470+417104310+416276264+415933972+415424131+414301339+415091177
3709+420136235+426384461+431844466+437278999+444117113+451919114+459929941
3696+467641173+473455513+475989343+476284682+478067971+480108820+479368508
3682+475763029+469829312+462034339+452429582+445605590+443607800+440498369
3669+436874182+435706549+434550267+432477577+430235755+427829913+425048916
3655+423311590+422408248+419655892+415343029+414827183+417242593+419342636
3642+420230667+419880292+419172348+418780200+418276760+417015520+413602898
3628+409346853+408438925+407583229+403690494+397746120+393546991+391937851
3615+390006743+388064121+387995359+388633947+388432215+387932734+387051664
3601+385631817+384700958+384240774+383189846+381695099+380232061+377649002
3588+373660977+371253552+370982662+370803729+369690340+367947932+366245943
3574+365062407+364670755+364311239+362512806+359410073+357525291+356857667
3561+356310838+355977092+355787568+355101203+353819407+352771580+352339839
3547+351777172+350647187+349753019+349580520+349605035+349494733+349112682
3534+348151302+346876996+345898624+345607244+345943167+346095044+345701973
3520+345322495+345102220+344944800+344580995+343804487+343268283+343343116
3507+343770997+344298293+344270610+343457477+342523615+341869190+341495025
3493+341283493+341238091+341549961+341846027+341780961+341966855+342404206
3480+342349929+342071219+342152750+342249756+342098209+342245631+342696015
3466+342912529+342789457+342363226+342060232+342346728+342795034+342913024
3453+342570931+341782016+341149235+341323450+341959695+342483031+343117330
3439+343812505+343961709+343895092+344099431+344299745+344608150+345020128
3426+345093212+345091232+345409603+345796801+346036873+346460894+347345659
3412+348370555+349312137+350172288+350533717+350528141+351152475+352502142
3399+353657368+354212182+354613964+355482198+356992353+358793361+360263163
3385+361305810+362779604+364968041+367309443+369480095+371315748+373313868
3372+376096679+379232044+382148123+384563038+386658758+389299327+392605211
3358+395748824+398624154+402068287+406307999+410626702+414505711+417864552
3345+420848138+423930051+427267148+430443789+433571928+436870783+439622975
3331+441737832+444294858+447652016+450752570+452693378+453608268+453973953
3318+454773987+456511709+458370194+459637142+460158961+460320835+460329414
3304+459872662+459431615+459527070+459402646+458368083+457141257+455977122
3291+453704449+450622041+448462872+447146761+445148112+442192769+439496208
3277+437654550+436097245+434791066+433981694+433103100+432033529+431046413
3264+429668502+427734656+425965687+424714181+423818395+423073200+422064175
3250+421134008+420991073+420818608+419836375+418796467+417843666+416647954
3237+415855609+415410174+414509637+413277499+412179652+411575312+411646648
3223+412117291+412615320+412701107+411934861+410583973+409459432+409070419
3210+409450787+410014741+410074165+409776153+409682644+409904603+409982339
3196+409480945+408619442+408125570+408052255+407816208+407376547+407042372
3183+406984664+407030362+407123870+407576069+408171400+408138372+407640871
3169+408026123+409018683+408913956+407877117+407463918+408282396+409484937
3156+409871872+409568943+410227658+411642689+411205404+409243545+409216852
3142+411944495+413839803+412572096+411064646+412330703+414421408+413903253
3129+411681326+411111434+413259286+415292019+414356639+412493601+413444323
3115+417155948+418924224+416426161+413958717+415401232+418806992+418885785
3102+415542056+414145338+416661746+419365666+418237958+415336100+415294097
3088+418956790+421839478+419633158+415762958+415149842+417627416+419395329
3075+417808031+415497116+416131316+419184193+420272703+417867851+415495104
3061+415625600+417672916+418469518+416589916+414680090+414577080+415585939
3047+415922556+415147401+414438500+414386467+414544975+414389403+414341428
3034+414907229+415639919+416109704+416274416+416151212+416126235+417925362
3020+426444249+442782822+454543548+451070512+440332998+432339031+427964995
3007+425028558+423033012+422140229+421838950+421600692+421365766+421760652
2993+422922247+424444973+425831891+426017984+425263154+425210890+426622620
2980+428591672+429143516+427913028+426580288+426735101+428651129+430099749
2966+429339738+427966150+427767948+429456739+431381247+430406142+427657414
2953+426492059+428340843+431966812+433401442+431694932+430035408+430206653
2939+431883830+432870352+431451791+429492176+429217755+430904434+432680300
2926+431983739+429864856+428906908+429559453+430845010+430486188+428041544
2912+426385286+427069771+429075975+430401753+429849678+428836166+429068650
2899+430517995+432182436+432485100+431195386+430096053+430372190+431682097
2885+432820727+432858539+432234040+431939723+432288845+432595733+432111265
2872+431267942+430883713+431286815+432464643+433311662+432780077+432016899
2858+432301449+433128572+433414805+432659447+431419060+430582072+430546206
2845+431127416+431750397+432123506+432302010+432590388+433236466+433991758
2831+434553863+434895561+435335123+436145649+436939017+437177737+436941624
2818+436652685+436571418+436851877+437321068+437642738+437992816+438515163
2804+438864350+438932485+439041072+439452522+440207682+440957860+441187242
2791+441089115+441206676+441439457+441481526+441475752+441665012+442108599
2777+442722243+443184142+443341496+443405902+443472816+443642313+443965467
2764+444236951+444523712+444881973+445008840+445051239+445463546+446110053
2750+446453434+446360618+446304164+446549648+446835188+447010227+447131583
2737+447396237+448057130+448924870+449604966+450123716+450581721+450701098
2723+450429911+450278991+450557173+450991884+451215690+451267328+451441344
2710+451760341+452001173+452159748+452462940+452867560+453220476+453718505
2696+454370951+454853406+455057217+455108063+455158776+455105588+454934343
2683+455050816+455365029+455461771+455547129+455764666+455879951+455980883
2669+456249266+456574235+456816354+456923192+457051312+457480183+458006654
2656+458323803+458617922+458755974+458433611+458258407+458754588+459399313
2642+459866393+460285860+460371185+460148600+460169024+460441333+460647355
2629+460826486+461200783+461701319+462006590+462068786+462097789+462244287
2615+462463771+462710476+463218832+463870651+464180938+464358353+464864631
2602+465482465+465733360+465593229+465603953+465959476+466128609+466092116
2588+466298732+466621853+466881690+467202403+467520707+467648630+467619957
2575+467715082+467992835+468172395+468121945+467975150+468034079+468424907
2561+468737602+468723909+468742815+469043896+469464617+469798891+470066218
2548+470298767+470340770+470267686+470348755+470539500+470652673+470812436
2534+471181058+471520743+471666647+471736630+471865047+472184011+472532308
2521+472607570+472439790+472340936+472569230+473124505+473776325+474113634
2507+474079385+474059852+474246638+474566658+474862327+475256454+475866667
2494+476261190+476287058+476287784+476477407+476910468+477278661+477200199
2480+476847283+476628690+476719393+476881202+476996784+477466602+478220211
2467+478660861+478648059+478514462+478548975+478697552+478896744+479279388
2453+479775437+480057645+480010132+479897750+479945297+480168113+480383439
2440+480366315+480274720+480387630+480734739+481354520+482048144+482240043
2426+482018943+481988587+482116609+482130005+482165474+482438575+482710554
2413+482848111+483272330+483946157+484474343+484765757+484864874+484958118
2399+485159620+485720570+487309980+490710394+497094396+507969202+524058266
2386+544430332+567070023+590583953+614516130+638382317+662203498+686422535
2372+710866335+734821014+756537699+775434287+791315251+801902472+806946045
2359+805176053+793409783+774258208+753242407+734437743+724559126+729695943
2345+745088380+751568497+742798583+731096587+722900063+720229699+723167918
2332+726864695+725670798+720857267+719054346+721634369+722401902+717073185
2318+706807469+695982947+691638805+695168560+697889275+691875380+677349000
2305+660063630+647023088+639364187+632805014+624982127+615558381+603940788
2291+591361319+580044245+570416325+561862068+554162979+547646073+542816044
2278+539252601+535658274+531638507+528058731+525368537+523213063+521356557
2264+519682746+518147383+516868193+515742300+514605782+513636714+512953186
2251+512359703+511737513+511045473+510335021+509849563+509552640+509129675
2237+508626598+508378606+508559255+509035309+509258983+508960542+508648441
2224+508654710+508886600+509357012+509939574+510270383+510212180+510133949
2210+510646165+511657170+512333208+512513328+512693053+512919597+513064380
2197+513359423+514003158+514796131+515380442+515535057+515495265+515783082
2183+516402632+516869315+516981202+517036568+517242358+517449898+517630711
2170+517896553+518104192+518078555+517932716+517798360+517695943+517531033
2156+517287166+517226026+517348306+517497279+517753618+517840033+517472962
2143+517303136+517748669+518228353+518576452+519066067+519637477+520248712
2129+520937090+521573500+521884117+521882962+521907147+522176223+522722326
2116+523315776+523625040+523749630+524081462+524597407+525005953+525249490
2102+525312775+525208411+525191287+525376027+525543510+525751050+526174312
2089+526597177+526824679+527038884+527572811+528231394+528551348+528695438
2075+528978603+529286315+529566906+530072293+530874141+531862940+532761629
2062+533211551+533560244+534398420+535430475+536018284+536396210+537084225
2048+537861426+538437653+539075681+540060091+541105411+541756240+541924911
2035+541926759+542218568+542611903+542758732+542965512+543429787+543754789
2021+543754822+543808473+543828831+543483635+543121414+543013487+543131346
2008+543423881+543553618+543412762+543424013+543633829+543790358+543943654
1994+543962560+543771419+543792833+544086490+544336065+544546739+544812020
1981+545201693+545611592+545733575+545784354+546003937+546131001+546185674
1967+546474976+547108549+547857110+548591384+549264683+549487103+549285272
1954+549284282+549682336+550163471+550699477+551326616+551542141+551571110
1940+552328382+553300716+553744270+553977282+554305650+554591520+554751876
1927+554752338+554656058+554908867+555509181+555763112+556102896+557190746
1913+558020706+557999193+557870974+558214784+558833971+559187745+559225095
1900+559642682+560381113+560715750+560856904+561010793+560894188+561050453
1886+561741042+562418828+562959619+563374830+563648558+564059017+564677016
1873+564857896+563962407+562693084+563029304+564811901+566355216+567158186
1859+567402614+567319268+567338538+567634768+567953039+568000354+567588971
1846+566691701+566226733+567078866+567944659+568215879+568815203+569676772
1832+569265389+567627443+567195998+568052289+568843117+569853626+571024888
1819+571974951+572540949+572400654+571585344+570901420+571255722+572247359
1805+572998328+573248827+572877566+572435233+572851104+573274366+572524782
1792+572014413+573533840+575438122+576512576+576729420+576374656+576139665
1778+576303651+576072487+574594634+572602452+573143507+576082715+578636210
1765+579430931+579071020+579252890+579877686+579877620+579853467+579627847
1751+578118054+576505713+577055214+578743576+579578552+579190793+579150869
1738+579979113+579633720+577988515+578738363+581171954+583102830+584057182
1724+584050913+583575255+582296231+579446439+577792656+580087205+582954352
1711+584536074+584407195+582800397+581512530+581142192+579463333+576873081
1697+576662968+578902811+581811664+583348974+583277770+582053452+579527607
1684+577725214+580058367+582889747+583832683+582615822+580989161+580162236
1670+579420109+580541152+582716589+582744239+581471814+581953675+582967880
1657+582154813+578726815+575211577+576642511+577153078+575956872+578083409
1643+581909395+583628443+583000743+580869982+580628788+584820888+588486253
1630+590188143+591537249+593188921+594649814+597401676+600609729+601851336
1616+603220965+607306953+611132675+613418184+615184876+617122088+618660784
1603+619797533+621215862+622894590+624474530+626020485+627689643+629391203
1589+630992326+632568307+634340345+636124788+637224649+636887834+635246062
1576+635576079+639001504+640845273+640859791+642307156+644944261+646751802
1562+646900412+643848954+641422490+647618452+654313631+659086182+662080228
1549+664029384+664968360+663842103+660287470+657541085+665031447+675469134
1535+680824313+684024579+688713322+693067825+695253094+696062399+696605631
1522+698807662+704312771+711360998+719308409+726142959+730670092+733281065
1508+733092530+735583004+745718786+753995092+758787242+761842660+766577200
1495+773427192+778444171+781323592+785434656+792596914+799798701+804912620
1481+809014907+814035648+819191140+822551235+824759799+830007018+837800539
1468+843328943+845610426+848552736+853268337+855568363+854112683+857280416
1454+867597341+875371197+878791607+881595007+887986696+895614120+900514560
1441+903441164+905426614+907029849+910900379+915141114+916726333+917616014
1427+919704937+920513451+919915974+919765516+917907229+914498962+913752084
1414+913046251+908966203+903519231+899948957+896906342+893233453+890367956
1400+887015451+882663390+879817822+879141355+879651658+878854561+874432947
1387+868429478+865918877+867262374+869486181+869593613+867408080+865644622
1373+866360880+868915101+871202787+872100189+871587313+869598827+867771555
1360+868163538+869601598+870389457+869936961+869530593+870118368+870475244
1346+870467457+870972811+870638372+868258102+866796086+869311571+873628393
1333+876342112+876515799+875588305+875670199+877759254+880293282+881091963
1319+880340333+880083565+881884440+884249797+885259119+887532683+893553374
1306+900261619+904694386+908361071+912049138+914681887+916710297+918989800
1292+921040383+923087139+926844627+931457283+933801655+933814985+933379053
1279+933496252+934692986+936869148+939302541+941207813+942346146+942772443
1265+941772228+939535355+938786233+941460952+944666629+944606842+943289807
1252+944127422+946747897+949533018+951181456+951703967+952223047+953710073
1238+955653091+955648868+954441971+954603714+955403516+956085196+957287143
1225+958748235+960217443+960969139+958972932+955350262+953161891+952475526
1211+952496709+952906905+953879800+955007838+954495687+953266750+952999753
1198+951762897+948951710+947425024+947231012+946851040+947808824+949673776
1184+949856305+950080540+951915202+952649741+952637598+953685194+953427700
1171+952165900+952359185+953072144+953461223+954265183+956144851+958278582
1157+959158299+959657977+961183673+963119235+964857090+966887545+969772972
1144+972653382+972905795+971073904+970830532+972420635+974713402+978106162
1130+980323634+978737953+976596039+977441837+978974660+978365174+977647529
1117+980270248+984830046+986748054+986515966+987302835+985741834+980661240
1103+980297898+987062300+994895614+1000318763+1002898984+1003229002+1002786339
1090+1003372663+1006063483+1011266555+1016339230+1016386149+1016029868
1078+1021452819+1026195476+1024791995+1022203921+1023236537+1027934783
1067+1033364136+1036217754+1035448571+1032076203+1029080045+1029241655
1055+1032962057+1038467694+1040754126+1038181164+1036685098+1037845801
1043+1037806075+1038734097+1042252634+1042545169+1040375276+1042278172
1032+1046875981+1048625384+1046249337+1043487973+1043890777+1048076081
1020+1053707496+1055310598+1054427186+1057208545+1058770140+1054261946
1009+1049504969+1046736411+1044653493+1045625201+1048923858+1049750915
997+1048560252+1049124403+1049280536+1046384617+1043454318+1042737267
986+1044365776+1047162709+1048179685+1047369786+1048017217+1051414266
974+1053645333+1050566159+1046482019+1047714388+1051809680+1053363224
962+1052895023+1053539946+1055556544+1057193302+1058609124+1059108802
951+1057226165+1057276779+1060813266+1061574464+1059171163+1058511722
939+1059242367+1060183256+1062199128+1064083086+1065363760+1065683483
928+1064234995+1063871851+1063788901+1061304432+1061424402+1065660254
916+1068127896+1067957905+1067126031+1064836365+1063733535+1066995568
905+1071538539+1073741823+1072623419+1069239304+1067513196+1068999825
893+1070496090+1067991692+1063342806+1061385006+1060451969+1058672870
881+1059210295+1061190466+1060210510+1055672423+1049103154+1043392221
870+1041319795+1040085974+1037544622+1036498279+1038245901+1041357541
858+1041909682+1038093991+1034440239+1033947424+1033619584+1030580928
847+1026335112+1021168467+1014601837+1009708260+1007250979+1005622932
835+1004149764+1000809731+994950518+988830246+984302717+982714265+983256441
822+980272359+973236473+970667206+974796814+979572202+981227173+978483494
808+972169344+966204546+962087740+959050998+959081486+963400288+967632774
795+965871229+957912600+949099198+943079496+940577276+940164770+938323113
781+935949837+936359505+937947562+937446300+934225511+929728865+926083165
768+924817932+924924111+924125628+922179442+919769740+917900168+915970480
754+910770312+903410413+899670412+900217208+899603762+896775615+895025090
741+894771094+895575845+895510053+893037990+891849373+894650067+898598399
727+899268795+897466666+898646638+903936817+906089421+899805956+894471432
714+897865445+902241592+901734523+898565074+892229147+884533291+880304170
700+881625032+887568449+893171488+894929668+893641933+889047226+885835280
687+889902329+895560206+895142817+890834178+887125061+884832293+885467648
673+890161737+894032530+888977606+876449479+872988221+876429220+876157009
660+870910582+865671744+866832579+875990450+882161600+878257811+871747735
646+867987871+866424231+867453614+871197178+872218510+867528711+862169902
633+855777421+848701742+844681942+841656155+842737208+845343495+832262039
619+812259848+813582756+831352956+833610749+821989063+817733217+822628839
606+825975604+820258996+819543661+836259006
##END=
