##TITLE=Sample description
##JCAMP-DX=4.24
##DATA TYPE=INFRARED SPECTRUM
##DATE=25/8/2023
##SAMPLING PROCEDURE=Instrument type and / or accessory
##ORIGIN=Default
##XUNITS=1/CM
##YUNITS=ABSORBANCE
##RESOLUTION=4
##FIRSTX=4397.6552
##LASTX=599.8556
##DELTAX=-1.9287962
##MAXY=1.788074
##MINY=0.30481049
##XFACTOR=1
##YFACTOR=1.6652737e-009
##NPOINTS=1970
##FIRSTY=0.43392253
##XYDATA=(X++(Y..Y))
4398+260571298+260465566+260644834+260916966+260578600+259979967+259714582
4384+259316997+258399952+257974878+258721513+259666262+260127486+260098978
4371+259414657+258710883+258356267+257716419+257385622+258202394+259042395
4357+259072282+259095046+259104817+258473971+257825550+257578294+257168074
4344+256675638+256769397+257334761+257516838+257005486+256394111+256129674
4330+256048908+256003612+256137334+256532199+256788654+256518294+256150738
4317+256011379+255863824+255883063+256213304+256427273+256327250+256035522
4303+255629955+255331193+255170197+254926181+254664321+254523710+254594436
4290+254990500+255513306+255679187+255503266+255598654+255980795+256015746
4276+255510926+254927040+254575627+254241842+253768394+253382907+253655164
4263+254381577+254362195+253629107+253271090+253479636+253749138+253638091
4249+253168419+252842401+252831950+252862910+252931525+253072441+253045131
4236+252810903+252475329+251929365+251283754+251063969+251380591+251737355
4222+251812090+251727566+251600126+251412411+251329336+251441314+251474207
4209+251236866+251005430+251109211+251357935+251428392+251583912+252055946
4195+252163485+251566695+250939661+250603764+250619030+251016365+251162936
4182+250799318+250481425+250141716+249534923+249169265+249176638+249299926
4168+249373784+249029100+248485284+248433617+248696336+248659666+248495270
4155+248515403+248381073+247846044+247398600+247598144+247970961+247817499
4141+247334781+246912588+246669502+246367949+245837877+245598227+245972797
4128+246500650+246674048+246418202+246007015+245738212+245606226+245479323
4114+245365986+245304726+245221347+245051869+244912582+244778717+244536042
4101+244430991+244644423+244754772+244233809+243477616+243363760+243754491
4087+243920086+243867292+243954536+244140408+244112311+243569478+242772017
4074+242294149+242182547+242398592+242736904+242593340+242062266+241751531
4060+241856476+242107060+242103553+241814383+241477323+241299380+241183859
4047+240755277+240420812+240954553+241668922+241495667+240841198+240487100
4033+240470296+240414405+239938273+239331318+239248279+239511212+239502586
4020+239270524+239241819+239458991+239506291+239072358+238482602+238197119
4006+238196511+238287102+238366956+238410193+238355090+238126572+237944637
3993+238007812+238157568+238169917+237873875+237511653+237577082+237787883
3979+237510776+236784471+236064787+235706502+235720622+235928703+236128945
3966+235995349+235557765+235393799+235697017+236111443+236219018+235673429
3952+234552134+233355208+232954276+233266066+233008931+232509534+233146483
3939+234327338+234292708+232354891+230186820+230274494+231928314+232573262
3925+231959919+231555390+231192631+230161371+229846897+231382958+233286790
3912+234295375+233983155+231514693+227013135+223208567+222722950+224933418
3898+228310423+230480660+229785494+227686395+227645466+228410965+227394935
3885+225817999+224904640+225268563+227646164+228896314+227281544+224274295
3871+222122116+222845271+224277695+223673461+223685183+225778752+226628596
3858+224405010+219121578+214590598+218917327+225114833+227656294+226889489
3844+224182308+220770798+217231115+215945262+218775677+222119736+224038546
3831+225142268+225391260+224994963+223887072+220948222+218260173+219023005
3817+220847788+223859977+227246235+228237120+226402314+223560159+221919636
3804+220018972+218426591+219896991+221944834+224197931+226779945+228144614
3790+228362090+227682494+226395048+225820522+225682863+225004609+225677727
3777+227831070+228245191+226013588+223277307+222690039+223519445+224375463
3763+224592600+223071947+221218099+220949941+219957928+215955445+211149845
3750+211353058+213481471+214232438+216225662+218845509+218983722+215693049
3736+211005565+211506323+217412709+222030075+223043670+222016581+221555302
3723+222637710+224663487+226757646+227713312+226572008+223930685+225531442
3709+235236275+247704305+260173033+273824315+289836717+304825717+316406624
3696+324933806+329205665+328644650+326885761+328886036+332562448+334051245
3682+331167177+322910122+311074013+299582766+295110987+294505160+291017089
3669+288199756+287788068+285590110+281171161+276087524+270633736+264481114
3655+259130266+253982076+245807793+237719662+238397558+242201839+243648473
3642+243215292+241813363+239557564+236762082+233696384+229762981+224415623
3628+222085840+224563822+225918665+224009465+219637404+216459138+216002226
3615+215561475+214863481+214330707+213661312+214273134+215787702+215678195
3601+213926392+212242310+210906974+209935578+209941161+209612316+206837952
3588+203700471+204677433+207087821+207758540+207028494+205950955+205281524
3574+204999657+203890996+200641752+195705724+193417156+195671220+198032786
3561+198810955+199117305+199173714+198298350+197027226+196376837+195696400
3547+194516619+194034634+194958945+196212334+196513923+196023527+195846872
3534+195907988+195221824+193923534+193191233+193228654+193316973+193650489
3520+194570254+195478136+195827455+195356638+194215083+193442748+193666488
3507+193986386+193538798+193033584+193340184+193752659+193785087+194009007
3493+194429660+194466079+194173277+194025972+194169931+194314802+194484083
3480+195004330+195464982+195464284+195423534+195721508+196200594+196568238
3466+196544436+196133518+196036252+196546280+197073435+197467977+197772770
3453+197651290+197176518+197020193+197724468+198854784+199448799+199532196
3439+199821795+200273857+200533336+200749381+200936720+200931780+200990588
3426+201349249+201738441+202009624+202512279+203398649+204324463+205093935
3412+205856355+206659132+207469550+208234368+208919083+209832620+210992232
3399+211860348+212356328+212987908+214248222+216178917+218278015+220088858
3385+221634673+223414483+225791226+228381024+230752899+233112265+235685098
3372+238269975+240626602+242933138+245900747+250044808+254771825+259010629
3358+262750250+266783426+271269325+275927459+280623712+284966798+288856677
3345+292895186+297193961+301593600+306390180+311291668+315495521+318592699
3331+320818719+323216186+326177924+328544287+329935406+331392671+333071026
3318+334477214+335826993+337149640+338155379+339178872+340292597+340750923
3304+340645907+340777553+340782134+339841430+338084939+335637112+332444045
3291+329054154+325696548+322282032+319115380+316120748+312763858+308997141
3277+305585130+303141348+301337539+299527931+297534493+295777143+294350267
3264+292804845+291156860+289632574+288345253+287343452+286227686+284929323
3250+283945794+283049061+281975155+281327432+281006658+280339464+279366780
3237+278183580+276807422+275593584+274674535+273704195+272718321+271945216
3223+270906387+269784340+269451360+269321200+268406285+267182407+266463868
3210+266121583+265541920+264812017+264738571+265193568+265261019+264994882
3196+264788770+264436570+263757636+262952390+262249546+261488665+260774869
3183+260544418+260539496+260209398+259544495+258983695+258875529+259006620
3169+258921093+258519786+258020048+257655571+257494021+257549052+257868412
3156+258102425+257801158+257177774+256735663+256625421+256544959+256314919
3142+256300549+256579821+256590452+256034233+255355961+255138718+255272654
3129+255257353+254893305+254267792+253875468+254025475+254189245+254082654
3115+253971267+254003105+254199660+254297679+253974274+253288217+252527980
3102+251972603+251715271+251669743+251724667+251681769+251266538+250557968
3088+249961411+249621434+249261413+248642002+248124780+248012373+247729181
3075+246994786+246455480+246338885+246155430+245661347+244982879+244278872
3061+243572306+242966640+242766165+242721209+242219467+241381113+240710232
3047+240391641+240313649+240160331+239784472+239343720+238892213+238385120
3034+237764242+237098319+236746208+236741269+236651483+236229773+235613369
3020+235178756+235231748+235533104+235508425+235113202+234720842+234392409
3007+234025158+233614955+233192405+232995992+233313796+233940973+234507536
2993+234934668+235157818+235338696+235685331+235955941+236225639+236836352
2980+237453043+237533397+237095617+236563039+236170823+235738393+235160592
2966+234631862+234176006+233534064+232798989+232338623+232038877+231732832
2953+231576543+231483178+231413472+231500627+231533395+231382260+231122370
2939+230664080+230117901+229708629+229291967+228718657+228236798+227871372
2926+227222755+226391612+225737644+225189479+224646593+223995524+223265120
2912+222887883+222926700+222935380+222747432+222559896+222427159+222279783
2899+222260633+222307665+222007257+221411326+221011039+220957904+220928912
2885+220639761+220254560+219952971+219673841+219508837+219485840+219307539
2872+218894652+218498767+218151721+217756802+217420977+217235392+217085206
2858+216892963+216809996+216728657+216188258+215182287+214283478+213941085
2845+213934374+213803033+213709113+213984287+214407393+214703899+214883847
2831+214863660+214568639+214302395+214312184+214428922+214529177+214570733
2818+214490969+214461511+214535226+214506216+214434774+214507881+214550223
2804+214380136+214209405+214204466+214211660+214107790+214016447+214006031
2791+213935913+213768439+213602862+213541156+213579328+213520360+213348734
2777+213316306+213384580+213296405+213122846+213027978+212959649+212894238
2764+212851251+212834536+212885970+212971425+212993581+212936062+212847994
2750+212704984+212450319+212224575+212215125+212331058+212387879+212349742
2737+212268278+212198625+212154421+212133912+212152220+212186080+212215823
2723+212328660+212528508+212692690+212776713+212719874+212547246+212420754
2710+212390599+212457693+212547353+212556248+212559254+212600917+212589213
2696+212535184+212526790+212488886+212384872+212325617+212244619+212060071
2683+211875811+211699048+211473823+211274976+211180752+211179839+211210657
2669+211196429+211105910+210938453+210712619+210498114+210372589+210417312
2656+210592732+210647763+210460370+210151998+209835501+209624271+209584362
2642+209638534+209694908+209640360+209423724+209250255+209272894+209319371
2629+209245817+209110824+208994265+208979000+209061395+209099961+209060375
2615+209070790+209155154+209192969+209176772+209198427+209227723+209192002
2602+209160827+209207214+209246586+209218346+209163135+209139584+209223321
2588+209309277+209204315+209048545+209005648+208900578+208701696+208617333
2575+208623507+208579339+208467486+208269302+207983068+207702739+207539901
2561+207483796+207416756+207288027+207149080+207076403+207037121+206920991
2548+206792263+206744515+206668402+206512203+206374633+206309204+206323486
2534+206369264+206368531+206329803+206296999+206291952+206304480+206302654
2521+206329230+206439722+206513992+206454165+206413057+206479613+206606552
2507+206802356+206991181+207050954+206999950+206978259+207076099+207188434
2494+207208263+207189991+207202859+207277379+207340338+207259841+207175280
2480+207257532+207369420+207375648+207281764+207171254+207096286+207007681
2467+206918199+206868072+206836127+206775190+206690200+206649486+206655338
2453+206609899+206483730+206421397+206435051+206395107+206347180+206338680
2440+206331360+206334546+206360370+206358348+206297464+206292024+206395823
2426+206476822+206493573+206549481+206649879+206710834+206706987+206651490
2413+206616342+206682164+206835285+207030767+207218607+207363979+207482489
2399+207614117+207774665+207901067+207966746+208015550+207983068+207809778
2386+207485191+206827626+205597126+203702171+201247204+198519871+195807107
2372+193191752+190614158+188161929+186040889+184381933+183334102+183039277
2359+183498838+184817602+187244132+190769642+194421983+196199735+195053992
2345+192311216+190501286+190246603+190708508+191399235+192057732+192498107
2332+192895836+193689736+194761978+195606936+196276850+197328887+198884832
2318+200516442+201951658+203093212+203953311+204836013+205903834+206895399
2305+207610430+208154085+208679469+209223786+209768587+210238116+210520538
2291+210722534+211033215+211401074+211700051+211843007+211824734+211751592
2278+211661054+211610927+211692820+211817093+211902082+211969373+211982097
2264+211972916+212005470+212042515+212130869+212287248+212378251+212382868
2251+212372148+212367745+212414151+212545188+212707526+212825445+212860736
2237+212874105+212968365+213068173+213076566+213106203+213217214+213267091
2224+213191962+213118122+213145789+213268594+213409814+213498938+213533657
2210+213487323+213424990+213479431+213562273+213549585+213503931+213481417
2197+213484048+213535393+213611130+213649858+213616714+213545970+213543357
2183+213636829+213732700+213759223+213765665+213820965+213905418+214002362
2170+214110904+214175635+214208170+214324515+214441915+214408019+214380029
2156+214462585+214530430+214530484+214514717+214573202+214677753+214727344
2143+214774125+214888160+215009909+215061558+215065209+215108947+215201829
2129+215290595+215376122+215465443+215536223+215590449+215633418+215684351
2116+215791908+215904530+215907143+215857122+215901809+216057329+216231621
2102+216362855+216493284+216668740+216913079+217242532+217545643+217731013
2089+217936929+218275385+218647879+219008043+219352888+219608824+219844841
2075+220125706+220352202+220576014+220877228+221099447+221295555+221728969
2062+222239605+222574535+222828753+223088179+223361277+223667949+223956653
2048+224190862+224435004+224717480+225001424+225436144+226073594+226612865
2035+226969056+227284927+227511190+227594014+227594963+227570141+227574311
2021+227486064+227114893+226838967+227172609+227723584+227941723+227961946
2008+228020413+228136524+228339809+228554458+228647931+228744714+228808389
1994+228481101+228118485+228472493+229269435+229968198+230555896+231145885
1981+231786503+232402925+232965193+233582491+234299240+234846725+235017976
1967+235472471+236799003+238255443+239229041+239951051+240491950+240885097
1954+241358313+241798312+241968471+241880313+241384191+240511332+240480676
1940+241776801+242927071+243355868+243561049+243852760+244293887+244657648
1927+244506764+243801254+243526098+244095846+244775209+245941854+247617007
1913+248520987+248439237+248437966+249212216+250151792+250674652+250919724
1900+250961548+250541091+249868779+249545052+249118958+248493266+248771053
1886+249476760+249698012+249754189+249837282+249913896+249952552+249731783
1873+248608661+246146106+244196459+245445929+248022824+249383520+249655061
1859+249702558+249943640+250308224+250546389+250401947+249536032+247826680
1846+245963455+246145622+248607874+250293388+250680576+251020678+251059388
1832+249536462+247576203+247666114+248723914+249865808+251593594+252864342
1819+253259726+253428435+253301138+252388227+251608895+252243428+253443003
1805+253747205+252767487+251569469+251716291+252464001+251935861+250291724
1792+250632112+253870153+256138605+256419810+255989993+255461496+255412764
1778+255895680+255141277+252404531+250251528+251913276+255295722+257874264
1765+258518247+257704643+257614266+258093638+258375129+258692790+257393193
1751+254091924+252170053+253491913+255413856+256389368+256735842+257325544
1738+257355986+255157258+253326068+255972974+259653591+262604467+264165136
1724+264191927+263276510+260381131+255214741+253495761+258403495+263205122
1711+265190472+264469857+262154785+260541161+259501401+257223446+255512698
1697+257204619+262604377+267605888+268614920+267272372+264692130+260431689
1684+259232078+264460461+268684054+270068587+269839532+269733084+269117110
1670+268696993+272535438+276917592+277924745+278617692+281677521+283695549
1657+281780604+276321125+274994468+280307036+280798667+280594237+286482494
1643+292176021+293808437+292076267+288273543+288551473+295453845+300107254
1630+301583327+302480436+303507006+304960941+308421702+311208558+311329966
1616+313078547+317859343+320749031+321416493+321848439+322873829+323704756
1603+324183269+324848977+325369725+325262633+325190261+325787963+326524434
1589+327161687+327918058+328704102+329429226+329647669+328205760+325286185
1576+325614404+329477403+330610314+330442804+332913109+335931114+337222765
1562+335711633+330216451+329124523+338764571+346487741+351816416+355791446
1549+359348703+360993629+359378483+356055453+356486146+369918503+382280407
1535+387688040+394032046+403305899+409627427+413618063+418555595+423633076
1522+430749703+441641350+452329767+464179048+475916656+483906088+487383600
1508+489797710+505649654+527247113+539594414+548098080+556828886+569869707
1495+585313434+595796472+602433405+612655873+628367652+642742144+653558126
1481+663027443+672109913+679760960+685697753+693165614+708188598+724965353
1468+736890193+746772701+759510250+771602026+777256558+778744532+787810680
1454+802657636+814402080+823215818+829880562+836407720+843417434+849735490
1441+854795576+858122364+861593755+867552882+873577653+877280050+880204457
1427+884305298+886323076+884388910+879384661+870780382+863334283+860944547
1414+858325094+853654433+849075974+844223342+837974509+833061889+830257030
1400+825518506+818091807+811831592+809350513+810123779+810283915+806810806
1387+801484136+799710966+801942927+804520717+805049161+803262246+799956862
1373+797891480+798799540+801001937+803162098+803470560+800834928+799828294
1360+803413291+806634921+807000221+806929423+808169783+810029859+811979415
1346+814411100+816724740+816886022+814963167+815455531+820983141+827793418
1333+832047238+833850975+834733838+834769989+834554660+835336587+836720977
1319+838310030+841073943+844021400+845177791+845638514+847073086+849744223
1306+852696191+854662355+857048870+860807819+864704642+868883297+873510219
1292+877598390+880681502+881888718+880625952+879137834+879369914+880320855
1279+881242588+882119867+881809831+879927708+878130485+876974452+875019669
1265+872347315+870277781+868424721+866044220+864247569+863838602+863770023
1252+863184812+862752794+863520333+865021909+866176510+867085215+867725904
1238+867303765+865666678+863638020+862074451+861204903+860339221+858956048
1225+857915697+857353036+856136728+854113009+851662426+848604942+844690437
1211+840533186+837546500+835628226+832937402+829769891+828078042+826973479
1198+824581739+821687398+819652440+818379222+817297638+816594312+816627670
1184+816748363+816836986+817547328+818340566+818777595+819369463+820399720
1171+822027357+824325607+827088302+829570240+831333460+833298909+835934612
1157+838494434+840592101+842374363+844552635+848009924+851928724+854829865
1144+856919586+859206883+862195860+865951373+869857216+872927514+875630722
1130+879150648+882716174+884911340+886615359+889130441+891136550+891672367
1117+892427450+894834509+898398030+901759394+905262283+909624912+913484940
1103+915819770+917055119+918592845+922140403+927596356+933153173+938004516
1090+943162244+948740036+952694413+954601950+956401750+958279793+961947328
1076+969758656+977193802+980939723+984404814+988112580+990737188+994366782
1063+999632962+1004420380+1008350919+1011113543+1012423270+1014540981
1051+1017743640+1019494905+1019239847+1019132683+1021812769+1027352907
1040+1032352431+1034245865+1034184159+1034069837+1034695207+1036455635
1028+1038216206+1037382451+1035808360+1038814302+1043153452+1041674211
1016+1038749088+1040182514+1042736467+1043491550+1043628206+1044273334
1005+1045218476+1044954397+1042637393+1039894240+1039912494+1043131761
993+1045589646+1045627085+1045357065+1044302899+1041983818+1041533259
982+1043019730+1042080315+1039137009+1039488207+1044373124+1050807649
970+1055220245+1054897180+1051561372+1050075331+1052898731+1058121172
959+1061462994+1060891885+1058132196+1055972465+1056316719+1059342491
947+1062788827+1063930041+1063395370+1063654366+1064515538+1064256113
935+1063431091+1062523818+1061054670+1060789661+1062149641+1063401813
924+1065055077+1067328845+1068743014+1069729819+1071303195+1071453810
912+1069209035+1068101824+1070172432+1072894467+1073741823+1072850227
901+1071672933+1071748026+1072869913+1072797683+1071016066+1068674364
889+1066408042+1065194597+1064587840+1063280618+1061741318+1060295436
878+1058182592+1053572994+1047041899+1041821176+1037503001+1034534140
866+1034491976+1031611308+1022322815+1014329231+1012801455+1012338799
854+1009644038+1007569851+1004797133+998319514+988750192+979154097+973285310
841+971795403+971381139+967698786+959289362+948626215+939924365+935357574
827+933117452+931101679+929314334+928638854+929444548+931335906+933170211
814+932547489+927635299+920162928+915875249+917395937+920037797+919783096
800+916162879+910500402+907680510+907289653+901155786+891695918+889292653
787+892196658+892187639+889140964+887435442+887899387+887836248+885677805
773+882811597+880978152+879606933+876281434+870152434+863572376+858774794
760+855944736+855604634+856769185+856400449+854044144+850779993+848507514
746+849528751+851061466+849065737+846321654+845920346+846240189+846406626
733+845966518+844431871+843722101+845362266+849969717+855622888+857458052
719+856094994+856245037+857763006+857651977+855578362+853632170+851958861
706+848887489+845200626+842991286+841467877+837959763+834080192+834081480
692+835751711+833923491+829471452+825441194+822464529+822050050+825526094
679+828463529+825841714+821536138+820021105+816794035+810228365+810349988
665+814565868+813030575+810523655+811299497+814128982+817835316+820219468
652+818801075+813735405+807290571+801151264+796265990+792814070+791656606
638+795366519+807489364+832701815+853202657+837160655+807145038+793246160
625+784260115+773247202+771795880+774202581+770042825+768550412+774364507
611+778847400+776989114+773049555+771529296+767315063+759683844+759931601
##END=
