##TITLE=Sample description
##JCAMP-DX=4.24
##DATA TYPE=INFRARED SPECTRUM
##DATE=25/8/2023
##SAMPLING PROCEDURE=Instrument type and / or accessory
##ORIGIN=Default
##XUNITS=1/CM
##YUNITS=ABSORBANCE
##RESOLUTION=4
##FIRSTX=4397.6552
##LASTX=599.8556
##DELTAX=-1.9287962
##MAXY=2.0631819
##MINY=1.2758564
##XFACTOR=1
##YFACTOR=1.9214879e-009
##NPOINTS=1970
##FIRSTY=1.3479456
##XYDATA=(X++(Y..Y))
4398+701511365+706624027+708798346+707224017+706797553+709826847+711765786
4384+708924536+705774946+705116701+704473655+704594696+705497131+703755355
4371+699968862+698307118+700411890+705005153+709579431+709685892+704620628
4357+700730652+701315194+703030851+703313816+703038048+703932728+707522057
4344+711607398+710532739+705296059+702717362+704618767+708086870+710564442
4330+710975023+708694739+704761770+703422014+706840051+711104811+712189396
4317+712311677+713118074+710616431+706787751+708567991+714295967+717423843
4303+717069842+716482570+714908613+710716316+706403350+703180243+701957557
4290+702499415+701711568+701899178+707309260+714548470+716488836+712167434
4276+707218185+705933893+708099216+710474422+710378632+709293612+709706737
4263+710343145+710900141+713293089+714105008+710049137+706891668+709469558
4249+712596007+709877844+703963251+701452675+704608220+708726008+708427657
4236+706753319+708115285+709284430+708324670+709534700+712712394+714157432
4222+713992095+712741677+710997047+709162274+706875786+706533697+709185663
4209+710915775+710382540+711810765+714881378+714123496+711239128+712070961
4195+714555233+713015274+710110805+711617634+714733598+713706648+710133015
4182+709090741+711306503+713090404+713499807+715132702+716783155+715788590
4168+713831721+713626989+715263358+716823667+716972253+716524758+717154341
4155+718358849+718775324+719535626+720690006+721475061+723275216+724612305
4141+722357457+717988594+714892173+714780066+717716858+720608051+720541854
4128+719835714+720105154+718807027+715999712+715166886+716579601+716150160
4114+712411623+709539415+710567606+714293920+718729104+721722601+721960028
4101+720714511+720117686+720595146+719356516+715633800+713160820+713220750
4087+713605833+713552665+714958245+717578385+717812586+716085452+716335970
4074+717656741+717467023+718646033+722230213+723844620+722790683+720493090
4060+717385130+716358925+718389063+720377261+720562513+719540589+718000505
4047+717427193+718783513+721407499+724572227+725805087+724093339+722529743
4033+721257300+718972177+717965453+718931975+719792906+720706198+722166064
4020+721749402+719395663+719346031+722027218+722063387+717518764+714246025
4006+717691670+723823341+724125476+720479566+719929084+721124783+721631712
3993+723462143+726348372+728197540+727509329+724277412+721201278+719202408
3979+717922831+718538765+720003222+720406172+719369979+717964770+718850827
3966+720730704+720394385+719261284+719197321+720348413+723700936+728101129
3952+729117470+725786724+722546059+721431261+720356292+718685986+718428086
3939+720317269+722740183+723813228+722296348+720134312+720949892+722474155
3925+721627804+721487655+723328819+724864870+726810571+729096501+731276279
3912+733416290+732188331+727045269+721271942+716457072+715181962+719322580
3898+724638982+726120251+724080559+722539173+725597625+730901681+731954936
3885+727362976+724505471+724066166+724342058+726636487+728759871+727274383
3871+721041897+715844674+718972177+725911114+728411330+726645420+727034288
3858+730168119+732497973+729776026+726847423+729104069+732102839+733642426
3844+732964266+729761260+723983342+717135480+715468153+718723521+721989559
3831+724459003+726491747+728138229+729916547+727838451+719449514+716926529
3817+720713022+724599400+728230111+728230359+723909887+720092311+722012390
3804+726535609+726137250+723601671+725193434+728100075+730681315+732906259
3790+734693882+736457124+737117540+736840904+737252105+735931148+733078110
3777+733140150+734299431+733899024+732919535+733573686+735605313+736361148
3763+736145744+736105728+734692021+732658657+733208580+734803321+732008911
3750+727853962+730000735+732940567+731859704+730237666+727719086+722942557
3736+720740320+725137226+730879099+734926656+737177595+736134763+732629126
3723+730200318+730104776+731910949+734342735+736829488+737326553+733523434
3709+732000411+734182175+735922586+736818011+738824139+741540255+741998421
3696+741334033+741980925+741542426+736415122+731968833+733490925+736330624
3682+736202821+734064299+731993959+726092023+721117896+724158357+726120065
3669+726343285+731148042+737127219+739625635+738365353+735117554+730004643
3655+726674083+726884833+724342182+716086817+712863461+716451054+719872565
3642+720658241+720673689+722363909+723144250+720300456+715576785+708306430
3628+702930098+706061385+709470923+708466246+703252086+697304116+695669670
3615+697153110+698097671+697176996+696147440+696334181+696656914+695577726
3601+692711412+689429987+687734369+688581154+691979525+696049355+696523279
3588+691440520+687260507+686274442+684005201+680539517+679499167+680419904
3574+680597773+680023158+678666465+675953638+674322293+675891101+677695227
3561+677168010+674239594+671630498+671954533+673383130+672607629+670764046
3547+670833282+672776999+673117599+670879688+669441661+671155022+673131868
3534+671951865+668738685+665745064+664555445+665361160+666915574+668288398
3520+669252191+670055548+670665340+670198302+668191243+666220477+666008983
3507+666192993+665410730+665538284+666890882+666992442+666450150+666848447
3493+666921406+666242315+666245045+666846462+667835753+669449788+669830342
3480+669108257+669455434+669860742+669310074+668614232+668075104+668137268
3466+668828084+668362474+665980630+663993982+664045476+665114240+666652462
3453+669201690+670819944+670230439+670834585+673180818+673540464+670819944
3439+667274166+666377997+668810155+672685117+676677521+678084529+675400984
3426+671927297+670540887+671656182+674831704+676863518+675990986+675918647
3412+677951639+678985289+679049562+680386961+681985238+682036483+682094862
3399+683912017+686339894+687354063+686104824+684326445+684367143+685883217
3385+688619185+692730706+695714276+696697798+697455370+698245450+700039029
3372+703121491+705280053+706967543+709500082+712525777+716410046+720152987
3358+722797942+725850004+728522319+728546701+727934924+729173430+731520965
3345+735150807+740257141+745137091+748732253+750614301+752669131+756693920
3331+759607881+759897671+761388928+766223527+771506241+773862648+772824097
3318+769516553+766190087+765508577+767692760+769555576+770413839+773017103
3304+775229577+773733170+770550575+768693963+769324601+771220422+772959406
3291+773501264+770571855+765411856+762011935+759764284+757077266+756099762
3277+755816673+753472798+752129196+754856355+758073630+757160462+755000908
3264+754410907+752438466+749938808+750324264+753070468+755578811+756637960
3250+755503309+750440899+743541234+739454218+740812214+746081403+749517122
3237+748687708+746810933+746095052+745338535+743836297+742923128+743276385
3223+744095190+743516914+742375687+742455408+742741103+744079556+746959333
3210+749395709+751309895+752124233+749255437+743327878+739645426+741090774
3196+744819260+747799542+749020553+748051301+746766016+747519617+749118949
3183+749428343+748471126+747255822+747789926+750644887+753148391+754096363
3169+753393573+749879498+746011732+744913189+746010740+748434212+751673387
3156+754618555+756188666+756632935+756987928+756106090+753624176+752072491
3142+752231624+753003651+754232728+755026655+754842892+755151231+754561788
3129+752748728+753991888+756208394+754383671+752032414+752876345+754593367
3115+755050850+755687009+757072613+757686003+758036468+758589555+758753651
3102+759095244+759441242+759514821+760219224+762102017+764671160+766316587
3088+765736512+763476578+761386075+760884108+761715756+762641456+762640587
3075+762054184+762704365+763867058+762715160+760662935+760065985+759721539
3061+759129987+759384785+760751032+762699649+764824523+766098888+765620621
3047+765158361+765952226+767200038+768677275+769804357+770442564+771386752
3034+771507110+769773089+767955748+767184404+767365933+768879029+770357569
3020+770580789+770476810+769828429+768907568+769932780+772488212+773154336
3007+772553478+774764587+777639959+776772328+774863913+774978935+776359079
2993+777426727+776813399+775915058+776520321+777474002+778446480+780039112
2980+781628393+783034345+783317248+781707680+780750277+781579443+782253881
2966+783118782+785338639+787249970+787180733+785279080+783622982+784711599
2953+787624568+789702849+790179131+789717180+789397612+789600111+789785797
2939+789296673+788932807+790156983+792345323+794552337+795832783+793985601
2926+789515798+786427318+787048898+788659273+787067882+784039767+784614631
2912+787636914+789086295+789232833+789171165+789442901+790380079+791699361
2899+793624838+794146037+791282514+787590942+786574291+788065363+788768773
2885+787902383+788596674+792097845+795471337+795986022+794643970+793642519
2872+793361043+792782271+791856695+792165407+794339105+796591409+796711457
2858+795010441+794117126+794986618+795511477+794267201+791226740+788123743
2845+789072274+793398826+795738234+794855713+792989609+791405043+791342569
2831+793940994+796886224+797387073+797538823+799477390+801120212+800041397
2818+797078672+794993442+795561916+798341374+801206758+801484139+798727263
2804+797322303+799843861+802285449+802443527+802613021+802944873+802238857
2791+801838202+803065045+804599482+805159332+805623206+806418684+806060278
2777+804717917+804478876+805235580+805435535+805275719+805131538+804699863
2764+804621134+804437806+804254726+806166739+809155149+810509794+809881762
2750+808228580+807282654+808505527+810440495+810694612+810112117+810086432
2737+810641815+811202037+811014863+811166489+812058873+812124574+811286536
2723+811345908+812786169+814182320+815301337+815962932+815783388+815286385
2710+814618399+815357731+817125936+816526318+815227323+816427861+818161323
2696+819027465+820114718+820089715+817932209+816361292+816586063+817044539
2683+817807757+818801515+819037267+819401629+820042999+820133143+820294944
2669+820716755+820902689+821080558+821411976+821837261+822655818+823417608
2656+823081661+822078287+821781983+822492714+823405076+824201423+825592424
2642+827429927+827581739+825167325+823024088+823434483+824632353+824495493
2629+824501573+826331507+827809985+826938446+826018763+827052413+828082093
2615+827169111+825654650+825486149+826330949+827217502+827987419+827922464
2602+826916607+826101649+826436231+828168390+829543323+829124987+828303328
2588+828238434+828702556+829539042+830702852+831587482+831264315+829724852
2575+828746480+830233147+833149155+834947450+834774420+833236198+831861823
2561+832432096+835139216+837353551+836534125+834073553+832702591+833420147
2548+835233579+836222312+836571473+836949856+835808256+833401410+832979352
2534+835287367+837102660+837011089+837312294+838559052+839357011+839889191
2521+840080833+838805103+836545416+835466353+836471278+838023025+839299562
2507+840643909+841071738+840164463+839452305+839950611+841051823+841582079
2494+840779777+839192667+838485410+839390451+840921352+841747851+842044961
2480+842524158+842602639+842278169+841967783+841385536+841503847+843012414
2467+844399196+844290316+842951118+841917468+842117237+842124992+841285093
2453+841684011+844254208+847067851+847366077+844705798+842253415+841899601
2440+842184179+842950374+844221948+843782518+842411990+842767852+844053633
2426+844837447+845299832+845536577+844862760+843362816+843256728+844957743
2413+845794478+845245423+845040815+845693352+846970448+848419518+849392059
2399+849749782+849208482+847849494+846761807+846324114+846454336+847440277
2386+848347676+847429731+844778013+841905556+839343797+836903015+834824734
2372+832519076+829008724+825037537+820424422+815013719+812098765+811919965
2359+812289104+814357893+818485048+824578068+832207015+837509147+837908375
2345+834887395+831622163+830047709+830800007+833125580+835358589+835374099
2332+833067200+831970952+832839948+833733635+835134935+837038449+837970725
2318+838662845+840994498+844422461+847237717+849266179+850908133+851937254
2305+852049484+851728055+851904062+852642774+853341593+854082228+855281649
2291+856686051+857956074+858715817+858903488+858832824+858033313+856994328
2278+856867890+857038376+857009714+856992095+856730720+856722530+857834847
2264+859449255+860011090+859053811+858012034+858804534+861158273+862772370
2251+863339975+864441187+865089320+863561830+861181290+859668256+859795935
2237+861736177+863259509+862408443+860959435+860548109+860510016+861097784
2224+863154971+865387981+865522732+863802360+862572415+862562551+862994412
2210+863362061+863409646+863432725+863968379+864620172+864470904+864011621
2197+864410663+865676901+867415637+868967012+869010068+866837982+864357371
2183+863951752+864626066+865048807+866130290+867956068+869156358+869256367
2170+869075644+868861295+868812594+869612973+870425450+869954194+868589250
2156+867637182+867590404+867731173+867737625+868187602+869082468+869663350
2143+869874038+870493198+871350902+871300898+870749300+870903841+871071908
2129+870623296+870386985+870514788+870621869+871089155+872025712+872059524
2116+870360680+868855588+869945384+872820756+874475676+874108895+872665532
2102+870486684+868805956+869097234+870572547+871412756+871800383+873003899
2089+874279257+874384291+874322499+875269727+876268138+875958806+874783457
2075+874101760+874036246+873723626+873258139+873447733+874352588+874674390
2062+873772265+873556614+874590946+875282073+876008376+877494361+878456230
2048+877533880+875303105+873916881+874098596+874909584+876047151+877034457
2035+876899148+876267952+876088284+876133883+876814525+877910712+878194297
2021+878179469+878154840+877417245+876914968+877904384+879971374+881780897
2008+882022047+880274501+878436812+878187535+878009604+877669314+878865075
1994+880309554+880091731+879103247+878595262+878524350+878730882+878571129
1981+877531895+877131364+877910712+878300634+878851860+880379473+880944286
1967+880111336+880696002+883317754+885073241+884603163+883147144+881593536
1954+880609332+880930886+882902830+885895582+887210212+885286411+882910647
1940+882922000+884024453+884665575+885226666+885884911+886144735+885916242
1927+885560690+884903933+883598238+882395838+881941147+883000357+885694262
1913+888028521+889142513+890046747+891179289+891574298+890700277+889021534
1900+887158657+886300456+887153197+888678267+889262250+888559460+888243924
1886+889049080+889985389+890615717+890383749+889868196+890151905+890154076
1873+888958005+886696334+884712540+886422365+890312030+891895542+890813501
1859+890132797+892085633+894878492+895344723+893759412+892406752+891631189
1846+890486797+890266679+891902428+892891596+892959405+893043160+891988044
1832+888618894+885316376+886805959+890562424+892122795+893931822+897112556
1819+898646807+898793470+899662031+899231101+896395806+894833140+895116602
1805+894970001+894558489+893198694+890600827+890602564+893267372+893660396
1792+891526900+892705289+896126800+898195651+898747808+898375133+896885613
1778+895859222+895829752+893458952+888158185+887271507+891467093+895451680
1765+897642688+897863861+897780603+899294444+900085393+898450326+895066349
1751+890272201+887635435+890707412+895198246+897262134+897532071+897358234
1738+897527418+896964156+893355407+890655671+891988478+895493805+898808670
1724+899755960+899404379+897350789+889838789+882885769+887250538+894120796
1711+896780889+896110918+894285388+893648175+894264481+891231465+885315756
1697+884183276+886415850+890068895+891580999+888930149+885389087+880596800
1684+874778928+878796086+887767766+894172910+895158975+892620294+890656539
1670+888053895+886786354+888480917+887670860+884073092+884430940+887823664
1657+889128802+885245588+876197413+874844628+874852445+870554990+871529454
1643+877821560+881302134+880132057+874145374+868862102+873571193+879417480
1630+880137331+878354857+878377129+879358914+880949560+883531172+883819348
1616+883602022+889364554+896156145+899620402+901447235+902861873+903580794
1603+904951073+907475175+909442280+909435145+909285815+912064529+916291693
1589+918503360+918752141+919155960+920357552+921272644+920362143+916407397
1576+913012253+915495594+918080495+917445514+917522878+920127508+923112070
1562+923794636+916187465+904005768+908495424+916366141+922059684+926073554
1549+927645464+926858237+922416229+913643697+905003435+908302417+919300699
1535+926449331+928302221+928672414+928724776+925849217+922108262+919643843
1522+917229305+918008838+922590499+929395057+935926514+938546343+936500385
1508+929387426+923462101+928806358+934461189+935781775+933102387+931363403
1495+935879984+939794466+936247510+931225240+934730443+940185070+941666588
1481+939788386+936703070+934179031+931886711+927860371+926489409+930959336
1468+933903883+931561435+929329108+930141647+926482771+916284806+915315368
1454+923722607+927129167+926607595+926108979+928873796+934071763+937370435
1441+938889177+940380869+940452711+940955981+942636585+941915741+940607191
1427+942350890+944806251+945073333+942439483+937704025+936439896+938291979
1414+938127511+938512842+940611968+940045852+937221105+936168160+934281087
1400+928248928+922404627+920350728+919780455+919381413+918938571+917606074
1387+915093016+914426643+917266280+919903853+919267446+917425041+916042167
1373+914468582+914736223+917549245+920331806+921555981+920269269+917656140
1360+918282125+920531264+919845659+917740453+917713093+918078509+917287870
1346+917679219+919327625+919821898+918766224+918105311+920163739+923569492
1333+924633231+922685669+920777378+920987259+922314297+924300945+926602942
1319+927142691+927237302+930413445+934593955+935484354+935592180+938609128
1306+941635382+943158962+946572781+951273496+953090279+953635177+958150517
1292+965159993+968699256+967634710+965864644+966637664+968982221+970233446
1279+970096337+970590735+973067686+974437965+972570558+972363779+975585769
1265+977663864+977983805+979210213+980665550+980555801+980776974+983841258
1252+987344352+989075209+990928595+991936126+990982818+992193778+995509511
1238+996025189+994665580+994557444+994766705+994270695+993669278+992793086
1225+991666313+991677481+992408623+992711379+993622748+995976425+999165100
1211+1001422429+1001925698+1001521134+1000402303+999929186+1001761105
1200+1004830539+1007192033+1006963416+1004431683+1002872430+1003072881
1188+1003110850+1002993160+1005016287+1009816019+1012870625+1010254767
1177+1005368241+1004521704+1008879772+1013015923+1014897661+1016366833
1165+1014725066+1011091129+1011529877+1014965905+1016592287+1017528410
1153+1019658370+1020193776+1020584567+1025506269+1030568245+1028643575
1142+1022518232+1018944785+1019443091+1021064013+1021744034+1021685778
1130+1021070341+1021123943+1023639545+1026076852+1024317953+1020954450
1119+1020513531+1021645762+1021074435+1018305027+1015823113+1016831823
1107+1020669872+1023125853+1022148411+1021546064+1024636715+1026803218
1096+1025452419+1026722938+1032487083+1039123698+1045548198+1050653478
1084+1051454663+1046751280+1041341135+1041166927+1045191840+1047204420
1072+1043772114+1040362267+1040881666+1042467287+1045473254+1048830864
1061+1047695282+1043426551+1042754533+1049084235+1057472180+1059986045
1049+1055556754+1051592889+1053940610+1059095397+1058912131+1051397462
1038+1045478961+1046563298+1049529063+1053856608+1060973599+1062280288
1026+1055795857+1051603435+1051953342+1052635286+1054046947+1056385114
1015+1055948724+1052668664+1050470087+1048675515+1046427554+1047665999
1003+1052332531+1056087694+1056366254+1053311151+1050126633+1048575258
991+1047447866+1048221382+1051937707+1053159277+1047560407+1039036097
980+1033696244+1034819604+1040318094+1043894085+1044248830+1044077972
968+1043396896+1044080578+1047489805+1050209767+1050433235+1049626466
957+1047961061+1046528928+1053086318+1067579877+1071229820+1060091885
945+1051723421+1052214530+1057481983+1061047551+1058269147+1055827125
934+1059529430+1062514179+1060717250+1059159175+1058108339+1055870305
922+1054776166+1056358437+1060119555+1063474187+1064255892+1063235085
910+1062346919+1063609559+1066134467+1066011007+1060589075+1053178261
899+1052038337+1059249505+1067623057+1071992789+1073741823+1073225773
887+1067674302+1057235063+1050415492+1056203460+1066015970+1064931633
876+1059790495+1058785073+1056359305+1050202322+1042287991+1036713937
864+1038935158+1046432021+1051086641+1048534312+1039582298+1031678576
853+1032804108+1039913531+1042227068+1036965013+1030958105+1026455669
841+1023171515+1023216928+1023679933+1022119625+1020254017+1017093074
829+1010632095+1003175806+1001954050+1008038322+1013538983+1015240619
818+1015559381+1015186272+1012850462+1008261481+1003168299+1000122068+999098345
804+996315226+990765181+986262993+985600653+988796215+993738453+995118969
791+988964591+981405564+979829808+979917098+974870199+967931324+963408167
777+959409124+955084247+952349148+951943654+952374708+949850173+945734060
764+943938496+939622429+930685801+923976475+923122555+927066382+931161338
750+930183897+925474557+922077118+922043988+923030364+921132867+916516030
737+915000514+919156642+924596566+928072610+929122453+928724900+929459579
723+928501121+920597275+911945474+911167739+914884809+915713727+913131432
710+911448470+912856222+916464971+919415659+917776684+912446137+907778178
696+906238281+908061329+910257549+906981894+899448427+896725984+899903119
683+903883611+903328539+896004147+892782963+897901023+899109750+890858666
669+878422232+874642812+885541147+896195107+895206870+886487010+881565308
656+881552900+883679820+888717104+892268031+885575145+873547246+869879001
642+872824231+869766584+861569723+856346257+855534090+856704663+856898414
629+854452421+851078060+862428730+891252993+899323292+895850102+923066533
615+951490761+924211607+870092419+842306460+842498908+849971948+870809789
602+908773984+944106190
##END=
