##TITLE=Sample description
##JCAMP-DX=4.24
##DATA TYPE=INFRARED SPECTRUM
##DATE=25/8/2023
##SAMPLING PROCEDURE=Instrument type and / or accessory
##ORIGIN=Default
##XUNITS=1/CM
##YUNITS=ABSORBANCE
##RESOLUTION=4
##FIRSTX=4397.6552
##LASTX=599.8556
##DELTAX=-1.9287962
##MAXY=1.9415195
##MINY=0.61716354
##XFACTOR=1
##YFACTOR=1.8081809e-009
##NPOINTS=1970
##FIRSTY=0.73868012
##XYDATA=(X++(Y..Y))
4398+408521132+408591312+408748879+409109669+409462844+409488193+409127469
4384+408886042+408351533+407125013+406483701+407208511+408803698+409940260
4371+409612368+409269807+409566153+408915775+407858954+407773116+408045892
4357+408109479+408072889+407799025+406981884+406137284+406276688+406791287
4344+406626237+406420806+406884608+407540951+407998622+408520077+408792128
4330+408387299+408100579+408248751+408076449+407676433+407669939+407957384
4317+408283726+408734573+409297332+410064533+410735117+409965246+407839109
4303+406734160+407477858+407888127+406606228+405185748+404854033+405017534
4290+405552537+406597954+407107674+406785287+406724172+407142418+407192062
4276+406297587+405202758+405284080+406191443+406428816+405943983+405753650
4263+406059489+406161512+405536385+405023731+405744354+406559452+406326727
4249+406302037+406998135+407177557+406526059+406075707+406068851+406057610
4236+406565089+407520382+407404085+405815029+404572587+405188122+406899672
4222+408483586+409398795+409507378+409231932+408448710+407008980+405943225
4209+405736212+405548186+405436571+406279028+407111003+407049196+407112124
4195+407209829+406738248+406290895+405966234+405805997+406077289+406062192
4182+405379378+404881525+405479588+406919846+407787653+407652138+407322566
4168+406795671+405973189+405490829+405424901+405644144+406106528+406173478
4155+405990298+406209804+406116648+405390026+405080132+405248380+405209977
4141+405271125+405470985+405244095+404731078+404153847+404038078+405054420
4128+406151722+406098551+405483874+405163069+405427571+405976881+406049929
4114+406002560+406174467+405762814+404820772+403887104+403280667+403342969
4101+403804134+404338775+404961363+405582897+405602610+404967363+404837848
4087+405260972+405341733+405170058+404952760+404879415+405344568+405977244
4074+406231692+406125911+405816051+405408584+405104427+405308967+405645430
4060+405232458+404439018+404027859+404022289+403936945+403533599+403441729
4047+403871776+404165253+404193107+404537448+405145236+405422231+405310517
4033+405001612+404937596+405274059+405299441+404685159+403856579+403569991
4020+404177713+405111810+405457371+404721353+403813528+403771302+404030530
4006+404031683+404097710+404185888+403778059+403168854+403287491+403972118
3993+404446072+404577565+404496111+404260156+403983029+403906816+404101039
3979+404643163+405486939+405584776+404452467+403304434+402939129+403208444
3966+403688463+403701188+403186193+402789671+402845478+403326454+403844251
3952+403944362+403733822+403782575+404354169+404821498+404688620+404261013
3939+403913409+403840625+403828000+403343562+402757663+402835655+402859224
3925+402190849+401891932+402384643+402688867+402394566+402203870+402615226
3912+403228947+403587858+403135593+401460996+399568968+398885924+399450496
3898+401356006+403675772+404378002+402814262+401456018+401279431+400286130
3885+399006176+398975322+399951613+402172851+403675608+402842314+401049673
3871+399230891+398317001+399125440+399568639+399789991+400960637+401938379
3858+401612663+398677065+393696751+394474501+399110672+402167082+402723677
3844+401360917+399139087+396262494+394307440+396108718+399224166+401158519
3831+402039050+401513771+399858457+398392719+396403942+394483302+396033890
3817+398454064+400089105+402224109+403701122+402870663+400229169+398671494
3804+397866055+396632250+397454863+399367823+401297396+404018168+406198695
3790+406599305+405814304+404772876+404223929+404425338+404557490+404802807
3777+405611675+405933138+405200483+403637699+402557407+403045141+404345302
3763+405105185+404297207+403092773+403671949+404435623+402736764+399218892
3750+399399073+403101970+406853523+410809253+414626865+417226792+417705691
3736+415716585+414398261+417328683+422172427+424899528+423851508+420976498
3723+419119940+418091665+417182224+416638452+415936948+414483670+415253376
3709+420304365+426033980+430920083+435915626+443248109+452489432+460719423
3696+467140950+472162765+475602380+477338390+479140986+480633887+479599612
3682+475750026+469690541+462312204+453648442+447009254+444009839+439402149
3669+435371788+435415992+435454956+433513450+430825872+428437046+425641677
3655+422895753+420754783+417109045+412930940+414213234+417857819+419980198
3642+420659089+420444428+419871582+419085789+417884981+416220668+412766747
3628+408628693+407898214+407879754+405555240+400177020+394422352+391297641
3615+388969765+387118151+386927258+387159290+387302090+388013912+388189345
3601+386862352+384778672+383063562+382051868+381325938+380033721+377153107
3588+372967486+370677058+370746480+370709165+369669484+368537076+367491330
3574+366225847+365176409+363928859+361276487+358142282+357202416+357511650
3561+357429768+357062484+356825870+356287372+355023273+353885888+353694631
3547+353660514+352863414+351881948+351275347+350837949+350443701+350015039
3534+349529943+348662960+347553396+347230976+347348130+346680513+345717341
3520+345498165+345634701+345498296+344965106+344231726+344071257+344314465
3507+344089783+343536485+343085770+342955760+343064145+343171970+343143390
3493+343021688+342864516+342595729+342377903+342535339+343084616+343473491
3480+343336625+343172003+343108317+342835046+342743572+343168674+343364018
3466+342693434+341731910+341317357+341710945+342632253+343415342+343630234
3453+343372753+342633868+341634370+341321708+341783927+342242982+342870186
3439+343538495+343468678+343018424+343011040+343820369+345015442+345299195
3426+344735381+344763334+345610407+346500860+347123976+347658683+348439531
3412+349433458+350138818+350389542+350652099+351360196+352180370+352795542
3399+353717146+355300829+357234885+358666407+359172403+359702627+360763767
3385+362173434+364292714+366611986+368026861+368920149+370315114+372515222
3372+375314151+378414008+381435213+383890428+386293231+389575872+393112599
3358+396337652+399667629+402973147+406163885+409498247+413120911+417282006
3345+421529038+424830568+427749222+431629432+435615292+438422957+440897950
3331+443691441+446238196+448526153+450612931+452187021+453501159+454703945
3318+455900962+457392907+458736547+459376013+459531570+459996031+461251658
3304+462687696+463204470+462652688+461886113+460995660+459395330+457150556
3291+454644148+452336578+450411357+448307339+445951839+443682013+441265234
3277+438783779+436733064+435647465+435217945+434024785+432088289+430618463
3264+429548225+428088091+426694873+426409471+426455687+425536127+424036139
3250+422912169+422375913+421902486+421025647+419946707+419168825+418886127
3237+418778401+418478364+418076732+417390325+416118645+414754534+413535497
3223+412710675+412775581+412881560+412211767+411750767+412253697+412834553
3210+412564810+411569301+411018079+411728121+412537879+412159519+411029452
3196+410109133+409501115+409020666+408885778+409239481+409885309+409934227
3183+408817939+407717275+408130081+409546737+410108771+409575053+409472568
3169+410613085+411633581+410921429+409320011+408924313+410164315+411477892
3156+411700036+411496385+412268432+413554353+413305706+411836902+411736659
3142+413648300+414518809+412379026+410214387+411270253+413827887+413569977
3129+411157088+411298569+414937583+417834415+416793547+414307709+414608142
3115+417945140+419397166+416446866+413884552+415506605+418578277+418220323
3102+415131575+414152284+416908558+420043192+419119841+415961836+415870328
3088+419658437+422624823+420859311+417556002+416651374+417804714+418426841
3075+416887890+415368091+416225019+418505163+418975723+416733421+414629667
3061+414838955+416906778+417647509+415599563+413471547+413280752+414491911
3047+415326095+415128081+414686629+414570761+414875116+415137640+414920342
3034+414544950+414682739+415294812+415558754+415354608+415588718+418043010
3020+426859461+442609270+453855620+450737336+440070227+431269599+426411153
3007+423951586+422359596+421433575+421131791+420754288+420144259+420130546
2993+421210179+423255686+425242023+425518886+424614292+424876487+427370434
2980+430299505+430379278+427905141+426081382+426195470+427739102+428743248
2966+427892417+426786084+427138632+429473496+431758090+430735584+427600225
2953+425935682+427249391+429969504+430464456+428505875+427221438+428101738
2939+430536120+431774407+430221512+428434871+428485305+430539119+432886114
2926+432186654+429155263+427333020+428015570+430090712+430406835+427919184
2912+425878885+426480278+428443870+429261934+428199014+427123040+427470249
2899+428969940+430608343+430988351+429966603+429061679+429374143+430511001
2885+431091561+430569578+429992743+430042848+430341171+430770592+431218109
2872+430956838+430033618+429749239+430607717+431476612+431550187+431315451
2858+431366315+431704920+431853850+431433231+430707334+430090151+429838736
2845+430283616+431078672+431333351+431204660+431375050+431786011+432205970
2831+432691759+433268495+433744691+434122984+434572809+434849179+434920216
2818+435254041+435787166+436084500+436369143+436844976+437051824+437154968
2804+437711102+438376840+438713500+438798910+438875716+439098156+439265546
2791+439356296+439552497+439557738+439457033+439861929+440429336+440512504
2777+440371616+440374418+440679466+441379058+442096187+442377204+442296442
2764+442249733+442561010+443073005+443348188+443516600+443811231+444009443
2750+444257035+444767843+445166112+445313230+445535308+445913205+446218912
2737+446305146+446197222+446051983+446088771+446346647+446575384+446583328
2723+446715118+447382174+448262738+448728023+448689324+448675875+449088681
2710+449690766+450119989+450367613+450725337+451266901+451554511+451532128
2696+451693981+452011522+452095217+452016005+452044420+452218865+452539010
2683+453154973+453995419+454538235+454456122+454065863+453771265+453651672
2669+453723435+453944754+454258966+454750457+455168406+455195568+455154264
2656+455424832+455868822+456194373+456430823+456702380+456875803+456934643
2642+457124911+457381798+457254096+456858760+456839938+457240053+457725908
2629+458201939+458643259+458936045+458967195+458973953+459261892+459666623
2615+460043565+460559878+461094783+461351439+461472812+461721063+461992224
2602+462045197+461970962+462130672+462517141+462848164+463218546+463657394
2588+463777844+463746726+464112955+464709370+465114826+465288710+465317422
2575+465204224+465056578+465131967+465282645+465283403+465445157+465772290
2561+465827570+465744172+465888191+466151309+466318501+466316260+466310392
2548+466556501+466879019+467016544+467107953+467432219+467932610+468185377
2534+468134250+468168467+468276555+468160259+468068982+468428848+468959600
2521+469255549+469520085+469866139+470084327+470288176+470479432+470354005
2507+470211798+470567380+471280652+471960202+472341462+472422059+472586417
2494+472937614+473091951+473035583+473055954+473151582+473315479+473641129
2480+473938628+473921091+473758513+473847384+474117721+474256993+474294341
2467+474344050+474480719+474824796+475177212+475312430+475359700+475474085
2453+475699162+475964225+476193357+476400271+476496196+476426675+476524017
2440+477081799+477713189+477992723+478050343+477970538+477810300+477899995
2426+478252016+478494499+478449206+478261938+478296023+478762165+479403181
2413+479916989+480324752+480639557+480681948+480545379+480721571+481294714
2399+481707454+482030863+483492448+487184369+493769726+504563449+520754611
2386+541655552+565237312+589212529+611954634+634193842+657512222+681631491
2372+705730191+729352893+751624405+771260390+785685249+794363054+799692982
2359+800184408+792480619+777051483+756620080+736283613+725085390+729768040
2345+745175287+751145440+741314493+729529381+721581264+717495590+719143059
2332+723719631+724330319+721419478+720771869+722949858+722191030+715226159
2318+704134278+692703330+687775297+691637147+695418499+690230710+675927686
2305+658331506+644756060+636697976+629829953+621395026+611213870+599312726
2291+586900707+575853459+566370214+557756887+550211259+543957089+538793859
2278+534541948+530882728+527646730+524795784+522150862+519752608+517817563
2264+516160271+514432536+512806824+511543582+510443479+509400238+508627499
2251+508048884+507439184+506980657+506719946+506213027+505406138+504908779
2237+504995704+505141899+504909603+504642595+504655122+504757804+505039217
2224+505634083+506147561+506362189+506506966+506590332+506524602+506621582
2210+507016818+507469577+507865473+508122558+508306761+508644344+509084214
2197+509438147+509748172+510249091+510952968+511609675+512148337+512528213
2183+512573242+512534773+512821888+513186403+513325411+513332268+513205324
2170+513079006+513153505+513255495+513297458+513418930+513613482+513783411
2156+513732713+513309094+512989015+513179909+513279427+512932844+512737797
2143+513046174+513552104+513957625+514369014+514877944+515395740+515965554
2129+516545949+517054383+517607748+518161903+518538186+518748594+518892218
2116+519073651+519256733+519421684+519731610+520087323+520347903+520517304
2102+520543840+520654994+521104720+521736011+522254632+522563569+522705775
2089+522694139+522578238+522566437+523001000+523762993+524200127+524276042
2075+524505174+524856174+525161419+525612958+526266170+527060435+527931901
2062+528832309+529645396+530151193+530612753+531410941+532378628+533184727
2048+533799173+534482580+535353716+536147486+536554063+536884460+537573701
2035+538228562+538305664+537984299+537920580+538341694+538859622+539289174
2021+539759140+540098800+539916312+539438467+539176009+539076359+538989236
2008+538888366+538722393+538688902+538967117+539174361+539094918+539098379
1994+539154385+539070096+539162692+539525031+539798927+539966417+540323547
1981+540717433+540999208+541389105+541610160+541482821+541586789+542033977
1967+542283381+542342782+542769434+543504990+543928015+544042301+544285211
1954+544631497+545056039+545554782+545877366+546030121+546118926+546458948
1940+547496486+548754585+549594175+550035363+550295679+550476453+550638240
1927+550780017+550860251+551050354+551376927+551537033+551838190+552670825
1913+553510547+553756457+553558015+553771225+554582202+555285124+555576327
1900+555695260+555841488+556052852+556302850+556382161+556346626+556822493
1886+557527590+557745349+557835604+558213634+558643219+558848980+559002262
1873+559144732+558595356+557626218+558163529+559948127+561250068+561843616
1859+562320603+562773592+562949224+562976584+563125976+563222099+562878681
1846+561959253+561358585+562072583+562911381+563267127+563943216+564694859
1832+564027011+562130995+561543249+562524056+563810834+565293285+566410035
1819+566663593+566339888+566069320+565993635+566029764+566555471+567379964
1805+567953337+568094423+567656860+567265711+567505622+567278237+566064573
1792+566098658+568431577+570358579+570974542+570884287+570549506+570749333
1778+571583583+571418961+569323052+567137416+568302359+571391865+573443932
1765+573960607+573642242+573754583+574372128+574533256+574621533+574572021
1751+573564777+572682137+573405166+574421574+574578878+574111780+573964365
1738+574181795+573113370+571285523+572613704+575569970+577776110+578790078
1724+578830690+578432948+576939421+573642308+572021870+574997717+578236879
1711+579648524+579184194+577148478+575250945+574497853+572915191+570597567
1697+570769309+573827104+577375928+579008563+578776365+577128831+573323350
1684+570261929+573322888+576821608+577589534+576139256+574862301+574732753
1670+574605710+575946549+577964729+577865574+576653162+577254423+578292917
1657+577298331+573119831+568382659+569842761+570944084+570622884+573658724
1643+577595072+579148198+578371503+575476089+574188520+579200413+584361171
1630+586703056+587671930+588814590+590385977+593302093+596450736+597684838
1616+598999899+603220263+607335011+609658173+611157832+612874920+614626290
1603+616409636+618328924+619573376+619895499+620542976+622401083+624821950
1589+626753303+627846912+628881714+630349068+631582444+631875361+630838845
1576+630534457+633042085+634593364+634599298+636740565+640279039+642362488
1562+642279155+638730396+635644385+641463497+647978345+653015422+656905225
1549+659934802+661506784+660465257+656768820+653889558+660913566+670726251
1535+675777437+679238314+684303674+688717273+691511555+693945211+696137836
1522+699460726+704537426+709375929+715584147+722773963+728128483+730160310
1508+729021474+732931978+744137123+752224480+756765583+759295428+763300077
1495+770639285+777054912+779754587+781442799+787748260+796241006+803141795
1481+808775188+814319118+818620838+819962467+820722746+826552407+835173184
1468+841613468+845671518+850642866+857266692+860981127+858710510+859171806
1454+869262377+879269220+885230538+888255698+891637792+895728213+899200627
1441+902208251+903727819+903503467+906775791+913619947+918883223+922240395
1427+924328393+922932439+920232632+919220509+917078319+915062842+915756731
1414+914938832+911370361+907123098+903471822+900460374+898101018+896072487
1400+892559659+887102820+881876860+879041110+878789991+877243721+872186998
1387+867657696+867987137+870922503+873659626+874929130+873717312+870994694
1373+869628671+869628342+869434185+869892976+870631696+869381772+866779340
1360+866318703+868863316+871618832+871285831+868916256+868198699+870183783
1346+873066803+875119002+875184139+873482016+872719826+873995000+875834318
1333+877031566+877139687+877030973+877417705+878279446+879407866+880295385
1319+881264852+883292790+885944931+888039324+889686133+892307683+897237496
1306+902915128+906355106+908210444+910251501+913195109+917575151+921162081
1292+922067928+922596405+924749276+928113239+931347192+932988464+933884751
1279+936337659+939278234+939674789+938251805+938285758+940501919+943155577
1265+945034056+946039322+945739285+944245494+944206926+946454337+947953468
1252+947705975+947980696+949817048+951874850+953277859+955025471+956768205
1238+956545040+954899220+954233218+955163458+956425381+957535472+958819283
1225+959693485+959319543+957483323+956140705+957513782+959593934+959777082
1211+958874003+958055840+956696212+954393949+952944198+953002742+952947033
1198+953140333+954610126+955535884+954757079+954239876+954536551+954100901
1184+953122005+953065176+955073071+957858518+957942708+956090732+956059152
1171+957895042+959141736+958566055+957384630+956973372+957104437+958209715
1157+961223932+965312902+967496165+966973754+967189206+969180817+970807848
1144+970843185+968921457+967203183+969263490+974367550+978775084+982129224
1130+984845381+984432344+981121716+978925465+979718180+981444234+981738800
1117+982088810+984585494+987508730+991107725+996398625+997916479+995011769
1103+994538539+996802036+996807574+994040125+993453764+996782126+1000545809
1090+1003508141+1006790815+1010435103+1013513731+1014493615+1012799403
1078+1010975117+1012615729+1017979874+1023879682+1027679229+1029590211
1067+1031497435+1035002681+1039483130+1043445783+1044842067+1041895888
1055+1038380027+1037930598+1040006267+1043838053+1046443781+1046203013
1043+1045973255+1047952802+1052315900+1056727784+1058248671+1055191140
1032+1048284682+1044652854+1048156452+1052419472+1054509052+1056711896
1020+1057302806+1056802744+1058802530+1062355113+1064216121+1062473849
1009+1056214009+1048410208+1045215877+1048765757+1053781078+1055024409
997+1054835988+1054425983+1052330931+1052173759+1054543268+1054900992
986+1052542164+1049993727+1049713468+1051357574+1052846091+1054687321
974+1056303276+1055920763+1055408966+1056006667+1056634958+1057036722
962+1055868548+1053109010+1052033267+1051875173+1050244384+1050846370
951+1055619209+1060874507+1064043390+1065502305+1067778461+1069487572
939+1067090966+1064995321+1067043037+1068307992+1064026315+1057559331
928+1054986633+1056881726+1060359678+1063588291+1064730160+1062294459
916+1060673032+1065120979+1070337446+1068780233+1064430123+1063870792
905+1066696389+1070543273+1073741823+1073296613+1070346017+1068482305
893+1067017061+1066702520+1068345505+1067717280+1064898078+1064523213
881+1066169824+1065830230+1062971076+1060301200+1057788628+1054324586
870+1052522913+1055185207+1059144959+1058688080+1055690807+1054172029
858+1050527676+1041553130+1034031961+1034751101+1038659825+1036732097
847+1029298283+1022880481+1020690691+1019428570+1014997039+1009642915
835+1007968416+1007581288+1003517239+998292333+996318720+997042145+998058092
822+997532648+995398896+993860406+991472108+985110410+978972867+975164683
808+970219772+968173309+973127384+976612588+971894733+965608522+962866785
795+960987317+957569293+952834890+949126784+948393536+948748293+947751597
781+944588978+939707358+936530366+936822557+936247668+931592773+926245704
768+922873302+920422240+919453762+918607381+913932511+908800234+907897947
754+908096653+906026588+902450799+899194561+898190812+898726606+898122972
741+896885640+898073460+901828045+903825722+902411308+900718284+899327076
727+897466463+897970217+904953416+915832812+919085621+911559969+904126089
714+901007904+897062458+893387514+894476443+897112431+897247188+894734616
700+891310988+890807893+892862070+893788948+894592146+896353471+897058041
687+898621122+902090240+900626578+892403213+883079118+875095070+873471797
673+884666790+900779135+900155722+879936276+871369230+875394514+879892830
660+880920841+878922374+877836016+880114347+884812952+887761438+883385814
646+876732386+876858703+879767699+874442122+864905410+866389180+877356524
633+877401552+863925196+856893871+856488415+842179194+818681228+814661349
619+836429701+856592779+859372622+863365734+866335581+849834460+826879606
606+821954013+837714106+852128745+848514389
##END=
