##TITLE=Sample description
##JCAMP-DX=4.24
##DATA TYPE=INFRARED SPECTRUM
##DATE=25/8/2023
##SAMPLING PROCEDURE=Instrument type and / or accessory
##ORIGIN=Default
##XUNITS=1/CM
##YUNITS=ABSORBANCE
##RESOLUTION=4
##FIRSTX=4397.6552
##LASTX=599.8556
##DELTAX=-1.9287962
##MAXY=1.8709999
##MINY=0.19034708
##XFACTOR=1
##YFACTOR=1.7425045e-009
##NPOINTS=1970
##FIRSTY=0.19807716
##XYDATA=(X++(Y..Y))
4398+113673830+113568953+113695089+113867429+114024889+114236122+114337612
4384+114274954+114068759+113698416+113559461+113992162+114443181+114439418
4371+114374272+114509430+114663170+114793941+115075331+115470559+115709798
4357+115851258+115958845+115655350+114919726+114282967+114073009+114282779
4344+114607243+114607431+114261520+113949781+113935465+114026924+114020263
4330+114110319+114396746+114807666+115084994+114769407+114207645+114127765
4317+114252703+114160526+114104615+114216949+114250146+114069939+113848658
4303+113830435+114056667+114303183+114419579+114376530+114105462+113958888
4290+114321723+114764746+114692519+114291878+114251412+114735149+115171365
4276+115261721+115309285+115334982+115161650+114963271+114925781+115116353
4263+115395254+115503448+115404720+115332075+115597285+115883557+115733340
4249+115493135+115306121+114934717+114895371+115587151+116272329+116302619
4236+115943803+115675720+115555904+115440928+115382580+115361295+115417111
4222+115622161+115740455+115806234+115947138+115915036+115795459+115956365
4209+116246033+116250514+115960573+115788720+115995378+116251104+116216316
4195+116028994+115889022+115925631+116233719+116575884+116634967+116525327
4182+116438589+116343487+116122959+115839414+115895358+116231752+116329915
4168+116227040+116274270+116460729+116567016+116713137+117023936+117165353
4155+117073022+117000436+116928637+116835630+116808419+116855906+116958396
4141+117022148+117053413+117160222+117175170+116976492+116817039+116867724
4128+117044434+117274822+117494538+117741832+118120770+118324750+118092464
4114+117718820+117565721+117802830+118143654+118077960+117752436+117706497
4101+117949114+118142174+118311641+118493610+118565700+118763899+119089723
4087+119126375+118924729+118828481+118821640+118747010+118772160+119021293
4074+119157982+119037935+119015068+119279594+119557511+119582302+119552902
4060+119709721+119884370+119898018+119794937+119693747+119738300+119825860
4047+119667194+119435566+119499840+119741473+119911504+120038777+120300182
4033+120571669+120517717+120201385+119844964+119671324+119839029+119976667
4020+119810655+119615594+119589460+119713492+119878888+119882831+119704222
4006+119597165+119689573+119796237+119777766+119723267+119705274+119662585
3993+119577890+119619844+119827322+119902037+119745526+119572417+119508118
3979+119573015+119644455+119629114+119743465+120000757+120014730+119826630
3966+119808492+119815119+119703547+119730014+119865360+119840996+119591692
3952+119170176+118625732+118414952+118686020+118672697+118507540+119044306
3939+119825407+119804113+118633984+117219510+117229806+118423478+118843412
3925+118251421+118038837+118143337+117801762+117730587+118691852+119917225
3912+120570155+120338245+118794189+115911110+113248278+112725212+114255970
3898+116764515+118461755+118130809+116722604+116791949+117702760+117459818
3885+116688577+116186480+116145304+117407722+118200026+117109947+115188793
3871+113782332+114229306+115550046+115581952+115824303+117541580+118438726
3858+117034052+113201201+109237639+111740446+116857633+119778339+119891818
3844+117939382+115228438+112663204+111793808+113534020+115563857+116923480
3831+118080945+118637806+118587044+118062191+115915155+113481898+114264385
3817+116284002+118596058+120984744+121834796+120554950+118468348+117634972
3804+116794488+115668870+116684378+118575406+120468913+122359906+123351829
3790+123462529+123004011+122179656+121830589+121837080+121441236+121832231
3777+123379776+124132845+123159461+121312107+120510995+121036019+121825715
3763+122107019+121136962+119794672+119728064+119541426+117211403+113741977
3750+113619313+115301802+115703230+116613400+118507472+118995570+117082454
3736+113984278+114040282+117831931+121202228+122191996+121443211+120865142
3723+121383418+122511406+123719333+124258330+123164404+120305475+118904496
3709+121532609+124395917+125222521+124647333+124616966+125784146+126694965
3696+126584855+125029708+121879974+119705779+121917798+125446983+127406508
3682+127508896+125911350+122988028+120190439+121049009+123169373+124126217
3669+126647102+130144099+132283695+133182568+133527658+133165234+132268156
3655+132093396+131494572+128162442+124761881+128229631+133988323+137474664
3642+139253837+140466391+141237717+141408244+141143616+140221089+138369347
3628+138695214+142470598+145465369+146038787+144837871+144419751+145821183
3615+147284358+148769596+150519847+151850490+153577361+155876367+157206017
3601+157504296+158178349+159135014+159879770+161275490+162550000+162057737
3588+161079728+162521199+165057118+166603157+167060513+167108932+167403055
3574+167942505+167914422+166346781+163128463+161381889+163387012+165918415
3561+167117295+167765214+168383852+168449853+168173432+168128861+167697708
3547+166776412+166678736+167665366+168676744+169210550+169406005+169671942
3534+169979149+169604316+168493415+167800429+167826255+167911292+168351339
3520+169203965+169837825+170246642+170403598+170060868+169618392+169553537
3507+169515431+169054723+168805051+169504998+170462911+170962460+171202999
3493+171372183+171214681+170764594+170660590+171040331+171358210+171595499
3480+171942197+172055472+171894941+171824682+171881498+172068624+172331089
3466+172319698+171924427+171445590+171235187+171234315+171335720+171566527
3453+171572667+171129490+170620996+170623185+171077770+171392040+171480104
3439+171564457+171732102+171895078+171970914+172269193+172862894+173380624
3426+173772474+174053565+174170294+174514888+175339038+176404735+177625302
3412+178875217+179878659+180857764+182241546+183965886+185751096+187481730
3399+189234940+191114200+192886087+194447673+196335656+198668167+200766656
3385+202617012+204738248+206717271+208188809+209824435+211887520+214001196
3372+216241299+218552157+220311679+221573053+223232401+225450543+227559858
3358+229471615+231618676+234203356+236838183+238908040+240778202+243139275
3345+245768133+248230115+250407329+252367008+254350701+256590410+258889758
3331+260568689+261465596+262415761+263926671+265327248+265810310+265699994
3318+266007988+266980952+268218383+269533752+270894068+272251477+273530879
3304+274793297+276134235+277358120+278228944+278756559+278965628+278874178
3291+278733265+278597072+278161506+277219105+275906883+274723020+274016420
3277+273844208+274020268+274021055+273814774+273862629+273970002+273682498
3264+273255757+273099999+273312352+273678325+273694282+273456275+273415484
3250+273453726+273401613+273319125+273317072+273227469+272713348+272085423
3237+271773239+271635336+271253560+270383625+269393215+268737668+268458100
3223+268436123+268489536+268353942+267600685+266335411+265469512+265338382
3210+265533341+265749354+265792403+265664847+265455300+265245375+265244332
3196+265414628+265474626+265229452+264726893+264326970+264112103+263730857
3183+263158243+262590231+262080522+261776941+261636867+261550085+261577142
3169+261549504+261547913+261751218+261781303+261620482+261722741+262093042
3156+262454671+262628884+262557649+262360860+262238265+262307892+262542222
3142+262844777+263013397+262752625+262133884+261538643+261175680+260957016
3129+260643584+260322010+260240462+260407167+260718872+260864334+260627062
3115+260104852+259455992+259040864+259020683+258979276+258615167+257981769
3102+257380593+257294957+257530160+257474404+257178194+256852157+256515549
3088+256365007+256454012+256502380+256368685+256317153+256525435+256949029
3075+257861157+259521087+261408762+262440082+261953446+260409732+258583919
3061+256446008+254050626+252097599+250721770+249508028+248433334+247607047
3047+246970536+246658506+246801163+247008299+246980729+247124293+247606756
3034+247838589+247607799+247384073+247281984+247022940+246679030+246716725
3020+247254311+247816235+248255684+248995652+250147019+251443335+252892537
3007+254689275+256850138+259280360+261896544+264824176+268481138+273375736
2993+279772333+287600275+296474897+305143083+311820873+315520764+316319036
2980+315123457+313182831+311272785+309571021+307924808+306044522+303928280
2966+302003149+300667666+299866863+299252312+298786183+298610191+298770892
2953+299266508+299693129+299954396+300646493+301775438+302727810+303234542
2939+303325633+302999647+302323183+301463955+300558480+299646334+298516637
2926+296826743+294595534+292112771+289235850+285640049+281629718+277743043
2912+274285812+271411541+268881643+266425972+264239043+262537006+261241767
2899+260190641+259363327+258839184+258521664+258362981+258583030+259133546
2885+259602617+259797987+259858378+259937087+259958295+259741991+259351560
2872+258853243+258074331+257120402+256349204+255693982+254791055+253511603
2858+251849997+249700439+247109550+244227053+241025137+237703722+234711303
2845+232066112+229529629+227099288+224886191+222954013+221316386+219891813
2831+218534934+217214725+216057132+215162723+214514667+214053754+213654207
2818+213198511+212806951+212594616+212384042+212075672+211836758+211679785
2804+211429925+211187471+211156309+211134143+210865504+210483591+210101626
2791+209655336+209127413+208491073+207831815+207303396+206897453+206503823
2777+205960029+205298410+204830109+204663729+204541750+204280106+203933544
2764+203632255+203573335+203685822+203635129+203424777+203233068+203044659
2750+202808824+202608700+202495477+202329320+202102156+201895002+201654019
2737+201442898+201267043+201009931+200805275+200758327+200734810+200672469
2723+200638314+200696601+200807413+200869839+200817418+200680781+200621844
2710+200683227+200770949+200881264+200973228+200988415+200998780+201065893
2696+201173472+201232546+201086810+200801820+200689059+200788326+200820274
2683+200655160+200402342+200204013+200095477+199965955+199739868+199494472
2669+199266726+198993093+198656589+198334639+198097110+197935417+197851492
2656+197811128+197741279+197694912+197705893+197724809+197738064+197674320
2642+197521264+197434106+197484099+197618410+197766694+197820381+197763924
2629+197745042+197788039+197762162+197767156+197967143+198190322+198337615
2615+198617679+199013788+199299393+199475180+199623481+199746846+199868689
2602+200026329+200234799+200506414+200884805+201303387+201633478+201902220
2588+202085702+202164360+202310062+202510100+202571227+202552242+202597087
2575+202614840+202515163+202356001+202162308+201937452+201756894+201654121
2561+201541925+201379325+201205061+201072118+201030677+200986192+200840336
2548+200715774+200698278+200677172+200620492+200567455+200451479+200338273
2534+200390352+200532565+200600755+200638690+200781159+200964471+201069946
2521+201204565+201492035+201809008+202005335+202172775+202396381+202567909
2507+202714466+203026992+203406990+203603402+203724202+203951246+204202218
2494+204438874+204708009+204948001+205100048+205187445+205270823+205388544
2480+205487964+205558327+205619796+205572847+205421809+205316899+205299898
2467+205323808+205356185+205369747+205301916+205159191+205102134+205170342
2453+205183836+205072478+204952431+204882496+204778184+204606485+204511477
2440+204545136+204563009+204527571+204450145+204226179+203943122+203863558
2426+204009038+204205536+204330543+204364048+204364971+204380758+204380484
2413+204343490+204376909+204551567+204770658+204932796+205026863+205136803
2399+205330615+205555129+205740116+205904118+206100394+206237288+206173784
2386+205936734+205566229+204919712+203847721+202432589+200829134+199117536
2372+197392854+195802021+194457371+193189890+191981826+191221300+190937867
2359+191034859+191906042+193795855+196358506+198806070+199999716+199363667
2345+197734746+196697012+196634243+197040443+197578491+198115941+198600473
2332+198974006+199473469+200266714+201100852+201868390+202762885+203910421
2318+205216879+206357985+207099937+207635214+208240136+208895511+209492719
2305+210026628+210493921+210888491+211266949+211642911+211942199+212201551
2291+212557468+212955783+213274791+213562175+213824846+213984726+214066257
2278+214130000+214199815+214275514+214310917+214330979+214402659+214470028
2264+214534165+214710207+214963488+215148955+215254806+215348326+215413934
2251+215514860+215765985+216014528+216049675+215947655+215935597+216104286
2237+216317955+216424679+216467676+216596514+216812082+216957442+217013609
2224+217144585+217392906+217634419+217831071+218005660+218130770+218220989
2210+218296824+218381947+218552517+218777799+218967148+219158276+219371689
2197+219577851+219813874+220035343+220176153+220314706+220494836+220652373
2183+220742746+220818650+221011334+221336824+221586890+221605857+221532656
2170+221600829+221817167+222012861+222163847+222324617+222455559+222561291
2156+222639572+222698047+222848983+223071136+223236985+223351525+223474599
2143+223657073+223932468+224192076+224331108+224450283+224652459+224851813
2129+224934353+225017235+225271337+225540232+225584752+225496141+225506009
2116+225683728+225991841+226320068+226503807+226520756+226510973+226601329
2102+226778125+226998704+227276955+227526832+227706278+227928585+228243249
2089+228592478+228860587+229055170+229338330+229664401+229855050+229953564
2075+230114317+230433616+230910435+231315677+231407144+231399961+231676502
2062+232133498+232467950+232677225+232921731+233247153+233506693+233601086
2048+233638764+233724553+233840906+234004515+234311414+234681971+234921603
2035+235059369+235261785+235539916+235776521+236001855+236317374+236679978
2021+236955322+237049543+237174413+237592962+238111153+238535636+238940348
2008+239327478+239655654+239944663+240234835+240592068+241028062+241324083
1994+241239423+241114655+241512817+242297595+243068810+243680163+244163549
1981+244646491+245178963+245680582+246083173+246468900+246779682+246869764
1967+247127765+247932605+248816684+249395387+249858831+250271359+250580840
1954+250885174+251192808+251371947+251330455+251012764+250537638+250660148
1940+251618284+252438961+252791851+253018450+253272894+253574491+253891207
1927+253926594+253376368+252866078+252964336+253279718+254010724+255090669
1913+255586198+255467468+255610416+256386540+257237593+257827173+258268212
1900+258506134+258418669+258305908+258532798+258660901+258617749+259276221
1886+260351069+261054573+261553865+262073801+262569536+262977343+263187627
1873+262754660+261300772+260130489+261301850+263498870+264809963+265361899
1859+265785544+266286462+266825981+267274596+267456317+267210408+266448103
1846+265474267+265828439+267926825+269549538+270139802+270691328+271169925
1832+270520262+269436794+269883186+271149863+272508897+274274849+275645598
1819+276324628+276842289+277153121+276926864+276903757+277888728+279107328
1805+279592921+279167445+278606667+279006573+279793541+279630753+278601160
1792+278947277+281611743+283873618+284746152+284898216+284816173+285183668
1778+286052525+285915666+284078975+282445744+283863561+286921417+289378661
1765+290304079+290096549+290452979+291341453+292118313+292951989+292611636
1751+290614159+289442661+290900466+293008156+294349009+295163153+296240515
1738+297111339+296344160+295503027+298039014+301883017+305319793+307500000
1724+308387209+308626038+307504481+304715025+304504006+309392669+314265392
1711+316967212+317512187+316743023+316566279+317174091+317276095+317820385
1697+320631118+326417970+331996198+334515595+335346500+335172082+333708942
1684+335085677+341530556+347011843+350416602+352991174+356148109+359003412
1670+362225065+368585214+374411746+376992201+378504154+380849202+382116956
1657+380474951+375829255+372903521+375933345+377071286+378379712+385376544
1643+393082370+398250704+401147636+402970524+410083042+423101449+433190121
1630+441478617+451143097+461797062+473670208+487867912+499568933+508016317
1616+518257207+529070744+536272575+540879617+544774826+548467910+551002050
1603+552272336+552995013+553022412+551960887+550314948+548557668+546410503
1589+543765535+540961849+538125633+535076175+531541056+527149102+521195153
1576+515838992+514478915+513093902+510390953+510100405+511780311+512744279
1562+512083105+508439518+506549756+513882425+521625468+527840207+533102026
1549+538632947+543493526+546427743+548247109+553508894+571308967+588146133
1535+598831842+611257420+626210570+637867259+647309363+656655484+664510074
1522+672198147+681396018+689311905+696627471+703399362+706643557+704645224
1508+698334297+698361320+707718456+713429883+715561210+716651159+719870247
1495+725326016+728855012+729239286+730418241+737055085+745389384+752526393
1481+758654795+763570584+766200228+765240194+763291187+767100606+774658969
1468+779799425+781646223+783716594+787476688+788760109+785481776+786987401
1454+796332017+803789061+807661557+810245502+814775101+820440965+825765177
1441+830675287+833974281+836134272+839738249+843701597+845461511+846305313
1427+848863602+851540451+852025976+849331203+843674574+841462794+845954014
1414+850176783+850314566+847965345+846126072+845300947+843878922+840811711
1400+835610779+830015516+826924361+826099031+827363501+829143734+828074513
1387+823702195+821093211+821938517+822964023+822405434+820813540+818748437
1373+817118233+817079238+817630917+817604784+816347975+812650000+809234363
1360+809940244+811869549+812001243+811626752+811899240+811841842+811912033
1346+812452629+812524463+811272101+808277065+806297478+807884719+810899389
1333+812775126+813388104+813780176+813992050+814611800+816332582+818241568
1319+819927802+822089025+825163215+829040089+833232414+836664744+838656372
1306+840250728+842742315+845949704+848841095+850887248+852718106+855268255
1292+858128723+859695235+859231329+858095543+858325957+860029910+861565020
1279+861673523+860540268+859423090+858676571+857488176+856189499+855583910
1265+854715275+852677469+850240338+848021580+846317422+845495581+845347057
1252+845486892+845616740+845508100+844866048+843682510+842641749+842277451
1238+842978612+844767807+846184427+845661824+843808321+842820579+843712338
1225+845344389+846634651+847585792+848444301+849651374+850731746+850783466
1211+850962775+851927598+852158422+852076464+853486722+855903192+857922117
1198+859101756+859988178+861501739+863454987+864565666+864815577+866466442
1184+869894119+872754588+874842062+876486838+877052884+877606137+879117508
1171+881867148+885472698+887941367+889495771+892348440+895550629+896953293
1157+897677646+900628350+905691842+909497635+911390271+913538632+916173339
1144+918724035+921884971+925978919+929609850+931981852+934599387+938081726
1130+940214216+940077459+939995774+940990220+942815606+945599931+948176281
1117+950410090+952599157+953689312+955276143+959034663+962086208+962386950
1103+961820836+961949930+962505714+962469661+963514732+968364708+973729009
1090+976043682+977873240+980701691+983009659+983739417+983071573+983461730
1076+987460995+993342359+997326915+999431219+1002119834+1006873485+1012082080
1063+1013547957+1011515555+1009855386+1010659644+1013764209+1015641246
1051+1015867144+1018156367+1019404555+1016160840+1015426567+1022919254
1040+1032131833+1034858487+1034381924+1034186538+1030693048+1025805787
1028+1025159904+1027495716+1029653381+1033077843+1037447357+1038987462
1016+1038990198+1039557681+1037654031+1034040887+1033015519+1033861099
1005+1034237574+1033670159+1031247805+1028243602+1028417918+1032223369
993+1035146777+1034187632+1032286856+1032293903+1033724753+1034956727
982+1034677056+1033569524+1032562559+1032626593+1036078626+1041729234
970+1044316120+1042248554+1039563291+1040045326+1042066440+1042591164
959+1044229168+1048196552+1050573959+1048896892+1043476629+1040666307
947+1046408041+1053388865+1052852988+1050268155+1051915257+1053805566
935+1052784986+1052322722+1054013130+1055967404+1057161547+1057411390
924+1056908625+1057147590+1058219137+1058053784+1058288644+1061046289
912+1062886314+1062647486+1062359537+1059563445+1053915231+1052132330
901+1057576606+1063308147+1063820899+1064281863+1067165592+1067690385
889+1066594620+1069745568+1073741823+1070093652+1062604796+1058425949
878+1054957771+1049694994+1046605070+1046668967+1045594410+1042301369
866+1040026718+1038797617+1034937640+1031042568+1031929948+1033892774
854+1032341928+1026715401+1018250298+1011325983+1008026032+1005693367
843+1002158830+996718316+990333983+986469422+985604071+983200394+976160667
829+967338587+961122480+957056034+953688354+953248119+955142396+953237652
816+948065385+946677977+946418693+941953538+937414156+935960798+936843116
802+938261583+936430177+931519315+927229980+925660526+927410316+928857380
789+926185251+922212804+919636727+918039977+917414891+915629390+908976810
775+899710048+894026943+891873109+888613932+883948055+881223591+881226874
762+882255253+882301637+879376108+874472907+871543958+871800916+870217985
748+864454017+861462949+862544963+861535603+859028417+857804516+857318854
735+858314737+859982910+858947622+855884926+854467759+855280706+856164870
721+855313202+853386839+852614461+853773986+855098865+855076699+854688663
708+852663034+846788032+841804105+842184958+844708152+846255508+845848111
694+842996878+840250591+838067613+835381733+833663619+832976346+832136581
681+832257466+834880269+837077272+837012143+837658984+836286764+827622169
667+818639387+819383648+823162830+825751495+828225295+830099253+832035535
654+834461242+832063174+823033803+815301741+814906522+818488059+820631494
640+818314496+813664559+816354748+824912140+821042928+804765514+789803880
627+776959891+772278620+784209986+799546453+800279289+789524620+786527395
613+800960268+814481337+809233405+793595581+781925757+785382920+802146679
600+813558656
##END=
