##TITLE=Sample description
##JCAMP-DX=4.24
##DATA TYPE=INFRARED SPECTRUM
##DATE=25/8/2023
##SAMPLING PROCEDURE=Instrument type and / or accessory
##ORIGIN=Default
##XUNITS=1/CM
##YUNITS=ABSORBANCE
##RESOLUTION=4
##FIRSTX=4397.6552
##LASTX=599.8556
##DELTAX=-1.9287962
##MAXY=2.0477726
##MINY=1.2378696
##XFACTOR=1
##YFACTOR=1.9071369e-009
##NPOINTS=1970
##FIRSTY=1.3182656
##XYDATA=(X++(Y..Y))
4398+691227547+690800374+690422082+689298020+690088358+692946738+693954475
4384+691640905+689352651+690407581+693037873+693545492+692770468+692482686
4371+692282727+693192265+696295922+700172165+702706759+703270571+701534254
4357+697671762+694470469+692489062+689067682+685432966+685565231+689480103
4344+693849776+696532636+696708968+693925596+689461476+686403511+686734798
4330+688449739+688156331+687124591+688776400+691599213+693459607+694475407
4317+692051388+686412825+683231472+685040735+689221262+694366770+700572022
4303+703540539+700706412+696684715+694473782+693342719+694252945+697223838
4290+698351963+697873597+699893446+703142432+703872201+701947237+699536907
4276+699215434+701787719+702729699+698528045+694387398+694067862+694213253
4263+692918422+693026997+695644475+697263717+697592754+699941139+702451355
4249+701937111+699508404+697404045+698175943+701090767+701208467+698906087
4236+698263328+699061854+699291255+698758195+699871757+703180686+704179110
4222+700999882+696606019+693724762+694128431+696641835+698830703+701022384
4209+702058937+700329120+698156379+697270343+697306472+697673575+697619256
4195+697830655+698860769+699726240+700241610+699658358+697406045+696264731
4182+697383230+697808277+696329863+695303374+696531198+699081106+700901996
4168+701732713+702842211+703629049+703737748+704355504+703853949+701350046
4155+699925575+700874868+701221156+700041775+700851803+702560180+702339280
4141+702957599+703171185+699221184+695011967+694994528+697923540+700820237
4128+702721323+704264494+706015626+708089856+708938013+707630243+707359775
4114+709419254+709978754+707846204+705401808+703582793+703008980+703498222
4101+704395009+706533496+708291629+708374138+708849566+709079904+707492728
4087+705166344+703993777+704467767+704456140+702966163+701746715+701590885
4074+702034059+702988728+702956286+700840614+699611728+701055575+702943473
4060+704575216+706963919+707503229+705435624+706125326+709324931+709579397
4047+707596739+706406982+705061333+701978303+699351324+700362373+704715044
4033+709155725+710611386+708922074+706025252+704657475+706461676+708716426
4020+708210370+707243950+708559783+709690346+708209182+705668963+704388570
4006+704466079+704519210+704958884+707511605+711617248+713998450+712862886
3993+710530815+709148474+708313881+708100107+708387389+707555297+706292094
3979+706886973+709576834+713117727+715166329+715073382+714589703+713505895
3966+711337154+709596836+709670782+711565305+712696993+711461418+711076375
3952+713372380+714986372+714078459+714063895+715736205+715609254+713558651
3939+711869713+711472982+712257944+711671004+709507951+709059714+709322743
3925+708407329+708807061+711314714+711991602+709854552+708866630+710467558
3912+712972398+715049191+715462487+712818881+708370700+705967121+707146752
3898+711235080+715464613+716867956+714189471+711295775+711773640+712783502
3885+712568666+711364345+709354122+709800859+711953598+712384146+711524363
3871+708421456+705723781+710716085+716878895+715548684+712023168+712150245
3858+716112872+721192311+716704625+707300081+708375826+713925504+718441380
3844+718725600+714946805+710107143+706349163+706366040+710586884+715355600
3831+717462022+718121032+718408002+717676671+713935755+708457772+710530190
3817+714867609+715339849+718293114+722484079+722203111+716995345+713562964
3804+712941020+709256298+706529808+709003333+714532822+719918357+721845446
3790+722366441+723819665+723953930+722240615+720269458+717661356+717818186
3777+722645410+724852092+720965598+715957980+715373540+717736177+719782279
3763+722280307+723691713+720857211+717702611+716526293+713912190+710832098
3750+712616546+717326194+719053948+715916038+715093634+717501026+719017444
3736+717675795+715330098+716475912+720407849+722979634+722116288+720497671
3723+721530536+723866608+726339945+728928295+729597306+725713625+719090265
3709+717100544+718901119+720203951+720061998+720511860+723616455+726716924
3696+727034522+725547232+721594793+714740720+714299233+721347703+727558205
3682+728568755+724882721+720113816+715764021+716421344+720804955+719415926
3669+715280030+716598238+718477384+718369247+719411113+721142743+720095377
3655+718891368+719398987+714325111+699843753+692602762+697030691+703699744
3642+707889397+708972392+708095544+705147342+701714649+699719177+697717080
3628+695923068+696281983+697340976+698409782+698020238+694776378+691683848
3615+689573238+687804604+687715532+687587393+685284637+682590588+680432411
3601+679007440+678408186+678163847+678678154+679443426+679495307+677810057
3588+672676675+668368259+669223854+671819392+672098423+670119266+668315191
3574+667755941+668289501+668471833+665743030+661419300+660386373+661458430
3561+662892339+664409757+663621670+660561018+659344508+660531639+661285160
3547+660645339+659484273+660519575+662317588+660395812+655958069+653696068
3534+654846696+657282591+658641554+658364461+657737329+657274028+656492753
3520+655346501+653821144+652768840+652598946+651802483+651072027+652859538
3507+655312560+654391520+650778057+649072242+650171739+651537641+652954548
3493+655430135+656450624+654526910+652852912+652815533+652725460+652519062
3480+653387846+655498518+657747893+658081055+656744656+656407369+656671586
3466+656107586+655709604+654986336+653443102+653548302+655206173+655400945
3453+654823131+656098210+657989857+658156876+657439546+656390367+654508096
3439+654143118+657154577+660682781+661273034+660241545+660039647+659648916
3426+658668933+658635616+659511651+660620212+661837534+662629685+663065608
3412+663853133+664517207+664861682+665260664+666047439+668580033+672157367
3399+674566135+674835102+672742807+670859286+671586554+673788236+676547605
3385+679738209+680962782+679016441+677703921+679040006+680863521+682809737
3372+686111854+689924902+692725088+695444328+698717128+701879479+705494381
3358+708445958+708583911+707826265+711272710+719306289+725326332+726728488
3345+727550267+729934531+732966243+735169112+737192462+740569087+744487272
3331+747360528+748194058+748060731+748607229+749330435+750703962+753620973
3318+756340588+756838893+756145941+756213261+755709330+754312050+754686342
3304+757106423+758295742+755663138+752778192+752910019+752009294+747876773
3291+745495259+748154929+752141559+753210240+751995480+750468686+749438822
3277+748431960+746021130+742762955+740464263+739968145+742326907+745415750
3264+744239619+739465964+736129907+736469007+738480730+739094548+737258969
3250+734231696+732873483+734433781+736711721+737029944+735267873+733218458
3237+732585951+734004296+736694532+738522110+737517748+734531854+731169918
3223+729346216+731172981+733372038+731729356+729049683+729402847+731956443
3210+734965340+738091062+738280895+734668494+731456388+731284681+733563184
3196+735833561+736522138+735967889+735177926+735453019+736740849+736830547
3183+734656306+732729217+732214222+732278542+733327158+735078477+736545390
3169+737665702+738740259+738463853+735607286+732382803+731564025+734347271
3156+739277944+741654082+739979146+738630684+739568538+740434259+740870183
3142+741403617+741469874+741522505+742067878+743653367+745298799+744485272
3129+742779395+743052925+743976715+743761379+743478597+744713047+746623634
3115+746569190+744627912+742952414+742486487+744696670+749477701+752699121
3102+751967977+749387753+747949094+748373203+748618668+747901963+747477291
3088+747398158+747936342+749817176+751297965+750649831+748986021+747368342
3075+746547751+747968971+750732965+752130683+752077677+752256572+752772379
3061+753591720+755113139+756184008+755484680+753537777+751952351+750718776
3047+748965519+748818815+751723325+754750036+755407609+754575704+754116091
3034+755083136+756969595+758005585+758011836+758745792+760344407+760556618
3020+758290117+755335601+753011593+752512975+755375731+758884120+760649379
3007+762693418+764783838+765133376+763825794+761863263+761199940+762165984
2993+763131654+764206586+765784636+766672797+767212545+768098643+767647218
2980+766181868+766117548+766891009+767836176+770132244+772508383+773007125
2966+773063632+774807575+776384125+774702689+772818604+774538670+776501763
2953+775433395+773511869+773176019+774392904+776027711+777776530+779070361
2939+778086377+775564909+774816514+777328480+781493255+784050476+783660308
2926+782224774+781111213+780078285+779353955+778627937+777540816+777294476
2912+776985505+775418831+775110171+776112595+775822375+774975281+774726379
2899+774562423+774649995+775310319+776711849+778602809+779775627+779763375
2885+779476094+779769876+780412322+781079709+781624582+781680963+782497429
2872+784530717+785121408+783052491+780358942+779718183+781378617+782970544
2858+783567923+783983406+785072277+786663204+785847488+781967120+779010667
2845+779039420+780344940+780617033+780463391+782014188+783839578+783751881
2831+782963918+783072243+784358948+787052497+790011388+791288717+791486239
2818+791415169+790635770+790273417+791181518+791726453+791165079+791035564
2804+790899049+789740233+788936081+788686741+789013277+791480676+795520062
2791+797783188+796554177+794571332+794231294+794777605+795190901+794384374
2777+792442720+791366726+791487927+792056990+793104794+794000768+794796857
2764+797233315+801018860+802403326+799757720+796627310+795857662+796901653
2750+798155667+798550461+799211659+800457860+800197581+798891999+798485954
2737+799192407+800876094+802752928+803554892+803294425+802892506+803021645
2723+804039695+805479668+805694067+804413237+803467069+803707471+804091014
2710+804134331+805265644+807573400+808713652+808049516+807018276+806325137
2696+805763262+805629684+806346514+806766686+806230501+806259067+807446511
2683+808541258+809312781+810868703+812458442+812428814+811912319+812360182
2669+813175460+813721833+814004114+813800529+812837110+812455755+813806717
2656+815259316+815545660+814867460+813554877+812843235+813028381+813721770
2642+815823003+818081379+817764657+815916639+814957595+815210623+816306432
2629+818016559+819201066+818428043+816903561+817107396+819224944+821323239
2615+821150782+818984167+818065877+819262385+818954914+816451823+815693989
2602+817364550+819240695+820521713+820906755+820097353+819100180+819990966
2588+822118327+822450614+821705406+822168833+822568190+822190898+822529811
2575+823581677+824798625+825713039+825428945+824310258+824012600+825497953
2561+827175076+827950100+828700371+828579420+827472609+827093192+827488673
2548+828472345+829738111+829734985+828158810+826436932+825744667+825947252
2534+826317731+826730464+826733027+825715664+824856006+825568898+826936050
2521+827510863+828006481+829468143+830867611+831407984+831916165+832251327
2507+832202822+832326336+831559438+829837434+829284560+830616021+832481478
2494+833047978+832405157+831911539+831902664+832562674+833592289+833644982
2480+832723192+832230262+832143128+832386530+833766120+835301978+836148197
2467+836971851+837596296+838020155+838521086+837835885+836206454+835995805
2453+836661317+836827585+837449029+838319251+838522898+838839621+839391495
2440+838700356+837271822+836972726+837014106+836489610+836707447+837902142
2426+838573592+838145607+837229567+836453231+836365221+836840399+837731061
2413+839082336+839242916+837854449+837327203+837838635+838161483+838633473
2399+839403121+839963808+840210148+840994423+842502028+843872680+844526752
2386+843271613+840786587+839360991+838729796+838662289+839497569+838659851
2372+834903934+832195321+833034977+833923450+831059195+826604450+824473901
2359+823975533+824765559+828227005+832308459+835256536+837473844+838520523
2345+837820508+835811910+832444974+829488458+829697544+830859485+830943057
2332+831110513+831910477+834213608+837556791+839544824+839888425+840472927
2318+841484415+842372763+844067326+845759202+846566479+847588592+848169282
2305+847849996+847608907+847671477+848277544+849197896+850092995+851232559
2291+852101406+852126159+851629228+851014285+850223760+849410920+849415920
2278+850427220+851142299+850745443+850549359+851699424+853023633+852501263
2264+850272078+848673963+848484692+848927241+850616929+853582383+855012104
2251+853564443+851943451+852098843+853233844+854012055+853994678+854054373
2237+854560304+855103177+855667739+855762562+854867775+854236893+855618046
2224+857896924+858648820+858289343+858233837+858870095+860345571+861298364
2210+860446707+859493914+860180178+861732850+861885429+859624553+857039704
2197+855889326+855872824+856917003+858830715+860607225+861565144+861548392
2183+860923885+861097279+862390048+862773215+861788669+861655091+863502234
2170+865967445+867060066+866678337+866412620+866668773+866382054+865427948
2156+864510783+863999914+864109864+864331326+864121053+864053733+864428462
2143+864949395+865031529+863817894+862449680+862470432+862554879+862159272
2129+862799593+863720258+863112878+862448679+863809331+865669224+866390680
2116+866923676+867543308+867412230+866689150+866035203+865160731+864520409
2102+865669725+867782647+868788321+868774069+868641179+868488787+868497788
2089+868508665+867768208+867115010+867608315+868395715+868471536+867425982
2075+865733544+864901014+865518270+866421308+866536821+866330985+866676961
2062+868105307+870896492+873809003+874437385+872531549+870307489+869015971
2048+868387964+868246698+868424593+868744378+868785883+868071804+868065428
2035+870056899+872176197+872729758+872328464+871686080+870969125+870408563
2021+870444380+871173461+871936545+872501045+873446775+873593917+871797842
2008+870602397+871831221+873801940+874545460+873957332+873827505+874954130
1994+876353723+877167876+876686072+875133713+873662799+873291133+874413195
1981+876085381+876990294+877153624+877468034+878041348+878094104+877261261
1967+876102695+875816351+876791897+877945712+878352257+878222931+878136609
1954+878208929+878446455+878761740+878240558+876537931+875409618+876762518
1940+879263859+880805655+882365078+884434433+885062315+883499579+881730320
1927+881319149+881192698+880812281+881455977+882738682+884235536+886985841
1913+889589505+889138142+886125808+883715415+882348514+881122502+880863349
1900+881316649+880619572+879247919+879087339+879752975+880450740+882078859
1886+884525568+886267824+886973527+888048084+889661450+889301098+887326004
1873+886735251+885913034+882792875+882027040+885206518+887832497+887787555
1859+886805071+887179675+888912867+890433099+889936793+887416951+885068691
1846+883614967+883754670+886657304+889062321+889228277+889273220+890067996
1832+889324726+887019407+887548153+889795028+889727145+889864535+891831254
1819+892972630+892515642+891937328+891783686+891298632+890440037+890982222
1805+892520893+892502703+891476464+892228673+893806598+893150650+889892164
1792+887742237+890130940+893840977+895682869+895776129+895119556+894183577
1778+894178014+894344158+892091345+888897053+890315711+894254835+896950635
1765+897498883+895140809+893617327+895395649+895872577+894754016+894174076
1751+892100034+888577643+887940572+890052681+892614028+893477124+891409332
1738+889463116+887752051+883741606+883577212+888761413+894434918+897852297
1724+898348540+897952121+896875939+892081969+885784708+886000857+890537735
1711+894545868+894930598+891102985+887695732+888795479+890350652+887964950
1697+884203032+883325997+886907895+890185446+890379530+890131565+889087574
1684+885167201+885626815+888421250+888965748+887498585+886615550+886483723
1670+884011386+884036138+888721659+890231701+887486021+886588672+888114029
1657+888583768+884038889+874654347+875011949+876830901+873358328+873121489
1643+876977542+877692684+874950005+870723661+868136373+871385984+875587326
1630+875883483+872636748+870854425+872685628+877476535+882586978+884723090
1616+885204018+888811919+893528880+896485583+897654275+899463539+903508175
1603+907273093+908312146+907701578+907448925+909305381+912857088+915230601
1589+915438187+915118714+915406683+916544685+918372388+919149786+916532058
1576+912163386+913002667+915932617+915495943+914455765+915978872+917562173
1562+917646057+912448230+902601824+904463094+910991881+917757944+923712293
1549+926719939+926648494+923661162+917803575+910749291+910660219+917237262
1535+921867213+924883235+928695221+929946235+927181366+925315596+926051990
1522+924840731+922913392+923763361+927326569+932096849+935079555+933739344
1508+925202146+918985581+928280613+937134908+939953221+937885491+935906709
1495+937870490+939296773+936249685+932472328+935548232+940987398+942739468
1481+941845368+941194671+939320026+934440109+928517889+926161377+928261298
1468+930191387+929886103+929391673+930083563+928484823+921002242+917306644
1454+924701715+931997275+935050302+934387478+934342411+937619024+940862009
1441+940655861+937425065+935786946+940775312+946776916+948746072+949636171
1427+951302668+949454963+943442858+937598209+933980495+934624067+937752227
1414+939554052+941044217+943058503+942770159+938842848+934865344+933022764
1400+929749213+925465175+924870297+925409794+923157231+919816861+916081446
1387+912475045+912546303+917079744+921863775+921754076+916650884+912669630
1373+915186284+919997506+920833598+919331432+918382326+917445222+918959078
1360+923297434+924516382+922003478+920283412+920540191+920318291+919226670
1346+918842315+917308020+913569479+912214079+914494207+915770661+916164080
1333+918006410+920825660+922581730+922345954+922534100+924427185+925247526
1319+925600878+930133881+935839764+935775195+932643409+932792801+936660293
1306+941827554+946605334+950173793+952806335+955782916+959200608+962829760
1292+966087622+967078982+967503967+970105318+973311049+975016488+975490916
1279+977530955+982256917+985806999+984934902+981653413+980282510+982243541
1265+985055915+986264612+987108456+988389660+988362845+987767279+987416427
1252+987026697+986954939+986344433+985534906+988105379+995161037+1000053330
1238+998912704+996581570+994011534+991032391+991529821+995045337+997559928
1225+999451388+1003593411+1008060657+1008623657+1006316838+1005149021
1213+1005347980+1004166349+1000846293+998742997+999995386+999693353+996502311
1200+996648015+1000360239+1003176864+1004687720+1007280132+1010682135
1188+1009763346+1002793697+997398911+999584591+1004877803+1006936469+1008123039
1175+1015032306+1026583463+1032721332+1026581713+1016162619+1016340888
1163+1023956671+1021538028+1008567275+998384270+999392569+1007487405+1010428169
1150+1006347154+1005738336+1015174196+1026799174+1029382524+1027912298
1138+1030513587+1034439835+1032692641+1026061655+1022057773+1022336679
1126+1022913243+1023526874+1026405693+1028405915+1026094471+1023694830
1115+1024319524+1025348826+1023598194+1018319483+1013417501+1012920196
1103+1016429648+1023201712+1031178973+1036322231+1038615986+1041764523
1092+1047446654+1051188944+1047240381+1041074259+1040719282+1044543394
1080+1047106241+1046461232+1046883091+1049934055+1049981310+1047764002
1069+1047498160+1048605595+1050181708+1051171567+1051754132+1053803360
1057+1056801567+1061005659+1066671038+1068453486+1064302275+1058241602
1045+1051364589+1045269412+1043028038+1045563757+1052320195+1059328723
1034+1062110407+1062688971+1064180137+1063310540+1058052706+1053355310
1022+1052325571+1053076654+1054839850+1058099962+1059225336+1055869339
1011+1054584946+1059129951+1062414941+1060479601+1058064333+1056264633
999+1051719003+1045356922+1040871111+1039915380+1042020864+1044157976
988+1045018509+1047800756+1053113658+1056442028+1054928109+1052487213
976+1052562722+1053411566+1054595072+1055620311+1055584182+1056782065
964+1059102698+1060359212+1061786496+1064068999+1062362310+1056056610
953+1054164900+1059925039+1065154745+1064529550+1063293163+1067013201
941+1073286772+1073741823+1065435151+1058224225+1059303720+1062959001
930+1062349558+1058307610+1055380035+1056924831+1061528467+1063663954
918+1062638715+1063797469+1066871185+1067812540+1066560276+1062726600
907+1057854059+1058246478+1064961473+1071109781+1069557358+1060542358
895+1053564083+1055127382+1060252200+1065675052+1071568082+1070477961
883+1063662204+1062611337+1065953083+1066964571+1066030217+1061541344
872+1050612005+1038055486+1034248751+1043612353+1056327015+1057928193
860+1050615881+1047837135+1050546498+1050721768+1050852782+1056213252
849+1056485532+1041803652+1026577462+1025930203+1033399532+1036810036
837+1034259190+1026501829+1016931641+1014592882+1021456706+1028596811
826+1030441266+1026830803+1019973979+1016598854+1015787202+1013294738
814+1010471674+1005946609+1001778647+1001336848+1001416169+1000293607+997311463
800+995299740+997823520+999192797+995366372+988953723+980515474+971033296
787+965393295+966032178+968449822+967804813+965430362+965265093+966670874
773+964738910+958679862+953737626+951838290+949732932+947069448+945119169
760+945988016+950107036+948801391+940578603+933279355+928316429+928323992
746+934502116+939134005+936908133+931796815+928908620+926743692+922939457
733+921388285+924243789+925302657+922062860+919963752+919375311+918056978
719+917406405+917774759+916399731+913097052+913017418+917576362+922019355
706+922326577+920446243+920966613+921717697+920207341+919258111+916834592
692+908693876+901803861+907561938+921871089+929931858+925620505+912389036
679+903443480+908574487+920524002+926342835+916392480+891992772+879251107
665+892863931+909506278+911877667+900196557+888125717+884960929+888967373
652+891507718+888883177+887365446+888934557+884379677+867735641+847881750
638+840825091+849192395+862825534+875961805+894766267+929487309+962489848
625+945422141+908298457+898558376+910082842+926223197+927386826+910817049
611+904759564+911581196+908396905+899914526+909436833+920191027+909003723
##END=
