##TITLE=Sample description
##JCAMP-DX=4.24
##DATA TYPE=INFRARED SPECTRUM
##DATE=25/8/2023
##SAMPLING PROCEDURE=Instrument type and / or accessory
##ORIGIN=Default
##XUNITS=1/CM
##YUNITS=ABSORBANCE
##RESOLUTION=4
##FIRSTX=4397.6552
##LASTX=599.8556
##DELTAX=-1.9287962
##MAXY=1.9399371
##MINY=0.61304027
##XFACTOR=1
##YFACTOR=1.8067072e-009
##NPOINTS=1970
##FIRSTY=0.73499256
##XYDATA=(X++(Y..Y))
4398+406813318+407476433+407845995+407253481+406310836+406137668+406735031
4384+407392207+407172753+406060667+405594970+406121205+406365007+406114772
4371+405759924+405417644+405310061+405524238+406241391+406925619+406686370
4357+406294011+406845649+407624066+407358194+406209851+405081699+404388992
4344+404340298+404988204+405646204+405537533+404978438+404526300+404244196
4330+404042853+404040313+404610393+405149594+404958314+404742521+405162461
4317+405882781+406093922+405902675+406210181+406833377+407252986+407471847
4303+407040757+405790110+404829221+405033863+405797104+406050374+405455881
4290+404798408+404936870+405419228+405517309+405048676+404170660+403838773
4276+404410107+404620225+403974530+403660721+404085741+404340628+404261879
4263+404659154+405597246+406029425+405698000+405414147+405226166+404831333
4249+404525508+404587630+404749285+404738035+404627153+404185736+403737326
4236+404055159+404547084+404326277+403819572+403821287+404176202+404442075
4222+404892629+405462413+405400060+404479288+403346517+403159889+404141760
4209+404913513+404928358+405006052+405467592+406147730+406715336+406757102
4195+406240302+405543933+404943534+404400011+404185637+404633718+405249095
4182+405172391+404660308+404755520+405350277+405439220+404853502+404341453
4168+404305031+404448178+404383780+404148589+404122625+404219057+404029690
4155+403690776+403507644+403189382+402662817+402353001+402138429+402001979
4141+402259043+403118122+404315390+404700095+404285072+403993829+403751215
4128+403591474+403606716+403434603+403054615+402663048+402256041+402038335
4114+402547712+403622320+404296981+404216220+403957341+404005541+404261351
4101+404147533+403564124+403241772+403092126+402643880+402473252+402920805
4087+403378551+403445325+403434768+403395476+403062665+402678323+402197911
4074+401745938+402299325+403252164+402914866+402134470+402546590+403101561
4060+402448707+401474721+401193408+401573990+402127674+402285106+402386519
4047+402737970+402647938+402251191+402271810+402568199+402905299+403071342
4033+402848753+402730646+402922289+403067548+403319300+403362749+402707618
4020+402194612+402347590+402410240+401906174+401416789+401638223+402229714
4006+402563218+402545997+402411295+402459495+402618114+402912128+403361693
3993+403532321+403188228+402331821+401256817+400596012+400789898+401433449
3979+401836794+402192369+402485789+402500139+402854328+403416722+403257046
3966+402602048+402331359+402463916+402634973+402596703+402098873+401529947
3952+401340514+401351566+401538723+401941672+402144367+402073602+402063969
3939+401927882+401477558+400645795+399406860+398978112+400109761+401254276
3925+401288983+401081405+401310691+401147980+400492322+400599773+401330485
3912+401807334+402173630+402006301+400501922+398801710+398364880+398772481
3898+399932898+401183544+401258895+400159148+399944048+401114429+401748940
3885+400941623+399366050+398126060+398757800+400027911+399994986+398678787
3871+396514197+395336988+396451152+397547501+397960314+398886068+399894067
3858+399880442+397440841+392508723+392846119+397608204+400956766+401622618
3844+400093727+397716842+395678871+394926814+395915151+397255796+398509181
3831+399810139+400153375+399681739+399733534+399149136+397028094+396369104
3817+396819329+398120880+400724346+402367286+401909077+400196989+399190539
3804+398526996+397472744+397876122+399240421+400837966+402732559+403806871
3790+403495108+402387146+401515662+401668442+402104943+401611830+401537799
3777+402906355+403506754+402425547+401079030+400803920+401282187+402233442
3763+403301485+403056034+401486696+400680501+400556489+399196346+397004572
3750+398519870+402828727+406274678+409082654+412263920+415031779+415986630
3736+414499143+413812209+416985063+421150971+423280689+423007427+421716037
3723+419840479+417212336+415214547+414299285+413567847+412968042+414709888
3709+419728013+425495326+430519456+435193587+441497758+449516294+457862462
3696+465666558+470907932+472533189+473048966+475957069+478485844+477250373
3682+472593364+466380742+459419428+450141139+442331765+439042685+435043215
3669+432547695+433409183+433315423+431666941+429886429+427647181+424095528
3655+421294844+419928762+416754787+411775822+411582859+414930563+417529179
3642+418489210+418079597+417125669+416112490+414866363+413377688+410785109
3628+407949718+407370005+406463748+403219932+397518436+392133024+389741953
3615+387738061+385690160+385668946+386499951+386813330+386998243+386368120
3601+384706639+383171282+382180833+381592245+381143967+380096906+377559191
3588+373305329+369926317+368860814+368390663+367295402+366062241+365347133
3574+364802588+363944465+362569245+360292619+357874693+357174299+356791045
3561+355259153+353856418+353625417+353537794+352699399+351814950+351634293
3547+351462576+350704415+350109823+349739139+349042836+348242711+347605956
3534+347103738+346595812+346119194+345932203+345863615+345353149+344275572
3520+343636706+344057305+344577569+344195569+343267737+342481468+342021148
3507+342311335+342802105+342375139+341910233+342023787+342026988+342024282
3493+342097423+341497750+340275310+339523319+339327816+339313564+340233577
3480+341787277+342296060+341694111+341031557+340807682+341127132+341759630
3466+342209031+342082115+341707274+341572903+341198095+340592021+340556919
3453+341046964+341662803+342061067+341714235+341035087+341007705+341582701
3439+341937253+341795392+341696783+341955892+342590404+343385316+343307656
3426+342373292+342488363+344296884+346039687+346511718+346486118+346789765
3412+347573889+348795174+349781367+349845600+349627828+350161255+351188423
3399+351667844+351887068+353191358+355286436+357008191+358658026+360617017
3385+362330623+363666683+365052328+366473867+367696339+369073077+371375601
3372+374667848+377698313+379822027+382183902+385525866+388981747+391688869
3358+394394607+397820631+401313528+404734571+408338646+411886704+415256083
3345+418390403+421610631+425268845+428988520+432314450+435180852+438001167
3331+441121367+443867023+445855013+447735222+449413990+450290489+451018100
3318+452859743+455387957+457033173+457779061+458613826+459351005+459377101
3304+459266483+459473203+459550104+459215710+458482655+457421276+455610282
3291+453220002+451396438+449639119+446694727+443268900+440679389+438738510
3277+436996268+435625766+434213992+432591243+431145522+429887683+429114874
3264+428549710+427243012+425752258+424636049+423378507+422489076+422314918
3250+421903061+420991494+420387367+420163788+419174989+417222662+415756751
3237+415787861+416369620+416122717+415256809+414171182+412945146+412304400
3223+412154325+411687901+411049662+410507261+409870671+409213495+408835223
3210+408859438+408899918+408529993+408063635+407922633+407799775+407569038
3196+407576989+407670913+407767510+408079570+408665387+409221017+409378647
3183+409226527+408552294+407880141+408211698+408660471+407864107+406397668
3169+406327991+407870441+408998362+409032871+409144446+409815907+409866844
3156+408849409+408428249+410012597+411957931+411478971+409429717+408932183
3142+410726781+412182565+411290231+409916594+410866794+413573719+414284340
3129+411940314+410262700+412027178+414494920+413788357+411484117+411556400
3115+414666538+416577330+414433095+412295624+413912105+416884837+416723182
3102+413964627+413262484+416522532+420094277+419010002+415246680+414649086
3088+418213705+420677421+417998869+414053471+413485436+415950109+417592983
3075+415989335+413976305+414740305+417381809+417827548+415015151+412892262
3061+413750319+415984354+416348671+414411321+412822651+412721502+413359774
3047+413627560+413456701+413694168+414460808+414714606+413747745+412527021
3034+412180123+412669475+413353440+413707233+413841010+414351971+416837990
3020+425751994+441769437+452941692+449264245+438221248+429717616+425455506
3007+423321565+421817549+420696589+420005037+419484707+418827432+418522069
2993+419219230+421156942+423319750+423735764+422925775+423132264+425117747
2980+427690135+428320127+426773718+425524721+425688520+426971399+427982994
2966+427301867+426022386+426042577+428101134+430060291+428719150+425672618
2953+424505372+426097276+428838049+429515976+427653615+426125714+426687777
2939+429012504+430511538+429282665+427735795+428314156+430555845+432218414
2926+431018243+428134158+426287632+426227094+427283392+427358314+425653286
2912+424496498+425316714+427232751+428515531+428020670+426777446+426255994
2899+426737857+428019350+428972288+428538130+427524093+427466656+428714894
2885+429760306+429269403+428289017+428286278+429020125+429629761+429815697
2872+429538707+428998747+428780810+429183495+429847335+430128449+429831863
2858+429419973+429324861+429627947+429896557+429462597+428608334+428372780
2845+428991159+429698844+429949805+429972337+430085660+430204625+430397654
2831+431032132+431883591+432384226+432615326+432909867+433267850+433452466
2818+433444417+433746018+434457002+434940350+435146344+435640249+436285218
2804+436488342+436341797+436325500+436494380+436686254+436879646+437156933
2791+437612106+438033959+438080344+438094497+438624263+439350489+439758815
2777+439924429+439920536+439578554+439194541+439450583+440226030+440825209
2764+441219349+441622034+441842413+441778015+441667331+441788869+442166118
2750+442480487+442449080+442401705+442790996+443352367+443591385+443561726
2737+443735686+444268652+444739562+444812472+444735438+444967495+445439989
2723+445831391+446254069+446770869+447166594+447434808+447606129+447546812
2710+447419039+447581023+447981333+448392035+448734215+449013878+449269622
2696+449580296+450124215+450617625+450594267+450535148+450955846+451334679
2683+451322011+451352428+451567495+451783320+451977735+452042034+452013728
2669+452081293+452199466+452365211+452793003+453388882+453716909+453883116
2656+454228794+454490014+454503112+454633623+455002592+455277372+455294923
2642+455293636+455581481+456039096+456261090+456242550+456179768+456347295
2629+456890587+457279152+457315376+457421606+457627931+457839236+458112235
2615+458356696+458473946+458551078+458813849+459395938+460075713+460536462
2602+460772412+460797716+460795769+461190735+461617866+461462315+461140094
2588+461219997+461588207+462025863+462477869+462828198+463052271+463184960
2575+463158271+463165694+463385742+463555578+463502529+463360570+463306366
2561+463469439+463747255+463801887+463720433+464094185+464903251+465391481
2548+465306728+465143951+465314613+465787931+466122029+466118400+466230271
2534+466356758+465997257+465632974+465873806+466503600+467172619+467798883
2521+468169402+468057629+467848303+468006560+468248118+468252341+468336071
2507+468713651+469200924+469694070+470094413+470356525+470698870+471196238
2494+471653556+471926291+471899601+471597868+471370628+471422687+471549701
2480+471699150+472022558+472295622+472359559+472445499+472526030+472573669
2467+472800282+473194819+473607566+473862684+473785221+473555902+473677704
2453+474184640+474478687+474448072+474673695+475125999+475234769+475063415
2440+474938116+475022177+475368646+475630197+475621949+475580347+475660119
2426+475927674+476381957+476808561+477033623+477220945+477452771+477630393
2413+477872743+478252500+478581286+478757292+479018414+479553656+480022355
2399+480141056+480512928+482073226+485452371+491782572+502711421+518925983
2386+539598851+562873833+586883914+610741908+633892316+656510253+680335718
2372+705251924+728977493+750928291+771038535+787576275+798042660+801771143
2359+799128254+788600572+770844747+749898650+729934225+718400326+722507147
2345+738264128+745809445+737273482+725963523+718995677+715844531+717109397
2332+722094895+724428925+721046976+718000412+719102501+719187287+712986872
2318+701824778+690609767+686190853+690080331+693383696+687937581+674130025
2305+656730104+642343757+633616909+626963795+619163327+609718733+598448759
2291+586191570+574974844+565365559+556399858+548236294+541834107+536965331
2278+532600621+528413004+524777093+521783379+519297723+517258004+515405276
2264+513570296+512059716+511043699+510222724+509372189+508369699+507233134
2251+506208870+505348933+504683674+504398205+504408663+504222299+503572875
2237+502953705+502745698+502708221+502699478+502790928+503036116+503302879
2224+503305188+503184079+503389381+503946166+504529311+505071481+505503165
2210+505529425+505507784+505933001+506362343+506581171+507153000+508013102
2197+508434130+508351818+508366499+508762718+509266850+509601277+509923564
2183+510520103+511175200+511361202+511167019+511195490+511481289+511522461
2170+511400956+511704966+512299228+512476488+512079246+511552977+511349490
2156+511591511+512011879+512203918+511990633+511596888+511425336+511521438
2143+511722979+512050511+512507961+513072895+513605234+513973641+514317207
2129+514643948+514874850+515161771+515685070+516301470+516690431+516871418
2116+517056265+517320422+517634329+517876283+517959915+518022235+518301567
2102+518746943+519109709+519409793+519691930+519838079+519908481+519957209
2089+520000822+520166337+520497366+521034687+521727658+522241720+522285202
2075+522137304+522329904+522864486+523469537+524209421+525193337+526032721
2062+526571229+527165063+527795681+528495547+529461418+530433128+531164599
2048+531760016+532408713+533226290+533995602+534377008+534657561+535124216
2035+535738966+536610482+537292072+537304443+537014916+536986742+537279931
2021+537448382+537317870+536977934+536641098+536743105+537173932+537395827
2008+537304872+537169742+537124907+537240606+537459203+537547156+537511625
1994+537416612+537294051+537317540+537518388+537857995+538347842+538780681
1981+538879455+538796120+538837623+538983607+539217346+539629236+540030470
1967+540229833+540563435+541299162+542083518+542492471+542545289+542670390
1954+543188147+543817281+544051152+543968181+543921565+543932683+544289379
1940+545246936+546331804+547234497+547904836+548293137+548486034+548591506
1927+548621395+548596718+548787768+549122261+549182238+549563843+550636009
1913+551324163+551233604+551044402+551166237+551621245+552402005+553297605
1900+554010997+554394614+554572830+554803303+554964562+554998476+555389615
1886+555986352+556315270+556626372+556960635+556963010+556791920+557025759
1873+557396773+556666423+555292820+555952503+558226160+559792430+560081165
1859+559780883+559813940+560322855+560763612+560993029+561117471+560887063
1846+560138701+559681449+560382568+561284998+561734860+562209135+562618946
1832+561893677+560369768+560306624+561591152+562693967+563483172+564148266
1819+564844305+565376380+565216507+564296064+563422073+563839142+565180877
1805+566225364+566511328+565935969+565414583+565797210+565903902+564885873
1792+564503378+566300385+568323444+569385615+569646638+569434507+569365491
1778+569477395+568625244+566265085+564204020+565412802+568438120+570960462
1765+572095740+571657821+571186119+571791697+572548571+573181796+573264800
1751+571682959+569459316+569568186+571280406+572201508+571633143+571145342
1738+571678209+571023936+569041521+570482492+573993104+576403937+577483923
1724+577747915+577401578+575552446+571499465+569324450+572555235+576239313
1711+577903763+577463403+575465152+573930092+573579466+571976115+569542123
1697+569688932+572118701+575083515+576630914+576403607+574737970+570991539
1684+568184223+571575476+575207824+576119227+574871648+573210762+572143115
1670+571488050+573173746+575775265+576002902+574589050+574662619+575711527
1657+575212113+571557793+567298553+568758461+569299773+568003500+570810552
1643+575556405+577759396+577163583+574258944+572743942+577060255+581555576
1630+583738179+584994665+586340094+588111764+591452079+594531172+595100131
1616+595980324+600343154+604799942+607402517+608810431+610276738+611919084
1603+613578190+615462160+617118758+617872729+618404738+619869066+621736805
1589+623105261+624383587+626388436+628885440+630601950+630343632+627805851
1576+626423142+629308910+631720468+632318657+634147269+637188555+639428430
1562+639711358+635737423+631074839+636722462+644138323+650004014+654243656
1549+657174423+658957838+659134800+657231168+655285570+661348876+670005520
1535+674627195+677677983+682017587+685908716+688438513+690617817+691660193
1522+692577930+697496852+705292173+713570676+720477820+724908545+726511632
1508+725383414+728738310+739871174+749054944+755168660+759205013+763254497
1495+768629616+773129093+775830575+779882896+788188913+796814282+802900549
1481+807326326+811177865+814456289+817414372+820839539+827266799+835953332
1468+842540927+846122140+850359077+856248851+859027531+856155092+857523153
1454+868145518+877228204+882245307+884716182+887849645+892864966+897354481
1441+900192412+900862190+899847856+902426150+908117716+912493017+916418983
1427+920349436+921149924+919673654+917678241+912214443+906311538+905547604
1414+906584306+905979255+902485402+897550710+893060074+891049155+890691403
1400+887280884+881227937+876768312+874695437+875234770+876204830+873545973
1387+867754511+865289309+867231212+868971870+867957536+865472738+863591209
1373+864198635+866543948+867133493+865983369+865337014+864416968+863293830
1360+864772080+867694402+868149740+866125691+865062201+865739633+866715104
1346+867342588+868475161+869531921+867771072+865188490+867182385+872478788
1333+876268634+877008419+877021945+877688161+878258241+878518736+878315579
1319+878152143+878963650+880012294+881502619+884456281+888624532+893404563
1306+897128362+899403075+902682752+907690354+912434821+915712057+917964600
1292+919126997+919660260+921776551+926028466+930173689+931952881+932097974
1279+933367854+935711056+937357295+938639580+939676743+939087133+938006553
1265+939376264+942515664+943766872+942660824+942924024+945350890+946352028
1252+946014466+947357652+949561831+951060799+952809177+954812970+955013026
1238+952998280+951092800+951035066+953013126+955014412+954323915+952628322
1225+952001168+951038299+949809393+949590401+950476863+951469093+951839117
1211+953097649+954668932+954727986+954817985+955127570+955203119+955646119
1198+954545019+952173247+951417891+951367085+950181925+948741483+947852646
1184+947779076+948646337+949734175+951522142+954359281+955560277+953447680
1171+950423945+949323638+950720532+953185074+954485570+954191226+953775873
1157+954739071+957497956+960285609+962026532+963248509+964476755+967115225
1144+969987202+970652296+970517034+971385483+973046171+974227571+974408426
1130+974905135+976733351+980079076+982947094+981287395+976341750+974583343
1117+977426948+981088131+983222369+980853963+974269469+972645928+980247329
1103+989349215+993023330+992720541+993739758+998187374+1001748924+1001439669
1090+1000107370+1000615824+1003879996+1009400933+1014459670+1018221145
1078+1023539915+1028744670+1029439983+1027888559+1026910317+1025992250
1067+1026087066+1027444834+1028401038+1028885606+1030398958+1031154645
1055+1029035648+1029594578+1035676952+1040262470+1041428165+1042751623
1043+1043199175+1042869004+1042997074+1042690128+1042616888+1042555855
1032+1043062198+1047637290+1053304641+1053027651+1049396753+1048602138
1020+1049147805+1048160590+1047503546+1048601742+1049984979+1049937340
1009+1048471297+1046487496+1045179677+1045783803+1046774582+1046063037
997+1045232462+1045557685+1045221311+1043864269+1044332870+1046795564
986+1047177399+1045049627+1044687059+1046477797+1046981500+1046551828
974+1047230184+1047162223+1046455429+1048474662+1050498381+1048837626
962+1047423378+1049017888+1051203723+1052291231+1053606704+1055185444
951+1054431803+1053371084+1056943984+1063908267+1067153106+1063603960
939+1059259077+1057992562+1057625639+1058209113+1060922273+1062824059
928+1060247678+1056458888+1056509099+1057532803+1057419974+1060433614
916+1066877238+1071702136+1071908197+1069767756+1068642375+1067641172
905+1065745655+1063875342+1062170314+1063499116+1069117772+1073196882
893+1073741823+1073296382+1070353144+1065324429+1061997112+1061918264
881+1063348348+1063688285+1063773731+1063928655+1060905382+1055898045
870+1053112371+1050571752+1046553742+1044856103+1045819697+1046239802
858+1043568936+1037381255+1030338453+1023363283+1017913803+1017604350
847+1021451468+1023243130+1018802376+1011857557+1007939509+1006065633
835+1002252363+996051684+988926802+983784928+983744613+984011838+979775495
822+976262045+977005722+980638665+983790932+979897956+970809530+965844157
808+965525466+965820601+965108726+961621999+957748686+955732027+953829186
795+952861963+951687294+946588176+940382284+937134739+936579043+937768096
781+937082284+931900623+927272482+926576179+926551040+925424009+923868297
768+920491165+916013395+913764151+912822661+909899283+905072339+901745089
754+901151849+900414836+899110051+899024803+899344022+898856352+897606728
741+894948597+891408424+890111161+891432441+893575851+896482931+898087931
727+895271972+890156623+887262145+886908748+888183577+891446825+892773978
714+889403378+887031804+889134569+891602608+891683039+890648779+889133381
700+886483168+882680389+881620132+887783399+897669081+903679205+901616755
687+891491891+880822547+877441390+880785004+886241543+887724016+882731524
673+879550027+882989380+885062915+880297136+876957745+875372341+872368665
660+869195284+867614234+869845861+875206728+878500393+880031297+882273943
646+879562366+870995193+864571299+860384177+855643735+854749949+856077036
633+855854612+861880242+871129994+862389620+837378665+822354013+822178040
619+824600485+832176616+844603179+844119931+834329065+830754648+829131964
606+822690518+821037813+827755062+828393169
##END=
