##TITLE=Sample description
##JCAMP-DX=4.24
##DATA TYPE=INFRARED SPECTRUM
##DATE=25/8/2023
##SAMPLING PROCEDURE=Instrument type and / or accessory
##ORIGIN=Default
##XUNITS=1/CM
##YUNITS=ABSORBANCE
##RESOLUTION=4
##FIRSTX=4397.6552
##LASTX=599.8556
##DELTAX=-1.9287962
##MAXY=1.7942244
##MINY=0.29635963
##XFACTOR=1
##YFACTOR=1.6710017e-009
##NPOINTS=1970
##FIRSTY=0.43314815
##XYDATA=(X++(Y..Y))
4398+259214669+259778541+260490461+260273551+259450412+259149500+259290200
4384+259149268+258940189+259037835+259034125+258884936+258704196+258155002
4371+257502937+257269780+257449360+257937094+258409294+258402071+258071642
4357+257655373+257084813+256651155+256530269+256616805+256866798+256970277
4344+256979836+257160737+256996619+256422956+256247602+256447229+256440773
4330+256263261+256267667+256531411+256528397+256013179+255620577+255433220
4317+254899936+254238970+254093169+254454453+254805375+254925493+254873165
4303+254753528+254873148+255063429+254936587+254686005+254302641+253954645
4290+254075941+254144017+253692310+253098261+252877660+253269816+253784196
4276+253912144+253848063+253630226+253130650+252635497+252374285+252273963
4263+252298593+252438937+252303516+251672674+251188043+251069726+250853138
4249+250669705+250844737+251225639+251508859+251477167+251119717+250904092
4236+251259383+251625643+251172634+250275587+250068629+250616717+251068727
4222+251102310+250891626+250793194+250946522+250997227+250739154+250305781
4209+249797733+249216348+248811422+248812135+249017755+249302598+249610180
4195+249662259+249388866+249074221+248883743+248785472+248722800+248652780
4182+248737228+248902059+248826332+248727954+248653600+248098396+247297765
4168+246982995+246946112+246694532+246729292+247423734+247972481+247751755
4155+247138017+246570721+246072197+245628801+245487851+245761297+245963885
4141+245829748+245887783+246255470+246243377+245706455+245279538+245137286
4128+244805270+244266028+244118872+244579300+245091165+244977823+244315984
4114+243803228+243745960+243820403+243730372+243667896+243857161+244019763
4101+243748314+243044741+242477463+242274304+241930410+241636239+241832085
4087+241984378+241867024+241963208+242255185+242281313+241935029+241439644
4074+240985565+240711726+240614418+240515095+240315218+240221210+240373521
4060+240439885+240129324+239605064+239270818+239357033+239621900+239662261
4047+239397785+239077076+238802061+238606286+238829491+239418421+239852810
4033+240035654+239943644+239353412+238619769+238377784+238509745+238446377
4020+238135192+237744017+237216226+236821091+236782906+236723016+236590984
4006+236714616+236921466+236931008+236748503+236445450+236187770+236085682
3993+236084702+236130930+236130341+235910079+235493614+235286460+235418279
3979+235342284+234908751+234670368+234687258+234637034+234639228+234702043
3966+234520964+234069810+233741895+233791405+233936689+233907279+233492187
3952+232445576+231197197+230817864+231196412+231266129+231453718+232324619
3939+232841459+232227846+230479035+228582692+228516542+229970291+230552854
3925+229801037+229125911+228751857+228154938+228177392+229439718+230799441
3912+231427679+231104116+229044940+225146886+221779155+221190743+222908147
3898+226031431+228171150+227396914+225319136+225416979+226086666+224785762
3885+223396933+223203798+223950407+226041365+226693252+224599833+221743824
3871+219963498+220598977+221899078+221487892+221897990+224213526+225043460
3858+222760723+217408919+212692078+216820061+223217049+226299919+226008994
3844+223241198+219295506+215492905+214417525+217149670+219975733+221741345
3831+223443536+224244256+223552169+221612166+217848891+214824627+216052763
3817+218266676+221250544+224739267+225956541+224218021+221475425+219878853
3804+217732928+215845021+217428752+219983580+222700761+225348332+226508731
3790+226535073+225862283+224716438+224151461+223806460+222880627+223351561
3777+225519120+226343169+224477128+221512665+220371884+220951129+221934498
3763+222457510+221301605+219719052+219487767+218561489+214762222+209989647
3750+210274810+212849240+213703786+215214268+217504675+217570790+214369175
3736+209729594+209861234+215315393+219728593+220769444+219825741+219289014
3723+220379660+222787029+225279846+226223068+224815119+222227706+224290039
3709+234189233+246939513+260071195+274359406+290969039+306595000+318176588
3696+325980936+329942554+330135351+329321825+331242762+334220637+335196461
3682+332134940+323835991+311951601+300346363+295474732+294426675+291005351
3669+288615853+288166018+285624262+280973660+275660113+269935469+263841818
3655+258963321+254274123+246157288+237590939+238115163+242145910+243279770
3642+242091050+240599936+239066786+236659042+233337665+229144852+223799362
3628+221685058+224567747+226322837+224593983+220136640+216790954+216298119
3615+216033145+215605765+215137738+214447738+215139736+216523322+216006000
3601+213934928+212398781+211481616+210759191+210872533+210765665+208495894
3588+205694157+206157118+208093928+209014446+208877366+208263931+207633732
3574+206999019+205692213+202491561+197403163+194922563+197386826+200131366
3561+201135459+201387324+201392835+200754342+199893750+199428060+198472942
3547+197006833+196831694+198223323+199528614+199825406+199562536+199606999
3534+199712689+198993867+197799136+197203536+197227916+197514721+198279771
3520+199342934+200002276+200077361+199706340+198894437+198121325+197910747
3507+197872188+197697975+197996837+198811754+199272646+199367439+199594229
3493+199704752+199353884+198908723+198849029+199101305+199231786+199278103
3480+199669082+200122823+200298480+200519509+200885002+201210883+201531734
3466+201736427+201616683+201545985+201886116+202325749+202775904+203254025
3453+203280831+202713375+202128619+202319132+203353527+204287457+204611822
3439+204767165+205128449+205525367+205761556+206060684+206540624+206977956
3426+207318534+207630753+208138337+209076387+210065731+210782948+211477229
3412+212172687+212700264+213256984+214085116+215107651+216043703+216825090
3399+217810046+219151916+220518345+221690729+222754124+224009512+225601857
3385+227335847+229311234+231738989+234329541+236640726+238615346+240687167
3372+243261079+246276265+249475152+252811778+256364885+259991491+263585262
3358+267490985+272054214+276955095+281637354+286116366+290521505+294696983
3345+298810841+303148171+307520030+311545783+315227391+319010410+323049824
3331+326906145+329928750+331939147+333517759+335010478+336335690+337684658
3318+339069975+340214625+341444777+343025957+344437098+345490969+346157891
3304+345995699+345171472+344489569+344226288+343544884+341325782+337722433
3291+333872105+330360321+327297088+324638602+321759640+318161892+314432664
3277+311424754+309114872+307121382+305235045+303291279+301353363+299486894
3264+297766530+296280089+294879239+293717841+293024737+292328155+291098467
3250+289559503+288057831+286737220+285972152+285634892+285003907+284067855
3237+283164922+282033684+280675673+279574076+278678777+277866731+277193049
3223+276340269+275386435+274734726+274031135+273102859+272599733+272400213
3210+271800814+271058361+270697184+270480863+269891898+269134570+268822993
3196+268696810+268113944+267359506+267074627+267093086+266887146+266357981
3183+265773688+265341849+264891997+264486072+264367773+264215462+263766965
3169+263376789+263391984+263449912+263095798+262487250+261779022+261184421
3156+261123978+261453176+261551233+261259649+260915433+260540399+260182450
3142+260192545+260342073+260214607+259957604+259797482+259737467+259627211
3129+259198457+258503445+258109702+258235724+258380169+258152256+257646794
3115+257200188+257090199+257260934+257412139+257179838+256396239+255488527
3102+255124211+255388918+255798624+255825091+255333612+254729273+254371556
3088+254211166+253970482+253371797+252550745+251934581+251581376+251235413
3075+250773023+250205067+249595984+248900508+248049635+247389919+247140710
3061+246883422+246296437+245553555+245078038+245013814+244933539+244518411
3047+244027503+243720188+243460510+243156317+242829401+242305765+241514801
3034+240705109+240143342+239783913+239319900+238670777+238140097+237964422
3020+237909775+237745765+237588014+237224251+236490947+235929269+235714982
3007+235508363+235377758+235535918+235889783+236082329+235903302+235733584
2993+236036868+236710389+237308076+237616675+237816070+238147730+238541563
2980+238611208+238291641+238004693+237789639+237354358+236914457+236746862
2966+236503539+235863012+235054427+234433323+234111258+233825987+233288048
2953+232704041+232341794+232126918+232036459+232020782+231811755+231390618
2939+230978718+230556064+230075411+229661799+229223932+228637535+228062106
2926+227566703+226998783+226272827+225569415+225136720+224852287+224295300
2912+223447335+222833026+222657779+222698443+222756460+222695910+222622804
2899+222548450+222221767+221762979+221432871+221185374+221046975+221062830
2885+220926874+220540104+220326994+220364233+220113616+219449279+218887067
2872+218527424+218068190+217571325+217252453+217128589+216992115+216690365
2858+216446293+216347344+216010138+215211593+214143562+213197361+212883893
2845+213225237+213613434+213730949+213698257+213646482+213650032+213642648
2831+213572735+213551208+213529734+213380027+213307278+213451100+213431606
2818+213103692+212970500+213152827+213178635+213001087+212951773+212948706
2804+212757104+212607326+212730441+212864935+212772549+212570746+212429279
2791+212330473+212136838+211877339+211750746+211741954+211684097+211626900
2777+211633784+211540900+211271163+211007365+210827196+210637182+210502653
2764+210494413+210570443+210715638+210831851+210778364+210528727+210249378
2750+210099778+209988897+209893783+209907855+209971259+210016256+210006411
2737+209888058+209696314+209522066+209423813+209423118+209505658+209571630
2723+209573128+209618607+209674395+209619410+209558075+209532375+209414432
2710+209272519+209271556+209341951+209314699+209262834+209366920+209480689
2696+209384701+209210738+209055164+208824218+208611785+208551289+208520738
2683+208380519+208182283+207994284+207815292+207650229+207514130+207430056
2669+207381901+207244786+206929409+206601816+206477863+206510875+206523556
2656+206448292+206345474+206226514+206026851+205789877+205649819+205616914
2642+205550639+205403357+205215180+205021474+204902889+204827358+204688298
2629+204515763+204418348+204385086+204287903+204154015+204096604+204133451
2615+204268676+204403349+204403670+204323216+204275507+204322699+204457567
2602+204543835+204486388+204326426+204168658+204149806+204227620+204235860
2588+204152499+203976610+203749821+203606766+203477962+203265333+203124044
2575+203127022+203159660+203121529+202955735+202700177+202443799+202237198
2561+202084067+201978912+201952837+201955173+201890717+201764660+201575430
2548+201324064+201069451+200845675+200773943+200928055+201034869+200943037
2534+200881631+200893723+200841680+200777920+200806082+200869325+200861227
2521+200838898+200866293+200869021+200823471+200777581+200766934+200772873
2507+200765703+200821241+200941360+200985038+200996345+201115501+201233694
2494+201252902+201290659+201375179+201421586+201410225+201330092+201149031
2480+200885982+200651506+200575743+200638968+200729516+200825165+200913591
2467+200948227+200912182+200807330+200666166+200516548+200386085+200340428
2453+200359547+200328906+200282963+200331849+200380752+200312320+200195108
2440+200154836+200189757+200164253+200047256+199931453+199866373+199844115
2426+199842528+199864590+199908232+199972456+200069139+200156192+200182855
2413+200174080+200192861+200292915+200480022+200671196+200809756+200887516
2399+200878028+200877939+201006832+201141754+201123152+201053863+201018746
2386+200745318+199971279+198724665+197018587+194834815+192350952+189783139
2372+187198776+184657091+182275922+180159728+178550671+177648719+177354478
2359+177823663+179347379+181722609+184914272+188300765+189946098+188931446
2345+186534779+184891943+184548601+184906425+185539889+186086763+186375512
2332+186673321+187434929+188588569+189608606+190307738+191029467+192163827
2318+193668656+195117785+196215958+197094136+197976077+198864510+199709407
2305+200495681+201124954+201524101+201827082+202213067+202622809+202897165
2291+203083558+203353776+203726332+204044811+204208430+204254159+204230759
2278+204169104+204144331+204168800+204137892+204084334+204110373+204153159
2264+204190577+204253089+204260330+204202669+204201224+204309804+204440856
2251+204479237+204466984+204547562+204680487+204695129+204589278+204539180
2237+204630442+204718047+204698964+204688281+204752629+204806366+204816265
2224+204811182+204768039+204719670+204746120+204764686+204698714+204668466
2210+204718529+204765363+204813875+204881345+204911842+204870822+204798483
2197+204783377+204810968+204773871+204722720+204764650+204835134+204834652
2183+204768734+204728748+204780095+204905618+205045302+205062388+204930783
2170+204885197+205018763+205173571+205320014+205401752+205264048+205081079
2156+205096774+205228699+205341202+205431269+205502770+205497152+205422441
2143+205385326+205446518+205541525+205557701+205565602+205689235+205794889
2129+205763589+205714756+205728329+205777785+205844060+205910210+205998797
2116+206118077+206214672+206251537+206235824+206218934+206247863+206370871
2102+206604937+206820776+206902675+206927822+207010523+207147460+207325079
2089+207565816+207809674+208031524+208318560+208628907+208832779+208981576
2075+209201928+209487484+209765817+209957437+209990645+210023497+210320272
2062+210815764+211318996+211744611+212051676+212316134+212596090+212897822
2048+213234405+213553259+213835016+214191912+214768197+215447978+215962982
2035+216282960+216507538+216667411+216759083+216813373+216850969+216839269
2021+216662649+216239639+215983135+216323017+216825590+217021953+217052861
2008+217107294+217229553+217405638+217565190+217722245+217894406+217822727
1994+217310452+216926054+217309846+218095603+218805222+219374051+219827934
1981+220263091+220702527+221192526+221796241+222386205+222695286+222687831
1967+223023949+224204930+225516712+226317379+226791451+227106418+227359050
1954+227766134+228271382+228571777+228465980+227860678+227016386+227115692
1940+228490895+229688052+230175215+230435464+230744152+231193594+231742270
1927+231971789+231570394+231416710+232006121+232627047+233713074+235344763
1913+236211794+236089178+236047337+236745988+237601230+238109617+238359253
1900+238313667+237802391+237158761+236855566+236379122+235769914+236141702
1886+236984513+237382715+237518119+237503993+237451969+237477348+237330869
1873+236254901+233756895+231817463+233234258+235887286+237139624+237340821
1859+237473121+237822669+238210135+238390340+238117732+237153357+235505492
1846+233783005+233983916+236431753+238256363+238733592+238937072+238861309
1832+237380825+235434972+235553522+236840603+238197436+239930089+241143886
1819+241478060+241567574+241406132+240552745+239933852+240701970+241904139
1805+242142878+241073937+239779330+239881257+240627955+240112666+238549392
1792+238953177+242112987+244326988+244611582+244137295+243545976+243473316
1778+243959783+243233988+240559700+238544274+240347660+243701122+246168952
1765+246813991+246114930+246073285+246456827+246644843+246943847+245620579
1751+242253705+240333089+241806884+243845408+244749981+244981319+245597661
1738+245740484+243607328+241717424+244332125+248193582+251310998+252793925
1724+252587913+251473261+248537815+243664810+242399880+247337805+252008043
1711+253915479+253129045+250868654+249397676+248416412+246263299+244734322
1697+246374019+251677917+256727257+257818723+256515448+254006527+250005101
1684+249142083+254319121+258374302+259794325+259781662+259908790+259522270
1670+259384387+263381818+267783747+268942095+269903740+273095832+275195636
1657+273493463+268408543+267445345+272706600+273121550+272990676+278903712
1643+284541624+286153338+284421719+280595843+280669003+287282953+291830327
1630+293234816+293957436+294750131+296007998+299330339+302048072+302232843
1616+303967689+308504558+311321847+312005926+312180388+312872814+313618888
1603+314124296+314742565+315163114+314942174+314633557+314910856+315501551
1589+316189697+317024839+317779474+318340135+318453601+317122575+314490164
1576+314973564+318563928+319316423+318942459+321602621+324997015+326392675
1562+324664320+319116243+318531718+328119853+335373420+340473696+344489248
1549+348189084+349973726+348503551+345442564+346349867+360151342+372532831
1535+377909371+384185224+393489496+400279817+405031562+410332517+415321361
1522+422577033+433598352+444185496+456146399+468115186+476281941+480004463
1508+482866446+499759121+522410540+535170879+543878213+552999891+566442633
1495+581983057+592633658+599642815+609955871+625473538+640125208+651811559
1481+662172484+671315777+678415108+684316996+692252788+707036509+723501500
1468+736170916+746878411+758041982+767779895+773702186+777331752+787646592
1454+803476371+815609311+823270230+829366876+837690544+845982252+850894797
1441+853796909+855848648+858733210+864683610+870203686+873285076+876962368
1427+882043561+884259025+882284333+877024505+868059990+859977951+856294380
1414+852427323+847703687+844414698+840993159+834936820+828760843+825080340
1400+820972938+815306972+810190822+806289950+805253165+805123041+801996208
1387+798094979+797810261+799509010+800548719+800218843+798794611+796911092
1373+796486191+798319843+800035357+800740339+800949579+800402258+800393697
1360+801543484+802473473+803419870+804924431+806795679+808397334+809436758
1346+811152771+814236086+816858760+817711059+818607375+820861149+824501273
1333+829449631+833071064+833690866+833601762+833994561+833638931+833185422
1319+834307886+836532196+839034448+841741373+843748525+844198252+844660464
1306+847139601+850740132+853928460+856853971+860306685+864914894+870266822
1292+874455623+876705901+878098458+878285654+877092849+876257457+876227067
1279+875846182+874938666+874320505+873538689+871853852+869951785+868406346
1265+866290615+862687159+859316058+858247884+858868542+859193853+858038216
1252+856362225+855507571+855667016+856710721+857696497+857266816+855664091
1238+854322043+854215960+854936922+854606475+852579919+850204868+847802136
1225+845331274+843846118+842908210+840714148+837588100+835130222+833373688
1211+831219505+828430967+825735455+823222004+820193192+816072022+811854186
1198+809558964+809330961+809480418+808839214+807753205+806668908+805640756
1184+805279775+806611836+809758644+812463216+813432441+814380907+816127524
1171+817995563+819653933+821466112+823654110+826195527+829371085+832936303
1157+835995006+838115374+840240451+843170028+846610329+850053270+852723099
1144+854835120+857457008+860733655+863690485+865860577+868312462+870972375
1130+873215305+876026030+879176477+881683365+884846368+889282861+892624998
1117+893878442+894526281+895323505+897784237+902887331+907088687+908124687
1103+908748769+910960167+914430003+918993053+925115240+930934944+934088744
1090+937121051+942520920+948878671+954307646+957802166+960433186+964572547
1076+969589178+973963961+980246449+988761522+994401593+996837783+1000557309
1063+1005036178+1007366214+1008150170+1007433702+1007066443+1010920231
1051+1015076215+1016080397+1017993665+1020138503+1019514420+1018784612
1040+1020472660+1024441590+1029127060+1030938882+1029726744+1030188243
1028+1033550355+1038564345+1043273215+1042661545+1039543987+1040778668
1016+1043309741+1044381767+1044683892+1042452020+1040789013+1043258733
1005+1046275417+1045668955+1042297497+1039952337+1040025532+1039762715
993+1037995908+1038276274+1041174249+1041949215+1039723906+1037237492
982+1035388502+1036067730+1040324660+1044989727+1048353480+1051038005
970+1051676141+1049939226+1048799284+1050090110+1052025351+1052828354
959+1052466945+1052462665+1055757789+1061274655+1063502533+1060338104
947+1056634986+1057010805+1058774830+1058815494+1060097831+1063968883
935+1066633004+1066916581+1067444426+1067967705+1067428873+1067580614
924+1068387826+1066639425+1063906175+1064513992+1067209931+1070806110
912+1073741823+1072646825+1070123386+1068786759+1068562252+1070048479
901+1071009215+1069253965+1067326144+1067785288+1068949700+1068483065
889+1066431683+1064392428+1063535635+1062862399+1061880190+1062736698
878+1064002698+1059977052+1053676159+1052620755+1053004707+1046882306
866+1037426258+1031929724+1029862361+1027616221+1022308595+1012515679
854+1002743024+996394048+991612983+987052929+982393498+977054411+971510293
841+967054752+964145435+960998413+955239276+948751044+944952972+943543365
827+942623578+939988135+936243212+935535733+937214863+936343944+931702705
814+925110032+919235253+918069699+921132897+922503981+920982370+918980640
800+915892045+912823212+911426160+909963404+906834075+901569895+896195708
787+894373470+895722867+897146528+897049934+894783105+891288942+888385903
773+884880325+879204086+873411847+870274669+870084691+870946550+871048709
760+868322450+861852338+855252602+851758082+851245433+852241625+851823145
746+849094817+847464840+848913970+851199633+852642342+854092399+855152084
733+854770129+854834050+855925481+854848318+851880573+851357865+854222167
719+856827076+856896775+855838945+854751153+852906799+849164944+844557663
706+840713863+837206788+834418106+833415636+833972517+834136171+830659058
692+824491214+820373968+819180092+819244156+821253376+825364559+829181535
679+830328825+829381715+828144322+825369695+819147490+810485813+807888894
665+815037449+820945116+820603040+817750082+817167947+815503157+809004010
652+802379304+800192376+802749916+805585325+802761544+798434201+798375203
638+797227199+790513961+784495075+785219961+790856036+795270200+794553518
625+790030632+785402520+782781773+780069140+774904694+770392580+769191785
611+766790123+761044612+760270858+767125065+773905505+777116448+775804933
##END=
