##TITLE=Sample description
##JCAMP-DX=4.24
##DATA TYPE=INFRARED SPECTRUM
##DATE=25/8/2023
##SAMPLING PROCEDURE=Instrument type and / or accessory
##ORIGIN=Default
##XUNITS=1/CM
##YUNITS=ABSORBANCE
##RESOLUTION=4
##FIRSTX=4397.6552
##LASTX=599.8556
##DELTAX=-1.9287962
##MAXY=2.0908096
##MINY=1.2907629
##XFACTOR=1
##YFACTOR=1.9472182e-009
##NPOINTS=1970
##FIRSTY=1.3787062
##XYDATA=(X++(Y..Y))
4398+708038904+705825913+705247564+702603949+701688828+705732919+709753073
4384+709257678+704287875+699318072+699018398+702296991+704738763+704644238
4371+703552558+703251476+705410717+709193152+709912980+707735864+707859590
4357+711005579+713319339+710807715+705422165+703533090+705877950+708393615
4344+709358263+710626503+713187165+715551125+717230582+718112828+717248458
4330+713629114+707884813+704116825+703609370+702626172+700514684+700153974
4317+703297698+709257127+713197878+710862446+704713846+700094039+699622888
4303+701692807+703902738+706199846+708845298+710666786+709847474+706746360
4290+705581889+708945271+712447746+711532869+709425422+710502532+712602572
4276+712267146+712261330+715246616+716839874+713219122+708609355+708343720
4263+710409905+711102919+712667710+716006482+716238262+712933529+710440087
4249+708573051+706901615+707067828+708195506+710006464+712576063+713899340
4236+713449555+713235529+713660153+712771050+710923544+709547924+708749305
4222+708056230+706735953+706744707+709224007+710164657+707619300+706219682
4209+708645965+711069615+710992906+710333013+711047209+712256310+711738447
4195+710865691+710544223+710238182+711514503+713207612+713605911+713508020
4182+713455922+714563826+715781865+714275968+712424788+714078104+717051758
4168+718451131+718996053+719430840+719970191+718866511+715642650+714508176
4155+716381579+718577306+719883013+718542962+715280042+713495715+713245446
4141+713909625+715449071+716386905+716481796+717576783+720290863+721159089
4128+718468395+716164002+716194061+716392598+715019427+712929917+711955167
4114+711873438+712015469+713283097+714798361+715177559+716709720+719761736
4101+720849192+719348498+717441057+716624930+717003087+718141663+719227711
4087+719253485+719166368+719134289+717256417+715193109+715058302+714965859
4074+715017529+716917501+719101413+719316113+718180354+719218528+723393569
4060+726550088+725910764+722998269+720087305+718849920+719436717+719559953
4047+718175762+716527650+715122032+715121543+717230398+718547247+717690469
4033+717480973+718429398+718750927+718268450+718242431+720886536+724118356
4020+723002004+719841873+719099883+719351070+719041846+719990332+721760027
4006+720708446+717073307+714944555+714826032+715289409+718014753+721393869
3993+720445321+717771953+718682422+721676401+724020281+726091364+726776664
3979+724280590+720820908+719697638+719964252+719293523+718664178+719029786
3966+719086476+718237166+718971137+722710289+726011839+726735279+725470590
3952+723647633+723217805+722939498+721485516+719240200+717508032+719668497
3939+723699058+725167672+725527403+725705982+723524091+722268952+724046545
3925+724699214+723646164+724728416+727207900+727444884+725517240+724246307
3912+724282304+725065189+726067549+725647701+721668564+717060390+716182490
3898+718515596+722654823+726564475+727737700+728298417+729852862+727440415
3885+722702575+722173387+722712554+723752993+726226661+727274814+727471331
3871+725786058+720892597+718311794+718436744+720359368+723378815+725757224
3858+728144754+728692798+725016580+725721042+729688608+731432652+730994315
3844+728226667+723894351+718133275+712007266+711712367+716483021+722460755
3831+728424347+730983601+728337353+724473924+721651912+720115650+722621336
3817+724650973+723033349+722933437+725635518+727968868+726768889+723614084
3804+722007970+721649464+722700249+723995426+725135470+727150414+729241394
3790+730297199+731056147+731843869+731575969+730624973+729511253+729222783
3777+731317435+735014346+737224644+734904884+732713564+734759302+735291858
3763+732759051+729318225+725986371+726440503+729026449+726808682+718765681
3750+716076396+720779278+724168006+724257571+727142700+732597185+735472702
3736+732738910+727996785+725772284+725484732+726559087+728475956+730565956
3723+731668840+730534550+729287064+729889349+730994988+730115375+727853774
3709+729596961+734535297+738636690+739038601+736180960+733780512+731868051
3696+731645393+735482191+739553893+736510509+729677160+728419572+732301858
3682+737257397+738164437+734156098+730276017+732412667+735542616+732678669
3669+728486976+728802138+730214123+731376574+732331978+731229094+726523947
3655+723072836+723362591+720188013+711697919+710641135+715908407+720258967
3642+722417778+722203385+719901318+716978783+714672124+712290287+705395167
3628+696044500+695806475+700233193+703550476+702792508+696726433+693772675
3615+697217971+700907229+700819010+697416875+693227876+692095362+693035828
3601+692329284+688972820+684768944+681772639+682134757+684204554+683069346
3588+679424656+680630206+684497922+685265930+682614479+678594631+675542432
3574+674823399+676321460+678038261+675712930+671123489+672462316+676585442
3561+678361015+678370626+677931126+677498421+678320671+679275462+676802285
3547+672207578+670589464+672180151+673272567+672068363+669275126+666868311
3534+665657740+665001152+664780759+665506465+666478154+666422565+665781405
3520+666143585+667813368+669370507+669599042+668676146+667268630+666127422
3507+665759427+665501996+665278236+665560522+664825818+663220009+663090957
3493+664300425+665172569+665372821+666429116+668135632+667574181+665736286
3480+664929096+663688283+662875339+665353353+669118891+669673486+667446414
3466+665963352+665739653+666161094+667614953+669528884+670449025+669516089
3453+668266888+668291805+668354005+667816797+668378187+670867098+672915346
3439+672421482+672005551+672681240+671938882+670904259+671040107+671335740
3426+672102953+671955840+669007287+666675956+668311640+672301796+675975076
3412+677347574+676476286+676585748+678841533+681321996+683735729+685087779
3399+682729451+678768987+677866477+679435064+680069673+681295488+686999445
3385+694432079+696721045+694138038+693199408+696486388+700367204+702159735
3372+702810384+703369693+704735028+706877433+708390615+709952835+714716938
3358+721917731+726903758+729324592+731209749+733550936+737272579+740134506
3345+740401855+741302222+744701357+748040680+750113599+753242079+757236888
3331+758617651+758857879+761675727+764664992+766095344+767461720+768538891
3318+769554719+769658365+768124062+766965652+766368141+764945565+763740627
3304+765455959+769712362+773156494+775554983+778718726+779590135+773980090
3291+766383630+763992977+764902405+763994569+762447471+761842247+760426527
3277+756758941+753036747+754555806+760483768+764460884+764401745+762314745
3264+759803488+756747677+753719047+751503851+750381867+750912831+751406695
3250+749935571+746549904+743146912+742615030+744369298+745414023+745183467
3237+744420295+743418914+743535967+744541144+744351912+744831940+746991241
3223+747288833+745978413+745687310+745387208+744669645+744861326+745402146
3210+745014683+743715221+742037172+740207664+739686006+742424574+746173338
3196+746323022+744064972+744171251+746056897+746413567+746983405+749278861
3183+749198601+746431504+745342640+745250993+744599854+744795820+744870509
3169+744040974+744639280+747030422+748078330+747361379+748007621+751228789
3156+756055336+759235731+756511795+750105824+746857108+747868528+748990819
3142+749270229+750363011+751740468+752422646+753039930+754031332+753834202
3129+752439910+752880818+755491007+757858458+758418746+756571668+753891688
3115+752258698+751513340+751819197+753844120+756179124+756448126+755801272
3102+757002720+758407726+757507359+756951785+758595122+759329276+758553676
3088+759051458+760523010+761296223+761947056+762951191+763197174+762787366
3075+763114588+764122030+764681216+764102133+762523629+760775544+759641254
3061+759186693+759378068+760726262+762838546+763686263+762261055+760311494
3047+760277884+762957742+765934395+765600928+763328370+762840689+762919295
3034+761226738+760280639+762469265+765101432+765083801+762913969+761260470
3020+762476550+765692514+767666991+767499799+767186902+768075576+769166889
3007+769209988+769499131+771238278+772858534+773682743+774787954+776476287
2993+778235697+778667974+777166668+776118944+777303496+778293734+777199727
2980+776151881+776602095+777465240+778222964+780621147+785223261+788945394
2966+789771195+787763413+784042872+782127227+783145505+785607234+788117818
2953+787261835+783036226+780631738+781539635+783798174+786615839+789064590
2939+790057828+789795928+789199764+788910498+787985827+785629457+784156803
2926+785614275+788212403+789022715+787302608+785139450+784097970+783562966
2912+783540865+784165251+785495262+786986344+786846027+785699432+784649688
2899+783431954+783338410+785196936+787564019+789167073+789744319+788796078
2885+786807581+786074713+787923198+790819776+791895172+790519552+789231721
2872+790619035+793165371+792601654+788730939+785376434+784833961+786452993
2858+789026572+791223279+791053760+789092874+787934524+788681228+790764004
2845+792419034+791475996+788418409+786906023+787862345+789183174+790490900
2831+791632047+792055018+792076629+792220190+793110701+794339392+794698572
2818+794160507+794167853+795822760+797338085+796425903+794561989+793987804
2804+794800198+796262690+796929379+796248425+796023808+797391898+798791762
2791+799189877+800174422+801571653+800994040+799649336+800043717+801257348
2777+802275993+803193991+803657429+803675795+803149117+802512303+802785529
2764+803488338+803556477+803374346+804018874+805195528+806073488+806780705
2750+806697384+805086127+803994508+805618621+808348741+809301574+808251829
2737+807154700+807447149+808808505+810189513+810900587+811184955+811326435
2723+811301457+811212872+810363624+809121586+808791058+808582358+808342619
2710+810008607+812852719+813270976+811218749+810263712+811294050+812452399
2696+813337461+815079607+816581403+815848840+814857072+815392688+815868308
2683+816106088+816532059+816507999+816331318+816173186+816217938+816798306
2669+817473505+818157519+818696687+818524841+818102176+818104809+817829379
2656+817163791+817303435+818422175+819903155+820413181+819360070+819233160
2642+820681755+820549580+818974076+819089660+820271640+820930615+821791863
2629+822232649+821441438+821033527+822311746+823950919+823950613+822846995
2615+822676312+823553477+823421057+822066742+821719562+822999801+824612037
2602+824962279+824001855+823625227+824272571+825153102+826269393+827295262
2588+827529001+826557190+825625111+827062625+829788092+831307886+831808668
2575+831067657+828795772+826650184+825642742+825838280+826894453+827436314
2561+827344361+828296581+829643489+829706240+830242040+832855535+835248392
2548+834826155+832362834+830387622+830522184+832683016+834739406+834869561
2534+833897015+832606123+830872120+829822069+830534918+832637407+834764507
2521+834998552+833623115+833244896+834457793+835568207+835565146+835192192
2507+835036202+834549991+834515952+835772315+837252683+837942697+836924971
2494+834734386+833967051+835677424+838274573+839385415+838673790+837468607
2480+836430311+836156840+836588321+836776634+836733964+836751412+836406619
2467+835787865+835507354+835600409+836056622+837022005+838471825+840479544
2453+842322276+842372599+840907291+840745853+842648580+843998365+843839254
2440+843959551+844600283+844066197+842559198+842118045+842572422+842370334
2426+841899060+841892509+842407372+843657735+844701909+844429907+843576067
2413+843169014+843420690+844408480+845704575+846568822+847205574+847784168
2399+847668584+847065747+847089011+847901527+848987942+849978426+849359978
2386+846131097+842701719+841806127+842064416+840138976+835991361+831523320
2372+827696622+824778250+821222698+817555356+817921638+821125908+820600577
2359+815697381+812756113+815342242+821162824+827375950+832370119+834161180
2345+831645087+827484433+825935314+826724077+827600200+829740952+833463453
2332+835612163+835160112+834478363+835193661+837011781+838956506+840080755
2318+840668348+841099216+840953083+841237391+843335349+846307473+847786310
2305+847819920+849083752+851674412+853051501+853065582+853112783+852385180
2291+850592955+850135823+851355148+852524211+853704171+854961942+855729645
2278+855888083+855452807+855246004+854982757+853572302+852140788+852139992
2264+853529203+855051569+855805191+856723618+857610149+856758574+855111075
2251+855139114+856382070+856624808+856277628+857234685+858985769+859990456
2237+859977048+859192633+858312652+858172580+859279688+861057770+861780231
2224+861286857+860927677+861028997+860926147+860920698+862049784+862942744
2210+861856083+861010141+861941853+861806801+859693109+858107258+858181518
2197+859483307+860793911+861666974+862404250+862611174+863284598+865377904
2183+867265264+867439620+866712567+866116833+865389291+864541512+863981101
2170+863742648+863865946+864670870+865839137+865946273+864758293+864244226
2156+865676781+867553734+868222627+867660503+866150932+864960993+865197120
2143+865663129+865408208+865381148+865839627+866097916+866087141+865741369
2129+865506895+865962068+866192623+865730349+865695331+866241783+866246497
2116+865991882+866244599+866612350+867236491+868160060+868627110+868934130
2102+869406751+869374610+868800731+868126756+867773515+868258380+869184949
2089+869254679+868101534+867138293+867345218+868447245+869921062+870215226
2075+868316968+866439464+867569835+871097717+873150556+872285697+871526565
2062+871935149+871226402+870195758+870650196+870916260+869888432+868719920
2048+868575930+869875943+871579704+872635020+873647481+874443039+874069044
2035+873266140+873294301+874570132+875347324+874267275+873822816+874921047
2021+874791750+872676956+871342843+872329286+873930809+874986308+875344998
2008+875177193+875238842+875251759+875089036+875601143+875910735+874668330
1994+873537468+874236482+875461133+875835862+875959099+876454432+876840610
1981+876713149+876253997+875756766+875584798+876291647+877826869+878354710
1967+877088307+876211877+877385471+879814937+881073871+880695897+880861927
1954+881319793+880544499+879454472+878867124+878377974+877611373+876790164
1940+877305149+879126270+881149540+883388366+884986706+885072659+884791964
1927+884300059+882458736+880157648+879197592+879214060+879625338+880319576
1913+880360594+879465002+879156145+880887088+883574721+885993168+888183141
1900+888798772+886846518+884520330+883933962+883867599+882369293+880762689
1886+881598774+883987101+885427859+885610480+885972108+886351551+886249069
1873+886522417+885746389+882549220+882199896+886068346+888635865+888799751
1859+888962720+889638408+889791520+888821362+887615139+887050749+886518377
1846+885423084+884885141+886693222+889377243+890660665+890543428+890442476
1832+889550618+886879638+886355898+888476569+888965169+889435279+891944945
1819+893819327+893904423+893792818+893528653+892774602+892297696+892195642
1805+893197696+894743753+893800348+890941666+889664917+889978365+890068726
1792+890045034+892277493+895087995+895422074+893720089+891958474+891197873
1778+892622898+894745345+893922789+890241000+889511193+891800648+893752046
1765+894816973+893829183+891785527+891598927+892445788+893943359+895083404
1751+892468501+887644586+887364135+890179351+891486833+890940197+890912709
1738+891910171+890649462+886935226+888666291+893430027+895303123+895287941
1724+895543903+895812048+893411722+886619574+882164021+886610636+892466052
1711+895559697+895640263+892430605+888187671+886721506+885042294+881898876
1697+882599481+885293603+887923505+889070529+888252748+887917934+885581584
1684+880036861+882407801+886885025+886148239+881995115+879987517+880683225
1670+880825501+882370089+885713269+887183107+886679325+886930818+886884046
1657+884806963+879802142+872805763+872094812+870939156+866225193+867189719
1643+873199716+877388838+878178886+874526237+868939272+870632320+875931611
1630+878446602+877922005+876925400+876758207+879461696+883214501+883520663
1616+882588339+886582719+892187071+895092036+895319469+895725298+897745385
1603+901159947+905479591+909055652+910207757+909679059+909612451+910542143
1589+911914212+913868364+916036481+917251092+917789953+917594905+914497036
1576+910614260+911508934+912259433+910084827+910002914+912341407+914176486
1562+915485009+911345904+899793877+902686720+912277126+919471124+924096747
1549+926102875+924662116+919833426+911800526+902428493+904381911+915089097
1535+920989204+921188292+922075558+924718255+924828819+922206753+919621114
1522+918343507+918714625+919981701+924590305+931882806+935118238+930644503
1508+919981885+916709843+928277359+936873792+938299245+934653086+932054958
1495+933829122+934485220+930797554+928298725+933279915+939599013+941832453
1481+940828195+939474063+936807919+929795194+919459186+915674853+922212631
1468+930024831+934086370+935031734+935296144+933677724+926439954+918774804
1454+920849867+925683944+928365516+927905874+927448558+931117552+936584893
1441+939922808+940710591+939414373+937709816+936131679+934404409+935829312
1427+939262853+940384409+940957982+941292122+936714251+932282514+934354086
1414+935879023+935085363+935855882+936078724+931953638+927133335+925910092
1400+926540171+926438729+922989088+917788974+917198382+919466594+918140133
1387+912818314+910262978+912607287+915757929+917327679+917816890+917564479
1373+918495395+920135609+918313999+914521830+913566058+914664840+915190968
1360+915575799+915094485+913855875+914737203+916752453+917455201+917661942
1346+916685784+914354882+912278289+909633939+907743824+909994894+914497587
1333+917243746+916597259+914594682+913598628+914144407+916988151+921443091
1319+925397678+927734518+928382474+929116383+930922137+932706097+935746665
1306+940399285+943463545+945281911+948475590+953066011+957272581+958335794
1292+956963235+957018149+959544528+962699883+964632180+966295597+969262700
1279+972259495+974648434+976404661+975661507+973212940+972678793+974102961
1265+973887404+971613192+970942401+973043115+975588961+976986621+977426611
1252+977203831+977286294+980250337+985991087+989684079+988284461+986270068
1238+987924914+989967285+989418138+987737151+988154368+993348972+998609204
1225+998191804+995388526+994444509+995119402+995811314+995891206+996078357
1211+997193546+998551534+997919741+995485009+994805586+996910708+999256548
1198+1001474192+1004709746+1007079156+1005116188+998565064+993490146+995770847
1184+1003082633+1009473788+1012014186+1011431674+1011393106+1011948619
1173+1008976189+1006305453+1010691643+1016020565+1014961698+1013229531
1161+1013593118+1013401927+1014781527+1017781567+1018155194+1015516844
1150+1014852849+1017905109+1018917326+1015956957+1015027510+1017600967
1138+1018200314+1017119041+1019555364+1022028542+1019550711+1017325659
1126+1019379233+1021915101+1023068797+1024510229+1026052614+1026222929
1115+1025757593+1029329308+1035233272+1034283255+1028566381+1026036023
1103+1025305542+1022925113+1021586470+1024370402+1028599195+1030978950
1092+1032789357+1035861147+1039056112+1041613652+1044589204+1046308637
1080+1043668940+1040999000+1045117045+1050468679+1047792862+1042869036
1069+1044324487+1047877591+1047186904+1046794359+1049346021+1050867223
1057+1052260108+1054389472+1054490853+1052558618+1049804929+1048051702
1045+1050013323+1055598206+1060425917+1058817660+1051228668+1046027636
1034+1047672626+1050245225+1049030737+1049047878+1052327940+1053230450
1022+1052424301+1053482065+1053811920+1053555774+1055237129+1057685941
1011+1059587811+1060116632+1057566929+1052519804+1048481835+1048632315
999+1052648489+1055469154+1054969596+1054602886+1053961787+1051422981
988+1048447062+1045750798+1043862886+1043347289+1044253961+1045903848
976+1047781230+1050493657+1052715220+1052117832+1048974047+1045978415
964+1045807120+1048260708+1051666883+1056279343+1061158724+1061622529
953+1057265847+1052451727+1048343110+1046710120+1050646953+1056762371
941+1059247549+1059729352+1060765200+1059737066+1056738373+1054132102
930+1052331858+1052177583+1052924471+1052348510+1051843075+1053074093
918+1053480351+1053366726+1054233483+1052097262+1047631485+1047688788
907+1055366793+1066022310+1071437123+1072480317+1073582895+1071822689
895+1066753770+1062464063+1061111095+1064168804+1067979033+1068205181
883+1070005425+1073741823+1073499391+1070264999+1063016393+1053172168
872+1049859292+1052680691+1053611485+1051163652+1047603324+1045610358
860+1047816371+1052342388+1053687031+1050305099+1046838193+1043880395
849+1037911170+1032023491+1031888929+1036614647+1037039148+1029831070
837+1023186830+1019453922+1017127489+1017345066+1015639713+1008145491
826+1002414230+1003859641+1006608127+1007851572+1008523036+1006778809
814+1005387088+1006009943+1004741581+1000336963+993974031+986845906+982925419
800+983721405+985739104+987812942+986636165+979402129+974045046+974716266
787+973511634+967071074+962764287+963714610+963899311+959552976+954411205
773+952523538+954176731+957939637+960663206+959186634+954620211+951087187
760+948924947+944159008+937458629+934469303+936562548+937036699+931354904
746+925562300+924626425+927063605+929864801+929993058+925645008+918912060
733+915488254+918310387+925389781+929759992+925894175+919532344+914690369
719+909243293+905501140+905619296+907064584+909390160+914298621+918401728
706+919799755+922063926+923594985+920545112+915875411+913266752+910335891
692+906208602+904453722+905248851+906026533+905466184+904067300+903768728
679+904524187+904659728+906309677+913370092+922587483+921636364+906119588
665+897438549+898859411+902315664+903671633+900282477+897568152+898546820
652+899115740+904821289+914617272+910695867+895599062+887989929+889824518
638+898515659+927672380+982937663+998268452+929084120+863616351+853445760
625+910656502+1003354084+1002293626+921011182+866221030+844234920+838253329
611+847298446+865947865+873739128+870592282+865309153+867839878+890035177
##END=
