##TITLE=Sample description
##JCAMP-DX=4.24
##DATA TYPE=INFRARED SPECTRUM
##DATE=25/8/2023
##SAMPLING PROCEDURE=Instrument type and / or accessory
##ORIGIN=Default
##XUNITS=1/CM
##YUNITS=ABSORBANCE
##RESOLUTION=4
##FIRSTX=4397.6552
##LASTX=599.8556
##DELTAX=-1.9287962
##MAXY=1.8622649
##MINY=0.14527008
##XFACTOR=1
##YFACTOR=1.7343693e-009
##NPOINTS=1970
##FIRSTY=0.15510492
##XYDATA=(X++(Y..Y))
4398+89430157+89524803+89723683+89835212+89776866+89761916+90057007+90281894
4382+89897700+89234456+89043857+89510850+90061070+90140020+89986323+90119915
4367+90360310+90433675+90679260+91136492+91420044+91480538+91504002+91413127
4351+91080973+90819571+90745682+90418536+89781359+89440587+89572487+89663765
4336+89613212+89645233+89629862+89575425+89741434+89925502+89667545+89133228
4321+89007162+89467917+89835771+89719585+89496296+89391357+89395515+89507456
4305+89532810+89363528+89224438+89266365+89378822+89411367+89210261+88925662
4290+89026270+89455331+89614449+89460623+89587127+90093882+90439973+90431664
4274+90386945+90239967+89776909+89473597+89660715+89937024+89928776+89683689
4259+89555682+89832093+90250002+90295976+89972061+89613100+89418215+89504939
4243+89874811+90299361+90438005+90264702+89978496+89631357+89436601+89676386
4228+90069903+90073992+89895302+90111761+90516250+90637590+90502967+90296577
4212+90218479+90395493+90631052+90678340+90644403+90740965+90808419+90749892
4197+90822234+90914062+90799835+90740836+90903348+91133502+91230210+91077149
4182+90880649+90936959+91105390+91118682+91067767+91029122+90929312+90870803
4166+90915840+90922172+90873226+90907043+91102899+91413102+91628126+91638126
4151+91519407+91320638+91158547+91112882+91039578+90850526+90771122+90943952
4135+91082201+91008450+90888716+90867650+90965389+91037714+91000168+91121414
4120+91474326+91703415+91772844+91889055+92018996+92068768+91981236+91855135
4104+91874845+92051370+92236752+92266007+92202094+92183415+92218203+92368205
4089+92602131+92675659+92615337+92763200+93036656+93041287+92877366+92885176
4074+93044122+93240665+93530308+93823036+93933731+93881872+93720941+93533187
4058+93500951+93619482+93731070+93779949+93809813+93790559+93566737+93304046
4043+93458783+93898900+94120592+94110505+94079970+93939342+93570054+93151664
4027+92960344+93142634+93471266+93545636+93475691+93430619+93288366+93193299
4012+93232048+93223705+93169268+93193256+93258192+93181434+92907514+92632872
3996+92642770+92864109+92864255+92658845+92614623+92672351+92693358+92812963
3981+92905658+92765511+92598505+92642538+92841942+92918804+92801054+92774068
3966+92788511+92529944+92217017+92238024+92470842+92563812+92338985+91932211
3950+91479575+91170429+91205784+91217555+91247230+91816043+92475009+92395338
3935+91407448+90335498+90375380+91148838+91308008+90946504+91050678+91142352
3919+90521396+90201871+91174768+92542170+93229170+92998053+91651770+89140617
3904+86781915+86264438+87435854+89438285+90883226+90699802+89597179+89554788
3888+90073606+89729199+89020024+88543941+88653563+89961845+90732923+89806988
3873+88153381+86875358+87016296+87847783+87538834+87501890+89076325+90104751
3858+89207641+86442234+83759600+86002666+89874279+91907906+91794959+90069971
3842+87762390+85699336+85190442+86761192+88321546+89338939+90385338+91026098
3827+91101137+90622924+88719263+86620898+87202366+88726962+90578496+92828685
3811+93981174+93235536+91347641+90116109+89095811+88162634+88961274+90496179
3796+92382235+94374562+95437217+95673024+95361103+94676062+94356090+94319910
3780+93987300+94259580+95397145+95921109+95137332+93792845+93332150+93796943
3765+94628404+95213944+94472920+93167275+93067045+92914310+90733654+87406866
3750+87256752+89231766+90410563+91529175+92948222+93319666+91570647+88493354
3734+88407445+92029744+95229031+96258977+95786924+95515074+96407055+97867058
3719+99087653+99503113+98554900+96195545+95000475+97245896+100013004+101271927
3703+101197892+101330909+102497119+103626642+104044336+103323742+101379684
3690+100484095+103289719+106921357+109216318+110100420+109472255+107665956
3676+106388681+108318065+110697671+112287073+116146786+121004647+124499385
3663+126824090+128564319+129735229+130824071+132714818+133947176+133031723
3649+132698305+138019189+144774387+149539888+152901214+155898803+158660481
3636+160885831+162743475+163938493+164660779+168203665+174026578+178222656
3622+180166354+180851386+182593643+185969232+189593292+193167022+196313831
3609+198987582+202344303+205939237+208460005+210380402+212713097+214966576
3595+216871526+219361380+221699470+222262982+222124381+224453158+228156674
3582+230899760+232566066+233767597+235009989+236405108+237263933+236660229
3568+234724711+234174946+236573883+239476327+241253827+242091843+242817085
3555+243532979+243967340+244273754+244341543+244127850+244861855+246574316
3541+247850182+248445724+248668987+248896959+249134193+248991863+248580441
3528+248645326+249377887+249848248+250009205+250594849+251519108+252204742
3514+252341470+252085043+251574318+251151349+251154425+251100573+250842959
3501+251144940+251896713+252539440+253045198+253083259+252621800+252132503
3487+251823168+251946596+252481772+252867660+252856593+252824907+252766020
3474+252318771+251755500+251592619+251764195+251793492+251399976+250582219
3460+249690676+249309412+249485249+249566097+249145139+248643934+248256844
3447+247907454+248029748+248517877+248687580+248524097+248425189+248338379
3433+248003802+247486908+247130508+247156867+247246616+247010156+246801103
3420+246983246+247061723+246971493+247518869+248715073+249632751+249991334
3406+250415282+251260017+252360458+253486106+254481351+255516305+256649068
3393+257435792+257917700+258829621+260373651+262161392+263849728+265105059
3379+266002650+267043602+268456763+270107381+271651978+272944219+274130646
3366+275236069+276478565+278228056+280310596+282294674+284081110+286011490
3352+288334941+290713842+292929948+295066769+297135407+299371034+301777737
3339+303781354+305347928+307243357+309528953+311533222+313233689+314641660
3325+315360785+315905292+316933476+318084934+319094905+320114601+321297676
3312+322622652+323973403+325722327+327720926+329041571+329823037+330802971
3298+331459754+331155058+330846926+331106395+330941434+330044324+329204195
3285+329018099+329516657+329830941+329271485+328642333+328694055+329114669
3271+329484799+329556935+329647045+330233891+330763552+330514633+329898850
3258+329776607+329965487+329897407+329962085+330321973+330363454+329891633
3244+329305748+328802997+328111504+327182605+326462071+326151705+325781781
3231+325116372+324426700+323821227+323463160+323120592+322218430+321073330
3217+320346885+320151098+320240830+320234472+319870184+319245500+318856880
3204+319065624+319362140+318922830+317938429+317300960+317004890+316239955
3190+315105199+314427762+314320881+314243384+313549726+312268430+311331592
3177+311136733+311085114+310884343+310629136+310204259+309732301+309370522
3163+309135282+309203912+309296530+308984893+308546648+308294224+307964647
3150+307471587+307122249+306949109+306879757+306763597+306320541+305742011
3136+305372156+305215925+305134888+304804005+304137050+303607630+303305993
3123+302895585+302362969+301799114+301214741+300664598+300312236+300066754
3109+299593765+298961416+298312022+297595544+296915013+296575126+296655785
3096+296689396+296480343+296111416+295285411+294302934+293959610+293995798
3082+293795268+293770559+294307470+294985836+295771322+296988936+298176720
3069+298349860+297064612+294815823+292380011+289985267+287585763+285312075
3055+283328134+281855588+280965764+280209437+279239865+278486752+278385422
3042+278482714+278220753+277833010+277532336+277071838+276591185+276460866
3028+276358659+275808740+275114308+274735449+274727201+275195190+276079722
3015+276970817+277823096+278903861+280197289+281716900+283713179+286145761
3001+288840648+291883102+295480511+300178377+306482237+314190253+322723759
2988+331042404+337355405+340157567+339627460+337171886+334050526+331052267
2974+328287668+325594242+323227919+321401670+320075629+319246874+318950942
2961+319214501+319878398+320607385+321332283+322088730+322825794+323831056
2947+325162733+326282436+326807217+326763502+326226968+325041144+323464053
2934+322107391+320692890+318719345+316564137+314617123+312600000+309948949
2920+306295454+301848499+297269060+293119755+289496778+286167876+283065727
2907+280243855+277708173+275577864+273956836+272771148+271817711+271018186
2893+270504111+270327122+270490639+271088483+272104846+273265944+274239674
2880+274939845+275505574+276155844+276960456+277681762+278181592+278489158
2866+278471734+278017130+277123698+275790732+273882260+271111629+267385603
2853+262875516+257884312+252818120+248178642+244194814+240565685+237048264
2839+233654925+230516158+227829537+225411784+222948083+220575729+218625227
2826+217192700+216051311+214957091+213941777+213135395+212496088+211865922
2812+211259434+210818337+210561824+210407637+210176108+209784843+209415521
2799+209088916+208550166+207680756+206692608+205831188+204952740+203818482
2785+202580368+201473226+200457671+199453956+198460963+197461956+196560310
2772+195820943+195064531+194294733+193712990+193221511+192693878+192279930
2758+192074314+191992109+191781939+191298278+190738409+190200776+189672164
2745+189306965+189112295+188809455+188243057+187660128+187257212+186886257
2731+186579001+186496177+186397631+186095581+185809100+185627850+185490658
2718+185421598+185328739+185101025+184853739+184730534+184668055+184572069
2704+184443623+184288972+184110661+183906110+183723279+183548369+183219891
2691+182773244+182412857+182095514+181682941+181294735+181039613+180755400
2677+180317241+179822617+179380541+178958929+178529414+178114143+177620757
2664+177037072+176537482+176147763+175796449+175547651+175375010+175085951
2650+174651916+174264843+174055893+173965302+173920334+173936108+173939734
2637+173842046+173699665+173520322+173300873+173231435+173384556+173536543
2623+173555479+173549413+173668614+173913495+174101481+174186435+174327717
2610+174559521+174800363+175056670+175350455+175585145+175715962+175851230
2596+176023063+176202527+176427560+176674863+176837212+176839824+176727530
2583+176647611+176621028+176534716+176378862+176182456+175956581+175712869
2569+175346451+174822890+174312115+173905161+173550547+173249237+172993067
2556+172683955+172314358+172008047+171845149+171754128+171592845+171318598
2542+171023354+170827927+170744571+170725119+170746873+170746478+170725291
2529+170767854+170906868+171139530+171368001+171507616+171590508+171605097
2515+171626215+171815542+172155137+172492275+172697341+172798929+172894555
2502+173006762+173206175+173528965+173823007+173931383+173904886+173927018
2488+174066959+174199684+174214513+174176332+174137910+174050652+173903185
2475+173738568+173561201+173283243+172937169+172700915+172574411+172403952
2461+172110202+171794217+171612503+171506636+171300058+170973866+170642020
2448+170376863+170153651+169917913+169664252+169429578+169230767+169069449
2434+168946261+168802110+168573829+168316851+168121391+168047691+168104551
2421+168139502+168029408+167863674+167764114+167756261+167761021+167726688
2407+167723252+167730572+167675671+167655601+167742669+167879930+168011279
2394+168032845+167933456+167889260+167924572+167853347+167526365+166859649
2380+165888651+164735200+163437374+162064319+160690645+159259287+157814938
2367+156535172+155636980+155238514+155132785+155166207+155609503+156711559
2353+158467529+160453205+161584301+161188173+159868610+158929297+158769681
2340+159003392+159383815+159766781+160039155+160328832+160851293+161472661
2326+162024642+162599632+163319582+164187256+165090226+165916024+166558580
2313+166938109+167180343+167493905+167882988+168201207+168374089+168496779
2299+168721039+169018414+169241678+169385864+169558917+169820586+170106947
2286+170313302+170417365+170443690+170435046+170418808+170443741+170578768
2272+170726854+170738213+170640714+170564437+170590917+170664891+170647124
2259+170537098+170511770+170637467+170745447+170712592+170666042+170737422
2245+170829903+170818682+170756427+170749382+170776205+170779934+170788423
2232+170850987+171009882+171224365+171378689+171459640+171523132+171591178
2218+171651939+171649482+171637213+171777721+172013855+172168505+172215966
2205+172212942+172263117+172397147+172551712+172759150+173018206+173195693
2191+173250697+173292968+173385415+173475731+173510854+173501265+173519978
2178+173633612+173780805+173833540+173789345+173741197+173732811+173767058
2164+173848198+173939442+173980819+174008244+174078885+174151330+174229428
2151+174388804+174588148+174698672+174713450+174751081+174892191+175084267
2137+175227954+175360850+175527564+175625389+175670461+175797669+175962131
2124+176064613+176111816+176115184+176151458+176310060+176484884+176562433
2110+176632592+176786882+176965761+177108366+177234852+177358504+177500954
2097+177691518+177921328+178197912+178493569+178722538+178891158+179099627
2083+179406161+179737319+179969604+180138379+180360526+180636388+180942097
2070+181197958+181269819+181342831+181674676+182073039+182324174+182488584
2056+182640090+182809003+182957553+183074211+183250942+183439684+183483003
2043+183461558+183603545+183897741+184175167+184382777+184561003+184734039
2029+184927094+185173246+185402816+185571591+185690225+185715141+185830339
2016+186242482+186716829+187023896+187249789+187523778+187866277+188203896
2002+188486854+188792426+189166766+189422386+189405667+189443659+189910927
1989+190598743+191260990+191878355+192406709+192871949+193370439+193933452
1975+194523856+195080374+195421344+195479303+195712757+196461746+197318217
1962+197990516+198547842+198888984+198990761+199102040+199359104+199601630
1948+199616872+199289803+198740021+198701152+199436738+200096047+200351272
1935+200457671+200585791+200815034+201071307+200985957+200370122+199938510
1921+200079534+200325806+200946779+201927830+202420254+202340609+202386746
1908+202933521+203571677+203989835+204305528+204563055+204636119+204665210
1894+204888199+204952620+204889110+205429149+206256838+206784041+207217011
1881+207671459+208081317+208452770+208683114+208280868+206892571+205790017
1867+206834612+208793053+210005546+210570570+210975187+211375199+211758698
1854+212128931+212380822+212210878+211442506+210569780+211173621+213292675
1840+214749172+215249037+215728109+216100456+215504382+214662362+215248435
1827+216502066+217767415+219313661+220510999+221163693+221651615+221864603
1813+221523908+221371491+222261762+223455268+223920061+223441366+222779789
1800+223037866+223738261+223621294+222860740+223578713+226207100+228178858
1786+228945168+229237268+229397915+229923211+230848399+230856114+229384169
1773+228325088+230013183+232872257+235144037+236125861+236256609+237030840
1759+238163775+239189519+240277708+240185296+238728489+238328563+240267347
1746+242599664+244242017+245603679+247367381+248722496+248476516+248724696
1732+252149910+256251805+259876725+262449472+264125332+265277563+264926937
1719+263197739+264297166+269724725+274764558+277960425+279417266+279991243
1705+281274085+282839216+283884841+285793983+289552795+295999861+302254782
1692+305665614+307936466+309525894+310323443+314629563+322811669+329477685
1678+334603109+339599107+345447057+350413534+355575902+363775363+370611082
1665+373786570+375641928+377805487+378725932+376946215+372294435+368463572
1651+370148849+371088265+372602429+378911959+385666264+390509914+393569071
1638+395825867+403170867+415834226+425781236+434231574+443970357+454427404
1624+465939580+479780515+491340323+500069307+510900333+522122866+530009142
1611+535808429+540443233+543933142+546106530+547285310+547927006+547573166
1597+545679386+542688859+539302669+535645359+531729130+527702549+523576682
1584+519369401+514948015+509996728+503691906+497514895+495153074+493555741
1570+490875478+489728350+490384858+490982771+490539646+487981041+487696931
1557+494899859+502114403+508289903+513825150+519321081+523793743+526813034
1543+530121143+538908860+559697929+576986056+588524762+602693763+618752454
1530+630960556+641245014+651367260+660096416+669518955+679766846+686789968
1516+691365282+694828695+696246049+694717141+690373252+689201414+695508126
1503+700915941+703784603+704999399+707354690+711958048+715671101+717613235
1489+720799102+728400822+737182284+744575122+751216360+756867561+759432352
1476+758282715+757363473+762694650+771009961+776224223+778281692+780722006
1462+783973445+785279382+784761749+789018347+797755338+804375750+808690771
1449+811790858+815013979+819425777+824396928+828205314+830387465+832791282
1435+837937910+844129700+847799725+849511052+852257574+854757550+854822090
1422+852277645+847619094+845138776+848031701+851713480+852813835+852122719
1408+850949645+848034725+843341189+840233128+838129058+834241422+829743914
1395+827018836+827215826+828546713+827311435+823146596+821380351+823163367
1381+824936073+825267506+823899434+820858045+818678643+818385083+817978593
1368+817680633+817926149+816996184+815385208+815077557+815221760+814421633
1354+813191097+813339493+814099205+813665771+812940770+812415096+810666378
1341+807909271+807217193+809268751+810703357+810836287+811957262+814138314
1327+815716710+816290841+816056804+815832389+816746819+819146856+822442765
1314+825772216+828908939+831668933+834240322+837418835+841136630+844738610
1300+847762472+850074667+851754651+852633272+852705648+853208365+854696446
1287+854734249+852606741+851175984+851539034+851935627+850703647+848789282
1273+848092049+847633734+845428832+842534738+841069615+840397745+838258689
1260+834327545+830681164+829351376+830254878+830939052+829813953+828685417
1246+828906121+829656828+830399975+830774366+830755121+830927642+831428022
1233+832215914+833572645+835112069+835703246+835668055+836533891+838323368
1219+839608959+840281104+841743753+843966251+845609463+846677032+848309178
1205+850114464+850827093+851344931+853185614+855844845+857812479+859156563
1192+861365933+863621217+863794494+863824187+866401006+869232758+870357376
1178+872230089+876009676+879761082+882381685+884539848+887104433+890244867
1165+893547512+896972640+899856217+901043726+902102772+905218187+909738858
1151+914440024+918533723+920902693+922039613+923462810+925475533+928180265
1138+931264681+933007351+932565738+932236573+934173827+938065931+943648948
1124+948342828+949574395+951333354+955295085+957170341+956972801+957994318
1111+960712522+964965340+969526289+970991550+969520790+968420917+968265648
1097+968921434+971421822+975373724+980844292+987753247+991755050+990492278
1084+988384427+989138021+991834987+993898092+994558758+995806271+998741261
1070+1002003078+1005182072+1008576889+1011009368+1011998718+1013476213
1059+1015831230+1016495127+1016351955+1019079369+1024330884+1028597448
1047+1029607212+1028526515+1028270758+1028890596+1028419840+1027798077
1036+1029124565+1032210219+1034382335+1033697887+1033098805+1033628260
1024+1032661110+1031560275+1031640487+1031964977+1032673414+1033161559
1013+1033518423+1034448800+1035394436+1037112499+1039233409+1038888985
1001+1037003762+1036746493+1036907742+1034616235+1031994945+1033183897
989+1036770893+1039209352+1040667671+1041961373+1043325389+1044071698
978+1042351504+1039630551+1039190519+1041385867+1043925227+1044988259
966+1046949226+1050790673+1052096679+1051032203+1051948764+1053528191
955+1052016742+1047663986+1043071007+1041482919+1045646520+1052951930
943+1058219253+1059528696+1057043704+1054150780+1054667587+1057624296
932+1059787890+1059962267+1060313289+1062457430+1065146217+1065912733
920+1064622398+1064902213+1065116386+1061208749+1058537558+1061751194
908+1066271040+1067602271+1067601584+1069086984+1071708961+1073493283
897+1072191401+1069869583+1070571352+1072047473+1072504482+1073741823
885+1073398843+1069420616+1064198519+1061160498+1062500389+1064976239
874+1063749620+1061076024+1058876758+1053957913+1049802148+1049845244
862+1046995278+1040247090+1035943685+1033414773+1031324587+1029740211
851+1023903224+1012567144+1002659552+998317175+996390506+993997274+991950665
837+989578741+984960330+978790604+972752640+968355070+965624906+962269680
824+957560954+953264422+951118837+951844113+954217343+954566647+951319607
810+947301927+944267962+942702144+943408930+943799955+940143539+934509453
797+930755847+928064862+926018321+924353458+920745636+918006331+917930999
783+914820602+908695827+905362115+903729969+901424097+900217755+899524922
770+897509380+893915992+888878307+883523967+879401056+877759150+877610067
756+876730828+875080605+872143760+868282998+866936784+867649619+866598134
743+864196929+862083992+860311836+859946105+860617288+861010168+861287783
729+860549448+858088582+854914193+852469686+853040037+857330107+861846311
716+864149571+865188959+863325388+858334304+855372577+855372371+854191186
702+849661647+843862257+842502502+847274739+852122238+852948415+851202309
689+846961864+840374925+836173040+836119428+834581790+831090884+831951290
675+836167060+838006162+835104852+827882060+823994424+827904742+831527617
662+832871907+834085603+833860707+831252270+830757183+833423631+831284781
648+823320630+821359869+826207368+825172035+818120733+816105123+814457375
635+797797128+781349749+790101931+807778952+805749939+795921322+796147043
621+797437515+792612491+794494758+804511980+807887207+805505385+804790488
608+805382490+808660047+816627773+824922876+830665974
##END=
