##TITLE=Sample description
##JCAMP-DX=4.24
##DATA TYPE=INFRARED SPECTRUM
##DATE=25/8/2023
##SAMPLING PROCEDURE=Instrument type and / or accessory
##ORIGIN=Default
##XUNITS=1/CM
##YUNITS=ABSORBANCE
##RESOLUTION=4
##FIRSTX=4397.6552
##LASTX=599.8556
##DELTAX=-1.9287962
##MAXY=1.9106983
##MINY=0.63707173
##XFACTOR=1
##YFACTOR=1.7794765e-009
##NPOINTS=1970
##FIRSTY=0.74898583
##XYDATA=(X++(Y..Y))
4398+420902353+421022903+420905803+420357982+420135270+420467278+420898233
4384+421414299+421649338+421194200+420462388+419930377+419882177+420129173
4371+420154731+420065833+419931951+419864257+420661888+421756993+421517499
4357+420452641+419926324+419839704+419891087+419943206+419918386+420215994
4344+420625813+420868991+421295256+421578394+421326708+421015434+421084602
4330+421271039+421134846+420684933+420185513+419713995+419166074+419242645
4317+420235556+420762475+420623870+420650868+420514641+420138753+420173488
4303+420629028+420675353+420248116+420102812+420148199+420417772+421184922
4290+421754079+421568346+420692637+420061378+420860684+422142963+422522602
4276+422647072+422959318+422696444+421782852+420964286+420606452+420535073
4263+420383003+419833910+419206269+419626304+421440125+423199749+423534638
4249+422698889+421594740+420687043+420321572+420471901+420659442+420876126
4236+421077937+421406193+421849675+421692782+421678714+422564941+423478131
4222+423758623+423159588+422209485+421718574+421588142+421597453+421785397
4209+422067229+422227238+422613375+423521776+423730856+422496743+421482831
4195+421701223+421918944+421759874+422000640+422407980+422600379+422947628
4182+423692369+424451614+424545368+423927810+423185748+422675409+422446366
4168+422388184+422536436+422618366+422039830+421704003+422595957+423596907
4155+423646514+423263659+423113096+423006178+422786280+422660738+422251656
4141+421507082+421425487+422102701+422468708+422367283+422363096+422400008
4128+422039394+421400198+421393432+422110372+422471555+422409320+422534058
4114+422587450+422438830+422481269+422854075+423265535+423141132+422799477
4101+423016997+423274645+423175030+423379755+423701078+423350346+422869516
4087+423198409+423697762+423345087+422690717+422608954+422611131+422361555
4074+422735232+423779558+424376785+424020258+422885627+421663507+421448197
4060+422245459+423006145+423445105+423914378+423990815+423323482+422802190
4047+422917482+423250864+423584681+423674114+423423801+422997972+422549064
4033+422416856+422986181+424135014+424756022+424530898+424553776+424746610
4020+424561379+424397653+424360640+424260388+424093513+424088890+424286916
4006+424166600+423820791+423626517+423199950+422675510+422881474+423531825
3993+423681215+423788502+424338834+424298439+423683225+423660749+424012319
3979+424135382+424456370+425267366+425874708+425808421+425590029+425710915
3966+426361835+426950654+426543616+425956974+426186586+426683426+426652075
3952+425680668+424577591+424791427+425722437+425701938+424799600+424414635
3939+424777928+425032428+424581443+423498530+423087907+424016272+424684844
3925+424149115+423335072+422971376+422971711+423196266+423776745+425067297
3912+426866815+428083074+427264709+424101418+420449894+418936529+420412412
3898+423900008+426563981+426443598+424288725+423409867+424229002+424513648
3885+424397854+424098436+423284929+423917292+424994879+424068056+422179138
3871+420820757+420458033+420952763+420750952+421103862+423231101+424583419
3858+424064539+421664378+417485030+418021429+423239944+427456070+428159678
3844+425392740+421629442+418770726+417942145+420308676+423579188+425277783
3831+425462847+425601719+426376473+426741474+424836914+421831554+421527682
3817+422156629+423728142+427180669+429685738+429318794+426731794+425461004
3804+425515636+424978768+425553151+426811715+427956126+429726301+431450320
3790+432052035+431345077+430243239+429757151+429765123+429564149+429734776
3777+430739811+431325449+430868200+429661454+428693431+428427308+428545715
3763+429052705+429151249+428881643+429224939+429215962+427685414+426010265
3750+428520661+432960369+435837474+438716187+442828276+446447677+447925436
3736+446729208+446158777+449887006+455118484+457356694+455260639+451314756
3723+448284107+446529607+445413634+443915677+442072347+441270395+443906901
3709+449984545+456731130+462556619+467101504+472284614+479911229+488640720
3696+496352079+500758862+500630641+498872155+500457636+502365445+500660820
3682+495807709+489469904+482044430+471976689+463752345+460930675+458461982
3669+457493959+458606214+458464695+457023513+455005403+451923673+448337131
3655+446954633+446482379+442260961+435887751+437332450+442868403+446058961
3642+447036798+447426117+447675827+447516957+446613916+444383979+439501994
3628+434236753+433373806+433030543+429622331+423189634+417097787+413491315
3615+410328593+407887869+407407575+407771873+408710621+410353614+410931548
3601+409390247+407043947+405044192+403569381+402925461+401854372+397989682
3588+392330331+390027174+390505893+390498088+389507456+388349680+387207815
3574+385431677+383214904+380735760+376976950+373616403+374051846+376023263
3561+376653483+375755834+374499112+373321373+372053029+370870198+369434108
3547+367613755+366544107+366658595+366933895+366794319+366635315+366528665
3534+365968183+364786760+363375992+362512240+362073984+361681750+361986795
3520+362776856+363084278+362893420+362268828+361167827+360316838+360227069
3507+360325379+359889065+359153535+358971520+359258511+359324899+359049900
3493+358792185+358593489+358315442+358319930+358789103+358979526+358503084
3480+358019876+358010766+358404808+358780361+358861688+359039918+359554511
3466+360092685+360071985+359518202+359554411+360387446+360855313+360681806
3453+360317340+359602410+358624305+358286903+358885570+359808776+360836723
3439+361747904+362147540+362223106+362155814+361993862+362058341+362499478
3426+363180411+363843121+364221454+364371883+364873614+366032863+367268449
3412+367962177+368084670+367856264+367823404+368892283+370948712+372604668
3399+373345825+373783010+374346875+375143467+376042858+377275429+379132727
3385+380993006+382605418+384585008+387051223+389568150+392082196+395210250
3372+398724810+401493323+403543723+405779923+408741203+412244441+415515957
3358+418269799+421032617+424504537+429083152+434097277+438355574+441941446
3345+445471247+449230392+453442665+457354885+460582153+463814513+466671655
3331+468690603+470589536+472804232+475074229+477094517+478709172+480062328
3318+481463583+482883261+483833364+484230320+484646436+484821685+484665964
3304+485159220+485724559+485195396+484184130+483474324+482540567+480353304
3291+477579131+475727058+473920238+471188739+468829576+467169634+465333673
3277+463334253+461259569+458943548+456740140+455434515+454865726+454268734
3264+453652817+452691225+451140043+449814555+449136436+448843685+448584429
3250+448123596+447446751+446596766+445929132+445777564+445345538+443927635
3237+442391326+441439615+440786015+440260938+439816217+439566808+439663242
3223+439292245+437724450+435836570+434880907+435225744+436127379+436691847
3210+437148258+437426808+436748455+435472439+434759251+434672196+434609325
3196+434578140+434518920+434397532+434440071+434406944+433960079+433328821
3183+433331400+434117944+434701772+434694939+434778343+435079737+434898693
3169+434411801+434622555+435763583+437214747+438065100+437809595+437134960
3156+437125950+437732087+438090958+438018407+438040012+438450232+439423648
3142+440849288+441750622+441519904+441018508+441717528+443336505+443788628
3129+443124645+443340357+444620894+445413735+444854927+443701071+443447609
3115+444599925+445738240+445880864+445894229+446573420+447601701+447717127
3102+446755535+446429187+447540002+448715263+448209646+446806716+446935742
3088+448870079+450475959+450339096+449063450+448054930+448375550+449120928
3075+448895369+448675771+449583368+450707615+450494851+449023355+447936590
3061+448103633+449034878+449570573+449339185+449154926+449416292+449945791
3047+450253046+449878867+449287435+449236086+449633511+449862320+449800822
3034+449753861+449947968+450422869+450770084+450987638+451808817+453584017
3020+457117033+462227357+465177349+463840673+460754823+458342168+457152036
3007+456615972+456202301+456272073+456728819+457021771+457186905+457560749
2993+458535002+460233665+461770511+462155174+461891798+462099839+463309433
2980+464951287+465499845+464909719+464781900+465891944+467535574+468160568
2966+467263489+466113585+465887958+466682541+467481780+467480574+467339926
2953+467653512+468341009+469076439+469208311+469005930+469064347+469310539
2939+470106763+471011714+470861955+470152485+470090686+471249734+472621379
2926+472330570+471066212+470599886+470796204+470881818+470238736+469140985
2912+468828303+469341556+469858025+470093834+469919322+469470045+469406906
2899+470347027+472007907+473169401+473182866+472702439+472764506+473812483
2885+474805896+474300112+472860471+472278451+473024733+473973898+474412892
2872+474763859+475184162+475571002+475878793+475896412+475956235+476434888
2858+476804780+476662457+476456526+476468015+476313432+475777134+475528329
2845+476142069+476867785+477025583+477026386+477249601+477868667+478901069
2831+479867886+480508690+480888966+481014976+481369494+482098794+482456728
2818+482375032+482388966+482754839+483518807+484414312+485197506+485611311
2804+485474649+485413251+486068291+487050784+487569229+487458660+487179106
2791+487103105+487388219+487931819+488399652+488937927+489683472+490032999
2777+489783122+489795883+490471691+490992514+491129779+491463764+491918467
2764+492319610+492778131+493212804+493710750+494370379+494802807+494956351
2750+495281961+495610453+495703169+495913086+496481238+497305967+498082194
2737+498586806+498660898+498273387+498041631+498549090+499490584+500339798
2723+500883298+500988675+500854123+501005557+501569690+502241913+502901207
2710+503523221+503979799+504400136+504825195+505053334+505168089+505216390
2696+505168826+505311451+505791409+506296423+506603075+506966871+507439996
2683+507574045+507385800+507450279+507908700+508436256+508792147+508871598
2669+508854984+509182672+509798120+510187909+510344501+510604862+510871286
2656+510927458+511032668+511525623+512226485+512691136+512866385+513015641
2642+513219362+513523703+513819502+513972912+514531284+515546536+516068900
2629+516092849+516382553+516626434+516305211+516061330+516410287+517094502
2615+517870629+518458309+518737227+519084175+519634809+519908468+519860134
2602+519988857+520323981+520827286+521547107+522091410+522281799+522453665
2588+522715132+522790865+522711045+522936571+523463558+523821291+524080145
2575+524430107+524566133+524496964+524655901+525157632+525655644+525914867
2561+526061343+526166720+526254814+526337715+526296214+526319259+526814224
2548+527525168+527797789+527617716+527555683+527939944+528394681+528682106
2534+529250225+530256500+531030349+530807403+530140472+530146769+530466384
2521+530596950+531086555+531810295+532122708+532249255+532548236+532945997
2507+533312908+533590687+533872753+534063578+534161854+534394715+534729839
2494+535337650+536169045+536695328+536889703+537038189+537303775+537578540
2480+537568725+537363096+537323839+537656986+538159688+538496989+538815666
2467+539247090+539534114+539729829+540041606+540393343+540727194+541007987
2453+541096349+540939824+540787352+540826843+540897921+541013079+541412447
2440+542191488+543101094+543683717+543836759+543758010+543643020+543654978
2426+543666567+543496041+543477183+543837294+544243596+544608330+545048831
2413+545677041+546533188+547180525+547461720+547543282+547429497+547428526
2399+547921146+549068973+550914682+554004049+560162551+571511030+588942479
2386+611817367+638395193+666359805+693746282+720218732+747182428+775848773
2372+805630387+835211966+862258664+882536771+894938653+901895490+902888501
2359+897763070+888063144+872925943+853185910+833045135+821132288+824697226
2345+839371249+847712727+843236173+835194682+828774914+826600580+829949471
2332+833462691+831855371+827483323+823583564+820253363+815688113+808143763
2318+796546043+783200254+776417193+779861278+784046019+777720172+760623813
2305+740510103+725394942+716240325+708167682+698668462+687645593+674636369
2291+661022280+648900487+638200048+628467832+620488508+614516443+609713306
2278+605389894+601328485+597544553+594329645+591985957+590239295+588402664
2264+586428031+584930108+584031152+583424815+582814056+581835582+580617012
2251+579611340+578968693+578528561+577945536+577325801+577121612+577103926
2237+576716918+576115537+575797262+575855679+576167188+576702046+577266447
2224+577448998+577289157+577132732+577112099+577425886+578096602+578831294
2210+579278729+579261847+579183266+579433076+580017776+580819460+581389287
2197+581589725+581836118+582106830+582097853+581920058+581842683+581908670
2183+582138316+582645506+583383548+584215378+584890047+585117348+584987117
2170+584789895+584730206+584755059+584740120+584958780+585569003+586161473
2156+586452081+586775849+587313990+587721966+587894469+587912489+587861643
2143+587962867+588136977+588292665+588745994+589555918+590205599+590339983
2129+590280160+590383393+590549063+590835249+591485667+592236169+592586600
2116+592605693+592805528+593268102+593639233+593806444+593958313+594255352
2102+594720874+595292577+595705109+595892349+596171300+596404497+596255575
2089+596121593+596536603+597194859+597636867+598017846+598496967+599004694
2075+599546720+600264464+601107883+601614672+601474392+601083967+601335854
2062+602412135+603464902+603950990+604273084+604748253+605076644+605456886
2048+606209130+606907915+607283334+607597724+608259396+608982097+609264733
2035+609701650+610555118+611083009+611281169+611700199+612241555+612633655
2021+612780432+612502955+612028054+612072067+612810511+613605094+613910038
2008+613794947+613843315+614342198+614677355+614663421+615002129+615573564
1994+615528211+615173626+615447754+616115188+616721659+617062377+616900325
1981+616742561+617071956+617529439+617743945+617943110+618421026+618970956
1967+619433129+620009253+620733361+621461757+622057309+622323599+622444786
1954+622928596+623754598+624375741+624497330+624349547+624090827+624215029
1940+625364263+626621822+627094110+627163915+627305400+627689997+628362924
1927+628966984+628927861+628664116+628983597+629339053+629785616+631041969
1913+631986010+631649044+631179301+631776997+632803168+633621265+634284813
1900+634546950+634383558+634154850+634042037+633896063+633845150+634648241
1886+635758218+636174568+636487082+637257213+638169902+638992286+639791558
1873+640024085+638533329+636178119+636213088+638478865+640504479+641542708
1859+641968371+642287919+642859622+643529199+643761591+643387044+642492443
1846+641021517+640218895+641766995+643912523+644820455+644920338+645007695
1832+644184708+642341713+641922214+642785060+643368956+644500839+646199871
1819+647476522+648020424+647809469+647040878+646488804+646747926+647479336
1805+647893409+647209629+645989250+645997423+647135001+647590206+646505552
1792+646142191+648842875+651803351+652958212+652787452+652513525+652823091
1778+653181829+652174348+649313622+646739552+647943786+651328383+654127812
1765+655298282+654776086+654224614+654445886+654641501+655251121+655399908
1751+653351049+650814828+651101819+653132925+654839527+655414110+655303709
1738+655338879+654255162+651677876+652292521+656016294+659524021+660952810
1724+660280553+659197171+657496130+653074643+649180042+652157466+657224213
1711+659957053+660205858+659042020+657823382+656702016+653376907+649232563
1697+649478086+653212712+657138464+658811838+658336669+656580561+652324074
1684+647795199+650129843+654054792+655876685+655756435+655219903+654796116
1670+653418241+653529178+655522770+655808756+654675532+655103874+655625535
1657+653662960+648621469+643998070+645543424+645987776+644994163+648472012
1643+653462187+655099185+653159320+649083641+647148667+651520246+656604008
1630+659231002+660050706+660547915+661571943+664886132+668978090+670511049
1616+671936556+676933162+681576792+683773233+684999039+686867892+688673373
1603+689981175+691936984+694351749+695997388+696861776+697763411+699179136
1589+700899336+702603593+704421868+706355369+707650577+707243002+704942189
1576+704192959+707336187+709375735+709257495+710531601+712882993+713867362
1562+713087651+708839068+704496095+710003041+716605829+721294142+725015705
1549+728829515+731113044+729469750+723991945+718007352+722727352+733280143
1535+739146095+741755671+745089220+748439317+750007916+750408256+750046168
1522+749812235+752743034+758114858+764973687+771923422+776100593+775790691
1508+771382200+773213740+785215886+794027643+797840381+798123686+799808248
1495+805486356+809843531+810156849+810258006+815515410+822923901+828816046
1481+832611702+835018696+836230366+835814753+835995763+841933596+850629525
1468+856014279+857433287+859264357+863325164+864058048+859001417+860047954
1454+871405778+881249266+886924293+888857995+889652443+892896158+898195029
1441+902979676+904658208+903526726+906602896+913296591+917061430+919185118
1427+922200058+922339735+919243468+915102205+907863000+903167452+905122122
1414+905951540+904144653+902727052+902049570+899809852+895224438+890763359
1400+885600882+878283029+872362614+871472635+874676691+876810763+874426412
1387+869686784+867852028+868773291+869420896+868652640+866949925+864770030
1373+863742854+865597305+869095854+872100745+872576115+870011691+867367548
1360+867513589+869022968+870116599+870536701+870159675+869468526+869521114
1346+869782246+869930297+870259626+870076271+870399637+873082032+876510710
1333+877319361+874962275+873840775+876621714+879834814+881167001+882500260
1319+884123926+884921323+885514463+886561134+888392004+891903214+896961788
1306+901586392+904701953+907491936+910611181+913638246+916574471+920180407
1292+924814792+929061767+931958936+933542810+933530483+933621926+935682040
1279+938431025+939800459+939344651+938211494+938411865+940589348+942685503
1265+942788870+941201848+939389200+940049934+944075302+947766183+948732733
1252+948881252+948807964+947613711+947099152+948409902+948922318+947515904
1238+946910103+948879242+951907513+954006549+955210917+955893491+956027741
1225+956415151+957555342+958507555+957753301+956050786+955672018+956098015
1211+955784161+954725566+953516508+953348829+954723489+956762434+958361514
1198+958727353+957973166+957063626+956876118+956910015+956333422+956930582
1184+959829492+961637719+960200155+958670544+959673805+961803389+962435384
1171+960162841+956910350+956672397+959729408+963444070+966124657+966827261
1157+966439851+966801871+968277755+970852428+974476452+976912453+976307790
1144+976107085+978281687+979069570+978279208+978673585+979439496+980077587
1130+981410444+983082746+984945303+987261926+989543379+991132410+992599384
1117+993327378+991705051+990102487+990449234+990384118+989730552+991592573
1103+995442960+996669435+995057091+994990903+997374719+999921859+1003106219
1090+1008737099+1014572167+1017814609+1019422130+1020551200+1019315078
1078+1015464156+1015202086+1021623395+1029603857+1034365526+1034111495
1067+1031103858+1031458174+1035384194+1037367402+1037415435+1038520790
1055+1038261132+1036024563+1035803291+1035937073+1034349649+1036459202
1043+1043313006+1049125432+1052494554+1053409922+1050260665+1046671611
1032+1045712096+1044555961+1042912198+1043687554+1046942791+1049992633
1020+1050586511+1050454806+1051665136+1052807336+1052776721+1051327098
1009+1049668530+1050203723+1051288378+1050825736+1049825021+1047301127
997+1043819728+1042232840+1042042786+1042750079+1043794472+1044310908
986+1045805214+1046840027+1045118487+1043404449+1044699658+1047587582
974+1048614222+1048743314+1052090932+1057502684+1060304658+1059429083
962+1057303921+1055977160+1054799253+1053859232+1055274020+1057704059
951+1058515457+1058329087+1058788714+1059575459+1057561569+1053102366
939+1051437500+1053583564+1056028475+1058000495+1060861154+1063145488
928+1063213752+1061733380+1059536068+1057979058+1058060787+1059684119
916+1062103975+1064272012+1065596897+1065585174+1066988506+1071769066
905+1073741823+1069505433+1065201113+1064129990+1064006928+1065395321
893+1069491230+1070492146+1064377791+1058273418+1057499200+1056674136
881+1052602745+1051563510+1055584457+1055920351+1047851460+1039947301
870+1038662610+1040319772+1041074026+1041204860+1041535863+1041335627
858+1040508419+1039937118+1037019316+1031150550+1026350228+1022319434
847+1017091573+1013255790+1011573440+1010059103+1009375123+1008139604
835+1004629666+1000644024+995277626+988474735+984063564+984220324+985678857
822+982531877+976171061+972142344+971651164+971150405+967131937+961539443
808+957137718+954987769+957001659+962333959+965304416+962056749+955416513
795+950138610+947954362+944727462+937782617+933874885+936354498+939211874
781+938800280+937207095+934462063+928444711+921897727+918256486+915949443
768+913755481+911097939+906040437+901879077+903354090+905008639+899974517
754+893039251+889376976+887731872+886852345+885978913+884874496+883909086
741+882989564+884470673+887363957+886612784+884903369+885125646+884382981
727+884320345+886697461+889337518+890452385+887620332+881775884+878403882
714+880443764+884351496+884158561+879528731+873977370+869303862+865925026
700+865974399+871369469+876967121+876880568+874611509+874910491+876679059
687+876839436+874226041+870482706+869133704+871547532+876924314+885098046
673+893615577+898515582+894759787+880857636+870835884+866779834+864639733
660+865899569+870144870+871754936+865597372+856702010+853146586+853827618
646+853346421+851330186+847742538+839100672+830818883+828984261+830098325
633+835228580+845166391+849976963+847075842+848265874+853180416+843209310
619+820986314+807859453+809150708+816807469+825598458+829105248+823131976
606+817292285+821391410+827948242+826350368
##END=
