##TITLE=Sample description
##JCAMP-DX=4.24
##DATA TYPE=INFRARED SPECTRUM
##DATE=25/8/2023
##SAMPLING PROCEDURE=Instrument type and / or accessory
##ORIGIN=Default
##XUNITS=1/CM
##YUNITS=ABSORBANCE
##RESOLUTION=4
##FIRSTX=4397.6552
##LASTX=599.8556
##DELTAX=-1.9287962
##MAXY=1.9351417
##MINY=0.61354482
##XFACTOR=1
##YFACTOR=1.8022411e-009
##NPOINTS=1970
##FIRSTY=0.72964454
##XYDATA=(X++(Y..Y))
4398+404854002+405168257+405395664+405536751+405855670+406122002+406040743
4384+405705421+405432804+405076283+404608108+404541930+404803798+405187472
4371+405648999+405710845+405149340+404710798+405266383+406190926+406110493
4357+404840972+403534508+403302571+403945798+404595011+404718868+404148136
4344+403295824+403230737+404050770+404406531+403976622+403812284+404626463
4330+405935011+406638628+406818940+406893022+406519799+406058999+405900549
4317+405250707+404015416+403457912+403947352+404511570+404846164+405330941
4303+405421593+404620444+403709528+403749910+404807105+405406049+404826354
4290+404482532+404729980+404406300+403671891+403624928+404076005+404081825
4276+403888186+404264617+404870208+404775587+403584977+402107462+401881511
4263+402855232+403817113+404958974+406435365+406990619+406102258+404868488
4249+404246593+403781262+403264405+403411743+403640109+402936260+402119302
4236+402242927+402884567+403081911+402748507+402473244+402531485+403253458
4222+404714271+405962328+406232432+405527491+404438479+403990347+404164870
4209+403821875+402585294+401468435+401676362+403015501+404001261+404040948
4195+404016375+404169335+403769885+402903848+402582747+403157548+403679035
4182+403524322+403405592+403779113+404211999+404342701+404127168+403784768
4168+403733274+404118073+404531843+404400512+403861959+403930816+404767286
4155+405225109+405172391+405252791+405083327+404335326+403633197+403534244
4141+403473291+402935631+403130263+404368829+404652888+403536526+402760810
4128+402975715+403620166+404028082+403676389+403188735+403247108+402860292
4114+401779449+401836301+403686609+405378499+405489391+405215386+405639871
4101+405846409+405169448+404394526+404076468+403750802+403277270+403156556
4087+403254119+403031938+402550403+402255859+402405115+402609007+402496097
4074+402631893+403146931+403151032+402681469+402743116+403291723+403219526
4060+402545375+402430978+402825566+403063853+403490588+404163944+404270306
4047+403636636+403093288+403114388+403168825+402779793+402156443+401844337
4033+402201058+402854140+403217674+403258518+403248596+403440020+403525976
4020+403060976+402623824+402843954+403357405+403816881+404327752+404702365
4006+404774397+404512198+403494821+402064567+401111980+400985477+402055704
3993+403738235+404564783+404396676+403900125+403268308+402650050+402230691
3979+402180123+402594753+402989506+402861979+402502447+402616415+403513606
3966+404614756+405004978+404193974+402959245+402394267+401924803+401168732
3952+401268776+402553148+403697721+403636570+403014608+402931133+402992681
3939+402142618+401033201+400837213+401045570+400904384+401054996+401663761
3925+402039664+401985392+401975437+401998852+401743599+401684068+402192690
3912+402856819+403239865+402917342+401405068+399352489+398631111+399117145
3898+400029285+401073814+401114030+400000611+399940121+401165789+401608729
3885+400723741+399570470+398937793+399448565+399966579+399658112+399390026
3871+398963986+398606241+399168639+399167382+398871813+399851222+400974464
3858+400571277+397373628+392691354+394162717+398992958+402064369+402749102
3844+401432287+399004731+396548403+395648334+396953276+398344802+399197941
3831+400328393+401517978+402314033+402097309+399368000+395994504+396908132
3817+399068462+400195970+401589811+402380211+401445814+400047409+400350750
3804+400008251+397530260+397315751+399562929+401868679+403529184+403982012
3790+403926451+404146052+404007974+403413727+402904609+402160643+402096714
3777+403687072+405243464+405312652+404263856+403706651+403803454+403851806
3763+403931610+403446436+402664701+402893794+403234574+402138716+400011558
3750+400942748+404934666+408741048+411869575+414753862+416948488+417451058
3736+416270866+416117178+418770486+422037058+423731992+423758681+422650719
3723+420211687+417478211+416005525+415338188+414100052+412144276+413218570
3709+419365163+426086655+431166693+435709401+442431290+451171496+459643483
3696+467081128+472648125+475594786+476686775+478361798+480320518+479980896
3682+476048674+469139395+460888035+451645987+445192150+442859414+439672017
3669+437352278+437762179+437163732+434283215+430639120+427513040+424746458
3655+422590990+420635743+416851520+412003552+412483633+416546525+419394531
3642+420546050+420917818+420558452+419280993+417617215+415738365+412355179
3628+409044819+408771078+408038522+404701968+399275298+394410761+391961873
3615+390064900+388373142+387820368+387855425+388197262+388711904+388396524
3601+386845655+384883859+383356141+382299639+381295459+380057621+378123705
3588+375055800+372214110+370700910+369695274+368349289+367011572+366226298
3574+365493147+364636767+363577918+361567440+359766740+359891457+359947713
3561+358593295+356686730+355471315+355005853+354135153+352574163+351423835
3547+350910814+350453653+349968446+349615628+349220908+348675608+348267692
3534+347973049+347134661+346190143+346512004+347174645+346204695+344598958
3520+344256261+344626673+344503511+343906949+343466390+343538686+343766754
3507+343742347+343521654+343136756+342669706+342301278+342179604+342275878
3493+342006800+341116985+340434368+340595365+341432529+342485294+343001059
3480+342692328+342165317+341894122+341949783+342268206+342419314+341991323
3466+341256551+340859019+341335131+342232024+342429600+342002468+341607020
3453+341377331+341475722+341851657+342216447+342326016+341895346+341709479
3439+342627968+343660195+343917697+343952390+344361167+344899223+345141182
3426+345252041+345368357+345443167+345616732+345997330+346653323+347677678
3412+348716122+348976800+348699024+348922627+349975623+351873654+354002201
3399+355017263+354965537+355143137+356025048+357393258+358819544+359833018
3385+360845863+362656716+365171583+367665350+369645533+371209466+372923053
3372+375354709+378491306+381828918+384862296+387381198+389729843+392519807
3358+395893038+399475882+402903253+405954457+409081000+412791174+416407918
3345+419769772+423620934+427904751+431916215+435032340+437486685+440018286
3331+442657903+445074578+447524027+450116681+452228096+453734318+455000433
3318+456272104+457320437+457710692+457983375+459071858+461310635+463696255
3304+464262721+462383309+460017599+459463039+460015417+459682178+458055176
3291+455357219+452067331+448787960+445787357+443482368+441853381+440147534
3277+438074648+435777034+433489871+431677398+430442702+429431444+427975261
3264+426178531+425281042+425305549+425124245+424432930+423406757+422160617
3250+420936405+419895415+419242828+418925861+418254555+417274153+416555918
3237+415599460+414457301+414229167+414548151+414454523+413953243+413078938
3223+412024586+411040117+410293869+410078434+410319764+410593539+410224714
3210+409426046+409038899+408705892+408250516+408471672+409069226+408942724
3196+408274395+407922569+408213045+408973713+409327126+408774815+408335645
3183+408581738+408502264+408089552+408399508+409074816+409386690+409593757
3169+409833830+409776019+409238558+408328667+408025656+409141490+410405356
3156+410337127+409718870+410391333+411946634+412005900+410501266+410197363
3142+412270910+413928273+412925945+411156168+411542951+413874696+414766695
3129+413195353+412157406+413932837+416308899+415555176+413103346+413460992
3115+416847286+418089225+415184930+412856162+414590683+418332077+419038109
3102+416081459+414539123+417081671+420173191+419119732+415733999+415149575
3088+418673584+421785740+420074139+416961717+416749723+418521152+418944216
3075+416680171+414801520+415915998+418632342+419258901+416936152+414961459
3061+415382604+417268233+417965336+416788087+415787808+415733239+415885405
3047+415438331+414880662+415178910+415842444+416012073+415669640+415376320
3034+415451792+415857029+416422073+416544474+416118434+416019382+418129706
3020+427008287+443288430+454914411+451871608+441415997+433013561+428303870
3007+425431158+423136786+421703687+421541235+421817556+421611481+421405307
2993+421794471+423056519+424709648+425324003+425103839+425450869+427191575
2980+429617014+430027510+428138044+426968236+427794421+429552026+430279126
2966+428939259+427327404+427693285+430610678+433406429+432356179+429313011
2953+428187455+429622967+432330118+433485109+432018905+430290106+430367595
2939+432180134+433091017+431507902+429993710+430663395+432865859+434445006
2926+433290411+430858854+429969534+430664883+431522189+430850784+428668197
2912+427338086+428011839+429846967+431248084+431088278+430140783+429796234
2899+430600690+431966684+432144548+430694649+429530893+429911194+431185742
2885+432004982+431791697+431480683+431880662+432528420+432852333+432806130
2872+432506328+432242012+432554515+433541002+434232945+433948058+433511369
2858+433605658+433768342+433522117+432934815+432365274+432008454+431897661
2845+432111211+432596715+433151110+433504026+433709837+434112693+434584307
2831+434913577+435483317+436203769+436341351+436133920+436361988+436825797
2818+436965859+437074237+437617586+438161893+438391053+438734378+439178741
2804+439388024+439562448+439948801+440454777+440912104+441128895+441100452
2791+441063543+441197156+441731840+442706255+443410237+443213488+442647849
2777+442549954+442969678+443553738+444023533+444216941+444343378+444787178
2764+445377224+445712150+445953480+446298195+446465905+446372343+446379652
2750+446563502+446705846+446987856+447630289+448150917+448062977+447908859
2737+448316511+448887177+449207914+449581865+450139468+450384568+450034562
2723+449653699+449921619+450788086+451665797+452169756+452422067+452613292
2710+452714064+452731030+452814869+453018893+453315454+453738485+454202691
2696+454417298+454230505+454055849+454399671+455043725+455568321+456015693
2683+456432506+456612089+456498155+456419641+456669173+457132585+457722301
2669+458361129+458606957+458355970+457968922+457657181+457707021+458182736
2656+458530891+458533801+458691193+459156193+459581241+459892089+460128525
2642+460412121+460836078+461081046+461194121+461479834+461817869+462078943
2629+462102854+461895556+461851206+462072328+462502503+463122645+463593466
2615+463780888+463917907+464084989+464315174+464619342+464886965+465093172
2602+465375975+465844315+466346223+466604553+466639808+466782450+467105105
2588+467381095+467541365+467574404+467509218+467519305+467711655+468123077
2575+468532813+468514788+468336362+468556162+468922572+469155568+469372854
2561+469538911+469724647+469965315+470035330+469922090+469883130+470088114
2548+470565615+471144813+471282296+470835552+470500759+470634901+470925642
2534+471238078+471604687+471958860+472330628+472753361+473148677+473380648
2521+473325780+473132405+473145304+473450332+473782710+473943840+474012002
2507+474211793+474712643+475278745+475599317+475771658+475922138+476181294
2494+476710984+477219970+477472346+477702365+477784650+477517556+477302618
2480+477402464+477710336+478010370+477999423+477779854+477807933+478253585
2467+478863971+479244371+479358372+479571095+479985559+480327364+480365794
2453+480079485+479800982+479944583+480368241+480612978+480628291+480573589
2440+480534332+480795605+481398715+481859316+481896721+481785399+481920401
2426+482244015+482432628+482520964+482877949+483606338+484219040+484384534
2413+484401798+484539612+484740097+484873908+485043174+485438886+485799774
2399+485929649+486354433+487819512+491249528+497966688+509118608+525217282
2386+545800953+569266596+593559218+617294236+640239285+662916578+686122767
2372+710010184+733200962+753838938+770637526+782519819+791201618+798692675
2359+800280222+791348063+774547425+754298249+734871388+723895481+727803527
2345+742210708+749155341+743335372+735609368+728772883+723537041+723692217
2332+727320801+727195522+723089702+721369204+723104982+722884322+716862545
2318+705930491+695056712+692021316+697354193+700527501+693850160+678931083
2305+661349669+647755940+639801603+633427141+625742345+616333744+604931268
2291+592771100+581877410+572161037+562982289+554966835+548646215+543847988
2278+539927572+536170436+532409727+529078068+526671910+524919332+523138311
2264+521312940+519704954+518242851+516841337+515501173+514353292+513541130
2251+512891090+512225969+511576557+511074384+510784437+510472828+510049698
2237+509811874+509831618+509903286+509954714+509997807+510125070+510416075
2224+510701227+510781692+510724014+510894403+511368266+511674683+511789808
2210+512195244+512756121+512996327+513143797+513540965+513912105+514084446
2197+514313076+514769708+515317984+515842415+516457663+517025717+517204738
2183+517203349+517443191+517775768+517981611+518158483+518267523+518328178
2170+518513616+518641673+518620109+518742279+518870799+518740295+518604201
2156+518552410+518415060+518248374+518085492+517875184+517731021+517859673
2143+518395481+519148972+519775630+520180437+520397691+520680725+521281355
2129+521986296+522562022+523079806+523587006+523818976+523692408+523677690
2116+524016783+524418845+524675918+524941027+525356021+525757885+525935485
2102+525920172+525959760+526265383+526711366+527042091+527311698+527430958
2089+527156787+526865583+527134066+528032282+528925372+529161609+529264762
2075+529962791+530792713+531311885+531880302+532426462+532685585+533020874
2062+533588564+534079261+534525243+535377886+536546768+537488045+538200823
2048+538897562+539582461+540232534+540851685+541414083+541872236+542261070
2035+542657775+543140435+543517925+543782174+544322943+544714422+544410585
2021+544064547+544209868+544414785+544360778+544290697+544377645+544507057
2008+544419349+544033525+543693440+543684015+543806449+543886088+544053931
1994+544198425+544217607+544444120+544880148+545110598+545147804+545430376
1981+545952690+546284341+546471995+546827259+547359992+547848671+547924440
1967+547641207+547724318+548306031+548856887+549261330+549593114+549939449
1954+550485443+551059351+551365999+551510956+551750599+552143534+552655430
1940+553144606+553616451+554260075+554906974+555476350+556056707+556368316
1927+556367985+556365802+556570257+556840128+556983002+557480809+558371716
1913+558835327+558811118+558854311+559116973+559442869+559908530+560664105
1900+561515060+561987138+561822569+561432379+561288249+561484634+562255223
1886+563301572+564035847+564532861+565020086+565318532+565299416+565346247
1873+565385669+564498003+562971111+563170869+565152640+566841521+567459382
1859+567370814+567438612+568161511+568863773+568860598+568402941+567839451
1846+567097569+566815592+567923852+569338165+569992273+570195008+570405812
1832+569832004+568432177+568195245+569077885+569897620+570938875+572101175
1819+572894916+573169087+572907020+572199930+571785002+572489116+573556035
1805+573886430+573498092+572808993+572590185+573240854+573448483+572371642
1792+571820522+573523360+575750198+577040621+577287938+576998685+576976858
1778+577569914+577549541+575619826+573248990+574434904+577839389+579794437
1765+579747540+579103222+579509220+580508208+580968578+581308629+581192942
1751+579557572+577575007+577839653+579376070+580112264+579712616+579511403
1738+580089643+579579598+577724892+578217341+580423410+582413516+583997425
1724+584871796+584703920+582893596+579120816+577091818+580167032+583937563
1711+585849353+585581532+583628666+582004475+581522542+579870504+577299778
1697+577166495+579715196+582975418+584427103+583845622+581996868+578554549
1684+576278697+579542028+582969928+584054045+582952267+581096039+580151687
1670+580019529+581429609+583146337+582861053+581594707+582357094+583709363
1657+582706009+578222633+573945100+576187417+577221462+576382412+579203101
1643+583330815+584988740+584153791+581288389+580074032+584595508+589023851
1630+590712534+591492252+593177759+595486419+598997728+602339970+603426534
1616+604663512+608484711+611765438+613373027+614828416+617188404+619423643
1603+620888160+622346658+624288015+626303057+628219675+629893475+630863955
1589+631761477+633378127+635270404+636792335+637620735+637366276+635833629
1576+635492453+638304080+640441755+641000085+642702592+645580231+647857406
1562+648561652+645585324+641862814+646573002+652320674+657037608+661267649
1549+664959269+667243323+666785996+662832243+658452186+664766985+675356143
1535+681297289+685239334+690023406+694033580+696381200+697789626+698517949
1522+700340575+705481433+712075100+719199713+725716850+730363935+732285382
1508+730590284+733578650+745867271+755276997+760774575+764400513+768628040
1495+774572824+779478404+781461432+783343126+790404438+800073188+808320282
1481+814362696+818124166+819763239+820342075+822275163+829446408+839319678
1468+846797969+850854445+853261330+856012633+858221744+860239829+866826419
1454+875827632+881952530+885435727+888691650+893508132+898185446+900930200
1441+901645360+901172158+902443598+908505459+915901465+920281258+920670918
1427+920284698+920541936+919980629+917108413+911864899+909606906+912184379
1414+914115814+913086134+908879906+901901936+895165594+892315207+891514521
1400+888948028+884495938+878960261+874930706+875811758+877238903+872786549
1387+864928321+862426121+864370388+866320542+868065580+868734703+867457376
1373+867676118+870109659+871253042+871460605+871431436+869031826+866374979
1360+867605938+870473589+871873020+871373625+869495635+867621019+868110294
1346+871225261+873647096+872823193+870868211+870562554+871112947+871982754
1333+873089228+873633470+873678118+873565274+873997333+875333132+876893626
1319+878870833+882020791+885115783+886603517+888149459+892088263+897501903
1306+901574254+903828807+906663188+910396148+913382927+915890948+918830565
1292+921958035+924986617+928046618+930666887+932758261+935049921+937072636
1279+938387401+940053197+942172153+942999032+941842354+940149108+939700512
1265+941535111+944369624+945477619+945090406+945471666+946846689+948123222
1252+949190935+950637923+952431313+953688532+953854820+953393128+953429442
1238+954613636+956165729+957749109+959575505+960324862+958962407+956000102
1225+953382743+953841195+956664992+957548359+955161648+953367001+955277997
1211+958306910+957951777+954823779+952559767+952571805+953222342+952067185
1198+950645001+951229657+951998923+952745833+954635927+955757482+955003892
1184+953237886+951334563+950854284+952168122+953283063+954300903+956757066
1171+958814573+958506139+956581319+955104763+956213420+958614749+958855517
1157+957141302+956956295+959659444+962465977+962826930+962288708+963706792
1144+967090176+970155535+972225808+974827689+978460308+980895371+979973706
1130+977549557+976633051+977648907+980048119+982205968+982077449+980666443
1117+981091821+984671392+988934373+991006300+990888363+988696780+985378284
1103+984862750+989746369+996866551+1000499765+1001313415+1002452564+1002125279
1090+1001399337+1002719923+1003852392+1003927598+1004786426+1008275311
1078+1014454778+1020698273+1024631984+1027552486+1032055771+1034258665
1067+1031109633+1029988012+1034986459+1039658282+1037962522+1031719292
1055+1028453844+1032872067+1039546894+1041482959+1041025566+1041583698
1043+1041402064+1040272968+1040665407+1041690324+1041205282+1040086770
1032+1040998248+1045778748+1050899299+1050491251+1046076202+1044190011
1020+1046988144+1051570473+1054554540+1054040262+1052115045+1052812280
1009+1055327378+1055405561+1052987498+1050573800+1047427942+1045484072
997+1047947577+1050435358+1049455750+1048685161+1050140682+1050967561
986+1048946896+1046206177+1044208068+1042741170+1044733921+1050043383
974+1052056110+1048564314+1045259708+1046289189+1047924228+1046455346
962+1046369159+1050816287+1055662138+1056596437+1055966273+1059014831
951+1062485858+1059608813+1055496908+1057392426+1061761900+1063587966
939+1063907645+1064914108+1066369431+1065796548+1063122834+1061584830
928+1063224433+1067290831+1069440941+1066774635+1064284738+1066835819
916+1071288636+1073574807+1073741823+1070434307+1064387329+1062354030
905+1064700195+1065416479+1066576861+1070062241+1070690090+1069597903
893+1070122632+1069733236+1067854254+1066530229+1065538054+1063581219
881+1062122391+1063514413+1064490118+1059947211+1051771157+1044660699
870+1040085116+1038944644+1042405285+1046203002+1043425176+1037319460
858+1035362361+1036520230+1036920275+1034799996+1028823198+1020345522
847+1013161775+1012422935+1018594398+1021471773+1015733361+1008368510
835+1003150328+998936824+994978309+991852493+989936602+986621943+981613177
822+980027283+982354927+981805725+978471420+978658147+979747556+975529951
808+968849171+964998538+963462187+962545682+961807636+960921954+959823483
795+955996596+949106467+945461810+947988484+949585027+945600186+940886228
781+937937681+935869061+935242271+935375289+933914873+930588241+928361667
768+927896204+926393191+921952941+916208312+912971703+912376200+911423844
754+909490755+907374710+903422214+898155482+896132767+895994590+894587222
741+895623847+900410366+902971038+900162124+897158213+896536516+895828830
727+896387491+899311432+901901407+901383756+896686798+892211425+893015352
714+895659632+894078567+890296659+889349859+891355310+893595113+894677312
700+894783673+893211339+891518490+892689654+893384110+891764748+890845398
687+888705143+885423292+884638282+883910555+880932706+878404907+878787358
673+883611844+891227055+897084131+897910216+891739414+880321195+869419105
660+863852009+863582600+865535003+865202426+863276415+864967876+871561080
646+876276625+865324860+840828248+827307212+833871048+843624198+845315196
633+842619588+836579488+827182264+823672874+838597044+861168175+864161436
619+853952943+847720428+842282512+831788802+819630553+816300084+823981109
606+831067160+834947492+840725260+845607491
##END=
