##TITLE=Sample description
##JCAMP-DX=4.24
##DATA TYPE=INFRARED SPECTRUM
##DATE=25/8/2023
##SAMPLING PROCEDURE=Instrument type and / or accessory
##ORIGIN=Default
##XUNITS=1/CM
##YUNITS=ABSORBANCE
##RESOLUTION=4
##FIRSTX=4397.6552
##LASTX=599.8556
##DELTAX=-1.9287962
##MAXY=2.0148394
##MINY=1.2531829
##XFACTOR=1
##YFACTOR=1.8764654e-009
##NPOINTS=1970
##FIRSTY=1.3370469
##XYDATA=(X++(Y..Y))
4398+712534769+713628669+712024126+707343273+705103761+707064509+709185603
4384+710137707+711069100+712227418+713132129+714527091+716813613+718262066
4371+719120783+719526731+717944677+714574038+709621219+706253566+708231467
4357+710589395+707740517+703386074+701592152+703399288+709180330+715065496
4344+717577927+719539437+722145191+722183117+721433352+723566009+724143611
4330+719175418+712459742+708787088+708324536+707014575+705691655+708788549
4317+714116505+716623853+715493997+714434657+714649066+713370679+712532609
4303+713146105+712108174+711770393+714926495+719621389+722942856+721954160
4290+717981842+716120135+716987428+717899191+719318039+720812551+718419427
4276+714115679+714095350+717921108+720213730+718037493+713423154+710371175
4263+711382296+716278956+721938405+724536917+721602720+715326345+712207660
4249+714113075+715952038+714039763+711952021+712752101+713221959+712924454
4236+713720531+714539987+716979169+721192134+722231145+719368163+715624357
4222+712689017+711783035+711604710+711383122+713709414+717288554+719124150
4209+721371539+724457824+723925009+719847042+717320636+717517384+718836810
4195+720950916+722694015+721829199+717876956+713686670+712045535+713034676
4182+715158502+716384414+717262634+719535688+721434242+720975819+719047979
4168+718486322+720985857+722719617+721137500+719838974+720654936+723193985
4155+726078884+725549881+721466006+718190470+717652890+718309713+719350439
4141+720763062+721968835+723168192+723633603+722838161+723874948+728201122
4128+731692846+731021221+728366487+726550457+724822415+722860841+722596308
4114+723282226+724127919+727101123+729344701+726463740+722965854+723960013
4101+724330322+718977335+714472202+716292742+720718465+724283501+725429304
4087+723992731+722462262+721147918+719814198+719596041+721294987+725155368
4074+727915751+725670331+721414738+720440590+722261766+724644153+727333829
4060+728927762+729105452+729311094+729926115+730407916+729453398+727157600
4047+725918792+726849169+727793839+727636860+727771096+728305054+728522894
4033+727608908+725844908+726059317+729045481+731787377+732404684+732219625
4020+731375266+728643916+725629864+724567156+725107785+725521166+725540288
4006+727840660+732178459+732839983+729177620+726415649+726294500+728319539
3993+730246934+728631147+725538573+724881306+725572370+726439218+728727965
3979+731245033+731298524+729034935+727089879+727293869+728945931+731187158
3966+733457354+734238184+732780520+730034431+728087469+727179009+724911545
3952+723094880+726406056+732432700+734286911+731410652+728428173+728527405
3939+730558733+733024089+735048365+734511739+731652378+730183088+729960102
3925+729042431+728525181+729140964+729964295+730402008+730170763+729312682
3912+728461271+729514576+732415675+732787698+727772430+723601267+724853035
3898+728973058+733923590+736538493+733703210+730500032+731033673+730545138
3885+730004318+733584030+734814071+730631473+728184668+728619458+729006156
3871+728398950+729233970+732089646+733706450+733435945+734405836+736274341
3858+734908284+726283383+714047386+717095617+728569016+736403748+738466015
3844+735682762+733724047+733606964+729505619+724675028+723770952+724973295
3831+727831957+731581671+735021619+738160823+737083822+728337708+723801382
3817+726241898+730569342+737539577+743696836+743660752+738215013+734576030
3804+731813995+726954181+727883034+733699843+738246524+740984544+741643273
3790+740063697+737986501+737159358+738250272+740051245+740747837+740102640
3777+739065471+738561308+738668608+738517092+738337433+737949019+737905947
3763+740762321+743723836+742776687+740303009+738686650+736093220+729336823
3750+725533808+730970017+734691398+732439816+733159214+735810772+734445415
3736+726012941+718539623+723090624+733541974+740037968+739664610+736703604
3723+736062155+737578711+740851769+745950895+749980834+747593301+739191004
3709+736927733+741963012+746058132+744152844+740226965+742151629+746872315
3696+749181200+749020345+745155453+736773549+733978606+740370921+747044986
3682+748654865+747117853+745373039+740132308+734875948+735964766+736696107
3669+736595986+739592759+742405807+743370680+744061490+743691372+739025258
3655+733078088+730916907+728762588+722734228+719250572+720651124+723561562
3642+726086698+726970191+727492904+728258615+726799807+722196331+714158498
3628+708302174+712209121+718220201+720110623+715555365+708764281+706858930
3615+706013745+703982544+702226930+697973752+694755709+697438841+701214284
3601+702034057+700885269+699380657+697972227+697519141+698140133+696878455
3588+691743308+688450428+688987626+689149243+689321787+691761668+692769232
3574+688916474+684816018+683586676+681736595+678638240+679402362+682368196
3561+682946625+681367430+681221060+682043883+680933974+679221941+678195890
3547+675248161+671076807+670686233+673742850+675933953+676153253+676014825
3534+676330117+676452791+675260486+672489811+669282250+667842247+669463243
3520+671705614+671962841+672624746+675557228+677141950+675083050+672838964
3507+673271404+673250376+670149734+668098648+669737624+672873969+675009293
3493+676027340+677484369+677425859+673431115+670310969+672550354+677158912
3480+679311834+678039927+676050528+676348350+678640590+680393663+678853729
3466+675337228+674755179+677026645+678355410+677666760+676318809+675694005
3453+675429345+674726337+673152923+671132585+672022685+676307120+678792741
3439+678337813+678415889+678641035+677605073+676595730+677071687+679288963
3426+681128435+680787350+680358023+681505477+682620278+682281099+681582855
3412+682801779+685517057+688193836+691024100+691904988+688821118+684754459
3399+682802923+683261727+684656498+685954007+689062336+693757610+695735701
3385+694434508+693451529+695292144+700151704+705692354+708808116+708741093
3372+707803601+707207639+706749979+709150789+714867731+719944241+723316913
3358+725342142+726497156+729608789+734340783+738599743+742839453+746628047
3345+750229422+754561567+756941222+754671789+752462708+757076856+764503862
3331+768010579+768004290+765703092+764238757+765857276+767895973+769268319
3318+771150545+772972928+773669901+773892568+774109392+775256274+778262640
3304+781425794+783293536+783504896+782794900+781991834+779574570+776769336
3291+777163023+779631936+781115838+780113038+775652439+769835185+765780406
3277+763945191+763718076+765081782+768900869+772718369+770881756+764318485
3264+759674097+760502511+765089914+767338827+764468095+762583137+765373315
3250+767299185+763544198+757985125+756504400+758437576+759846768+759450032
3237+757723959+755760034+756127421+759919254+761397184+755927496+749904346
3223+749138127+751490656+754165275+754984413+752626866+750893169+752738613
3210+755864539+757904126+757431854+754865234+754167054+756704261+758903813
3196+759104881+758522831+756586923+752897371+750250196+750570063+750969531
3183+749716682+750118819+753401534+756515454+755959832+752864082+753051428
3169+757136319+759579249+758289173+755482287+754033898+755171124+756313051
3156+755600959+755798088+758677206+761424375+761097329+759604660+760700339
3142+763101277+763370575+761917675+760270314+761085386+765264300+766746931
3129+764265693+763879502+766007458+767723366+767899785+766005107+764241044
3115+765188002+766575340+765053766+763090159+765199500+769890582+772383636
3102+772339420+771346531+769798465+769061787+768694338+767083252+765773926
3088+766269450+767681310+768870312+768356747+767053202+769269463+773359563
3075+773377415+771857429+773929606+776217907+774094526+770417616+768279940
3061+766641791+766002693+768051428+771451036+772608845+770763847+769225120
3047+770595940+772991986+772345583+770300723+771528541+774091159+774209195
3034+773698806+774834635+776007691+775968684+776098600+776903254+778113792
3020+780816999+783729851+782587542+778614652+777828167+780578576+781885233
3007+780225039+779259150+781327452+783212664+781875386+780468290+782077153
2993+784597906+785560555+784914914+783801384+784242273+787161096+791117977
2980+794101282+794787010+794184695+794777925+795653223+794794061+793191615
2966+792056867+792866349+795742798+797322184+797025314+797207959+797001809
2953+794493253+791006738+790021473+793091748+796948381+798115720+798685508
2939+800283634+800154925+798353698+798227022+800114458+801914287+802864104
2926+802637879+800437501+797206816+794547824+793616812+794571711+794898884
2912+793481560+792503727+792302532+792003693+792963801+795281707+796729144
2899+797098626+797369830+798003973+798550764+797364176+795498340+795483093
2885+796646811+797303697+797285528+797062034+797492059+798665242+799564617
2872+800814035+802919946+804081503+804133851+804759608+806281627+807129099
2858+804877390+800404657+798300270+799667851+801334080+801933028+801957169
2845+801570661+801459359+802449262+804270056+805871232+805938001+804042370
2831+802402251+803427095+806474818+808311748+806926633+804807445+804835080
2818+806637133+807932228+807459512+807273500+808609380+809762234+809717891
2804+808319499+806399155+806064169+807178779+808210928+810035979+812371609
2791+812428785+811348226+812558256+814467482+813741096+811659072+810628955
2777+811247152+813188587+814281471+813357447+812590021+813488570+814628909
2764+815047435+816222461+817385099+816207977+815323594+817263695+819476144
2750+820386636+820883494+821027068+820109524+818286951+817161160+817336626
2737+818515781+820551493+821536377+819921988+818067523+819085633+821797607
2723+823415110+823480989+821654858+819318910+819252586+820492919+821275275
2710+822378767+824276939+826182544+827674514+828873236+829241130+828262853
2696+826769295+826494343+827387619+827525095+827962680+829992039+830574088
2683+828233947+825840697+826438692+829106894+829856405+828767334+828778832
2669+829736654+830393667+830563034+830127355+829431843+829714101+831050426
2656+831701404+830809652+829344746+828820444+829872732+831752163+833076799
2642+832614692+831325568+831581716+832887356+833396157+833896509+835443939
2629+836198469+834916016+834598183+836744370+837623480+835907381+835096311
2615+836306277+837669030+838283860+837919269+837180812+837356850+837785541
2602+837478126+837055915+837088823+837919968+839330367+840001484+839342247
2588+838686441+839285961+840123586+840052815+839803338+840083118+840815857
2575+841228539+840375921+839111384+838902819+839609576+840733969+842266152
2561+843562137+843833722+842948259+841362902+840283614+840473692+841956705
2548+843886959+844038411+843043743+843895535+845269024+844674777+843969165
2534+844891537+846354983+847461270+848071590+847734888+846752545+847165163
2521+849454989+850722957+849820787+848215419+846933919+846787676+846926740
2507+846134665+845699049+846667035+848054755+848673968+847788062+845289036
2494+844057978+846741427+850015947+850213458+849196809+849076676+849385616
2480+850135826+851920981+853359015+852865207+852362632+854143466+856070036
2467+855443072+853698321+852464532+851086341+849623467+849416618+851004643
2453+852762735+853177958+853396242+853412188+852542608+852921874+854233550
2440+854193463+853299933+852566050+853347262+855261507+854655380+851383147
2426+849561400+850965192+853765916+855358261+855091758+855161004+856582077
2413+857615687+857474082+857038847+858073030+860485721+860529873+857226066
2399+854381381+854134826+855362835+856377896+856712056+857436028+858641103
2386+858497656+856505779+853970541+851708858+849770854+847332498+843560930
2372+839726849+836497816+832638959+829516209+828874316+828481582+826967504
2359+827797950+831509992+833255759+833570543+836748055+840858549+840802580
2345+836853259+834949051+835227370+835078586+837087997+840859120+842117241
2332+839868582+837646795+838992776+842411379+844185670+845344941+847968610
2318+850708918+852859870+854332083+854660526+854775894+856322244+859401160
2305+861696831+861060210+859278677+860344052+863684260+865366880+865643801
2291+865999498+865624044+865307036+865570616+865640307+866594317+867645144
2278+866870793+866477106+867258254+867175095+867019323+867446680+866860629
2264+865429265+864994793+866398648+868709248+869942657+869482011+868583525
2251+868391034+869275797+870802517+871921701+872200020+872055937+871622481
2237+871272184+871358393+871134708+870925826+871527188+871878946+870905497
2224+869294983+868571010+868725321+869320140+871201159+873811106+875751715
2210+876767411+876027874+873417864+871571404+872276381+873883338+874669886
2197+874942996+874478856+872902647+872362463+874232936+875837289+875347483
2183+874843002+875391063+875395828+874620525+874780553+876151819+877168150
2170+877015300+876165922+875446969+875231352+875181737+875684057+876962571
2156+877669010+877072031+875665189+874731255+875636157+877021526+876727706
2143+876117704+877240763+878940218+879429134+879008193+877947011+876415907
2129+876616150+878947269+880085830+879236769+878831647+879331745+879773713
2116+880161683+880054637+878769326+877772371+878471948+880399598+882368795
2102+882689170+881422154+880182330+879399974+879230861+880291599+882163978
2089+882765531+881622841+881048034+882349418+884332020+884421532+882401448
2075+881034439+880830068+880897027+882163534+883824680+883596359+882849008
2062+883456468+883868388+883032987+882297388+883180691+885464482+886992536
2048+886199317+884351905+883403295+883428135+883834210+883773603+882853963
2035+883007003+884952441+886242199+886357059+886833015+886606472+884882115
2021+884115006+885165770+886624642+888078367+888615565+887458328+886356360
2008+886903024+888757933+890209753+889465960+887744207+887212281+887108984
1994+886378405+885537603+884914768+884914832+885816494+886729972+887466078
1981+888322635+888514237+888296271+889340364+891576699+892287521+890732657
1967+889690661+889623066+888894964+888363738+889258920+890925022+891670467
1954+890906599+890693651+892112817+892788253+891692893+890689267+890301298
1940+890018659+890501985+891726880+892374301+892567491+893311856+893476650
1927+891872933+889309997+887851570+888780931+890179196+891043376+892631401
1913+893731272+893210528+893004950+894123816+895022937+895303987+895719719
1900+896110610+895981838+895381810+894899246+894631664+894583255+895635289
1886+897198094+898440015+899573429+899803276+899184698+899152616+899513458
1873+898813881+896150570+892606752+892352574+895657651+898603919+899736634
1859+899449739+898545854+898727355+900928177+903506741+903924569+902151676
1846+899040996+895844934+896169756+899231137+902006957+903498927+903773053
1832+902387367+900140740+900405972+901621148+901389332+902814787+905623515
1819+905961361+904074306+903281596+903374221+902802463+903227978+905018913
1805+905776365+904214895+901925577+902197861+904112360+903269907+898165254
1792+894355124+898265438+904482986+907426966+907346031+906204485+904983020
1778+904477268+903818095+900665931+895944737+896760826+901845340+904480064
1765+905049534+905573709+906154933+906177231+905426577+905965554+906321378
1751+901497712+895059910+896150633+901363793+904134277+903640787+902625027
1738+902757866+901406739+897340461+897382009+901950861+906830178+909340068
1724+908640935+907531662+905508973+898813055+894260911+899231772+904267560
1711+906206391+905772172+901553490+896121029+894291468+892351812+888497212
1697+888320475+892500151+898345611+900909754+899459332+896754346+890387760
1684+883525524+889675604+898372929+901672606+900573878+899153823+897847420
1670+893669967+892277801+896438228+898649659+896881530+896732111+899064946
1657+898853840+890816642+876935572+875938426+877879417+876935762+881241733
1643+888570142+891788249+888763015+879624358+872238264+877289490+884472800
1630+887231848+886865669+885844573+886197094+890911935+896699330+896839284
1616+893441645+895702693+900326498+902672483+904365903+907316744+910094153
1603+912095622+913969272+915553994+916766629+917920118+919573070+921849491
1589+924140080+925857259+926573926+926132592+925433015+924823712+921154806
1576+915599862+917730866+923184990+925360529+926771500+929946153+931760149
1562+929620124+916646433+898176244+905802603+918351160+926009474+932038087
1549+935911110+935475495+929355019+918880100+911415104+917792553+927942587
1535+932215078+933255486+934057472+932703677+928295806+924322979+921114846
1522+917326062+919059250+924872248+931190361+938793341+944313344+943334559
1508+933678333+926877910+937322780+947137256+949445378+947201737+945803027
1495+945720186+944483220+941676461+939929932+942328710+946320849+949085234
1481+950137332+949895669+948142850+943690764+936678473+934317812+937684512
1468+937177236+930917442+928832750+933828388+935679421+928903775+922609040
1454+927749904+935979658+940821938+941399159+941828422+944394979+947800431
1441+949717852+946536402+939456453+938387457+942209848+945337744+948520782
1427+949675479+947465381+945788162+944772910+941518783+941479967+945128099
1414+946089033+945267481+945770247+947654951+947061148+942407104+936961429
1400+930772216+925078271+921813280+919917141+920789580+922218021+920102899
1387+916859762+917890387+921724658+925264791+926608040+923640681+917943306
1373+914953903+916464868+920196222+923435039+922663039+919142028+919540353
1360+924205832+926624812+925171594+923916777+924365670+923190263+920805081
1346+920642892+921645565+920645243+917515631+915722853+917960268+921920580
1333+924057239+923942569+923363061+922681844+922660371+925032276+927522154
1319+927901293+928286848+929535694+932477134+937999170+942908281+945614030
1306+947986316+950132059+951986015+955337469+960419315+965084794+967943964
1292+969217523+969389622+970147201+973038135+975914140+976699481+976480497
1279+976052187+976406804+979326263+983555173+986184560+987549664+987945447
1265+985704855+982514447+981099538+982198329+985921742+989050146+988202230
1252+985673091+985798624+989947298+995100360+997109770+996329893+995615767
1238+996303783+998199350+999319042+998439742+997318780+997683497+998916715
1225+999067342+998220441+998709739+1000313392+1000350366+999111748+1000259774
1211+1004175933+1006238200+1004579912+1002017802+1001379784+1003354000
1200+1005767771+1007096790+1008309805+1010105823+1012527408+1014564771
1188+1014101902+1011295651+1009046674+1008581517+1009320737+1011709667
1177+1014683125+1016047212+1016087045+1015216956+1014225084+1015802309
1165+1018536201+1018020475+1016731733+1018768969+1021169335+1021356935
1153+1020905374+1020235782+1019150904+1019633721+1023057406+1024975272
1142+1022651204+1021670449+1023372191+1024187136+1024101436+1023885566
1130+1024608458+1025544616+1023043938+1019740132+1021891465+1026091598
1119+1024417682+1019552786+1016992201+1016071861+1016520056+1019564221
1107+1024460309+1028107742+1028362746+1027650209+1029409508+1031210608
1096+1029633637+1030440895+1036748463+1041319984+1042443424+1044369358
1084+1045264794+1044052160+1044922121+1046936995+1045759365+1041956985
1072+1037615311+1036630808+1041801086+1047891386+1051126709+1053741420
1061+1054668303+1053493341+1053870510+1058127564+1065322690+1067773308
1049+1060069508+1051257768+1049356229+1051421545+1053723823+1056396599
1038+1058776763+1059867042+1060461352+1060022115+1056705158+1051469636
1026+1049757603+1054449320+1059341851+1059946389+1059896138+1060938833
1015+1059730201+1053593081+1046813876+1045027896+1047166715+1050890890
1003+1055066818+1055070693+1049322622+1045529772+1049065458+1054611762
991+1056403397+1056420867+1055996306+1053338077+1049921253+1048110178
980+1047377312+1047937444+1051582145+1057715962+1062859050+1062677866
968+1055566915+1046836429+1043697860+1046836493+1051588181+1054973240
957+1056128890+1054468950+1051663653+1048124536+1045331118+1047674880
945+1052141451+1053953606+1055840343+1058204370+1057377609+1054835701
934+1054987661+1056063328+1055467048+1056913341+1061273502+1065166219
922+1066755579+1064449807+1058995556+1055149215+1057094525+1063632956
910+1068456876+1069030031+1068756096+1069348310+1071265350+1073741823
899+1071784760+1063906383+1057711325+1060445661+1067341567+1066920245
887+1059395786+1054400784+1055283451+1057387392+1057691948+1058645259
876+1060550864+1060970280+1059089324+1055559038+1051744461+1049488114
864+1048780977+1047922896+1047415493+1048322364+1048414036+1046726461
853+1045463893+1045477107+1045452839+1042173300+1036737727+1035234512
841+1035345179+1031697301+1027865762+1027880501+1028236007+1023831566
829+1016189262+1008825658+1004707541+1006282289+1011362293+1013647990
818+1008331151+1003355842+1005722284+1008412976+1007449310+1003077079+998211675
804+998445650+998716981+996158175+995967525+994600262+992742050+1000496863
791+1008384070+996519970+975435070+964001377+962051302+962230326+961546059
777+961112285+960209035+956164103+951700009+949506620+947150533+945957402
764+948349700+951405364+952202902+949563732+944607164+940773211+937049925
750+931662442+927858729+925294713+920279572+915434052+915047163+915859758
737+912443569+908124701+908795373+913713252+917938351+917939622+915497200
723+915214624+917696815+918126650+914122122+909005653+905145335+904125574
710+906939638+909861130+908881455+904720519+900551897+900783396+904795166
696+905069482+900409403+897877469+899111830+898052744+894446224+893366173
683+894846454+898757404+903203456+903292967+899926966+894388794+883785356
669+870497580+866907005+873327653+878165422+879916716+882957769+890654390
656+892947647+883670306+873928189+869396819+869043917+868642607+862599318
642+857262595+856909058+854293394+848200998+850649963+866945948+872034718
629+865083542+878434276+882255396+850465667+836054386+848584012+842271044
615+803923762+780599922+802418133+850836801+882398780+888569698+878268466
602+864915001+864199160
##END=
