##TITLE=Sample description
##JCAMP-DX=4.24
##DATA TYPE=INFRARED SPECTRUM
##DATE=25/8/2023
##SAMPLING PROCEDURE=Instrument type and / or accessory
##ORIGIN=Default
##XUNITS=1/CM
##YUNITS=ABSORBANCE
##RESOLUTION=4
##FIRSTX=4397.6552
##LASTX=599.8556
##DELTAX=-1.9287962
##MAXY=2.1045425
##MINY=1.3147763
##XFACTOR=1
##YFACTOR=1.9600079e-009
##NPOINTS=1970
##FIRSTY=1.385589
##XYDATA=(X++(Y..Y))
4398+706930303+705866851+709045104+713482956+714594395+715118184+716355523
4384+714336089+710423060+710985835+716841664+721711404+721625160+718233731
4371+713734693+709860954+708444741+710213167+713613051+714734405+713191076
4357+713964717+714926842+711670495+710620910+713910830+715447042+715312446
4344+716053365+717047421+717738649+718023534+718169990+718145905+717308828
4330+716945424+717637991+716115889+712659989+712616867+716032868+717518295
4317+716016508+714387179+713916182+715310560+717804701+719100366+719691302
4303+720411967+719602382+717260719+715285989+715721162+719034558+721829032
4290+722471604+722007480+719565950+716866722+716459526+717724417+719724266
4276+720480391+718065318+714429692+713958331+717159878+718907139+717261996
4263+715990963+717364479+719182353+719053170+719041127+719812639+718547627
4249+716111571+715398021+717146802+720915077+725354389+728236505+727046789
4236+722001885+718276184+719411952+722127297+722502744+721207443+720365440
4222+721109278+722776012+722817613+720845924+720163879+721620051+721594081
4209+718162814+715309344+718118110+724758771+728063227+724698254+719275895
4195+717780068+719198227+720085785+721392946+722966503+721887785+719769821
4182+720155425+720865569+719289215+718978117+723982028+731871096+735796959
4168+732777327+726634485+724021197+726704429+728788515+727241294+726331597
4155+727184062+726180761+723429532+722284093+723230587+723938237+723870969
4141+724645279+725115363+723812824+722261468+721592500+722522450+725520126
4128+728549793+728434355+725889855+724417079+724934543+725978228+725322519
4114+723060957+722253014+723771101+724527408+723419922+723270181+723042772
4101+721417944+721128984+721235725+720316661+720902548+724140649+727382946
4087+727319023+725286999+725365641+727560847+727703228+724699227+722771268
4074+724519684+727666006+729221863+729300869+728893370+728586772+729193338
4060+729599196+728072775+724976448+722113065+721437771+722780513+723965971
4047+724382959+725151065+726090686+726006936+725225266+724817341+724939713
4033+725331399+725814498+727278334+729699307+730415715+729600716+729526697
4020+729461680+728432227+727270914+727034807+726776988+724776834+721996046
4006+720565114+721582768+724711939+728515977+731977290+733734829+732520237
3993+730659789+729672424+726917545+724140405+724963798+726507004+726564176
3979+727622762+730400753+733058319+734038203+733897950+734277655+734162643
3966+732467566+730831365+728740649+726152054+726057782+728085974+729855738
3952+730218230+729422146+729845763+730573606+729020181+728642058+731431119
3939+732313325+730824978+731513592+734126454+734514856+732881999+731151404
3925+729036481+727942376+728882726+730072260+730997649+732401637+734230032
3912+736190895+737869428+737852277+733472934+726071162+722937491+723550504
3898+724850610+728935215+733117680+732723865+731738629+734963592+737622800
3885+735060115+730948566+729183242+730237145+731571067+731894756+732960458
3871+732378464+730914142+734236236+736685733+734471065+733276605+734534501
3858+737899595+741451227+733993074+724527104+728326033+733454871+734179307
3844+731275174+726457253+722603646+722111909+725561301+731261124+736293987
3831+738182108+737154054+735129876+734151269+734207224+734120859+734724809
3817+734000677+732383816+735514629+741372768+743659509+739014015+734258192
3804+734246393+733895031+731967376+731121602+732469938+736402369+739710353
3790+740349397+739917691+739208581+739198241+742020023+744266136+743427782
3777+744465385+746553729+745129853+740793937+737752896+737437661+739389340
3763+742560660+741930191+736566160+735688029+741510588+746137593+742333555
3750+737207150+738977766+737884694+733744499+737860183+744067739+743206212
3736+734906177+729934075+733971239+740019505+743408806+743055802+739993717
3723+738276259+739009089+739874022+742028599+746082003+746037968+740473168
3709+740827327+746004091+748760977+747102759+744758846+745809465+746818300
3696+745472456+743389465+742144889+742159972+742439626+743623868+745825521
3682+747282849+747280173+745345827+738090025+731453744+732825010+734049820
3669+734096774+736660797+738795060+739864898+741276489+742820608+741329342
3655+736452364+733501703+730851800+724038226+719839522+721298431+723849439
3642+725612573+725564342+724333147+723910868+723401372+720941899+715707051
3628+710035996+709512208+711044345+711178516+708001053+703739582+704873404
3615+708429597+709590423+709471458+707729184+704113873+702589886+702486004
3601+700398694+698266803+698139870+696522218+694237180+695198636+696004937
3588+691802340+687756479+688595198+690167842+689508240+688256669+687962965
3574+688042397+687800878+686036162+680881841+675235722+676409929+681300227
3561+682928461+681085773+680122736+681155048+681851689+681575137+681242751
3547+680121702+678813446+677604876+675466598+673978069+674416466+675810965
3534+677222495+677795975+675454373+671465014+670801519+672321493+672700954
3520+673743727+675628138+675516228+673500687+672966132+674893423+675871908
3507+674241058+672525060+672612338+673237637+673506404+673831309+673961039
3493+674171601+673606515+671788885+671759812+674217278+675641275+674326816
3480+672790299+674060542+677817627+680706677+680039472+677637536+676581079
3466+675927559+673992484+672558815+673736550+676735989+678834429+679152948
3453+679042619+678457158+677387441+677625798+679027657+679365942+678457948
3439+678336550+678729392+677172804+675978892+678825185+682603495+683906156
3426+683784210+682165586+678912097+676668843+677606943+680509617+683422265
3412+686194539+687795891+686843862+685161254+685156875+686096253+686790887
3399+688183197+689821041+690205915+690536598+691631556+692676275+694072903
3385+696184967+699261771+703707529+706947333+707185994+707164706+708078843
3372+709250921+711867129+715408178+717049488+717605695+721532105+728153363
3358+730362071+727862700+728581602+734391025+740113534+742561572+742642707
3345+742288669+743088828+745578285+748954509+753024699+757869807+762015294
3331+764531086+766008910+767512948+770387340+774625335+778659154+780694827
3318+779530108+776714652+774895319+775848503+779482425+783014472+785464274
3304+785714795+782192905+779572075+780128525+779397215+776683208+775480902
3291+775360294+773269943+770727450+770491101+771245157+770924631+770202141
3277+770342880+768923627+764992047+762423036+761637596+761632366+764064712
3264+766881142+767027598+766470419+766697341+766318306+764215426+761128040
3250+759699541+760187689+759889119+758531416+756859999+754039251+751527412
3237+751521878+752933468+753334338+752041227+751373961+752693043+753446492
3223+753473800+754772872+755453700+754701408+754411232+753662101+752266750
3210+752813408+755323057+757354594+757387133+755992390+755796669+756898134
3196+756543427+755854023+756852153+757867496+757378436+756016962+755209018
3183+754517364+752874046+751642850+752221621+754475580+756520376+756193160
3169+754758883+754588646+755616153+757014119+758993411+761299189+762173975
3156+760467525+757911591+757402460+759166142+761665817+762729452+760998309
3142+759862906+760985476+761147320+759956022+759667549+761322362+763121746
3129+762470842+760614164+760486015+762238871+762974499+762253955+762228167
3115+761457384+759627955+760241698+763136039+765083217+766213877+767916920
3102+767495493+763450178+760856171+763779766+769051046+770748555+768448555
3088+766864842+767941796+769299013+769186677+768649507+769520583+770981134
3075+770281695+767457966+765256131+765035595+766362401+768245839+768790551
3061+768144755+768894676+771153014+772996979+773461407+772122862+769625012
3047+768883546+771188594+773793367+774912044+774649481+773165514+772393758
3034+773299624+773395234+771513255+770854748+773473328+776483107+777362576
3020+776482377+773840503+771471046+772112401+773811796+774506491+775300811
3007+776589665+777674100+778428643+779243764+780104135+780824436+781004466
2993+780806616+781734377+783656315+784946628+785668267+786998236+789023022
2980+790751124+791562535+791025791+788661077+785831024+785835281+790054847
2966+795346441+797040727+794828430+792048615+790460705+790899223+792997845
2953+794172417+793108174+790696081+789155733+790440147+794201793+797741504
2939+798259941+796431910+795180279+796125495+798183611+798184462+795348509
2926+793084089+793027708+792731024+791580659+791034427+790132211+788976677
2912+790367892+792826756+792292324+790411136+790861757+793983021+796971208
2899+797194360+796867144+796832354+793959301+790612453+791607907+795325823
2885+797732442+798375926+798141644+797443847+797358029+797602224+796130604
2872+794176735+794766332+796150614+795620682+794788349+795151632+795998258
2858+797456194+799649149+800935145+800398097+798334325+795418635+794063243
2845+796376077+800307960+801622298+800183764+799717208+801913447+804448946
2831+804783825+804144720+803811057+802233669+799476296+798340954+799602864
2818+800832297+801294535+801851228+801778547+802168591+804816121+807412623
2804+807468760+805779705+804085967+803792446+804621677+805319717+806149800
2791+807654690+809197410+809715056+808669667+807115452+806898687+807522708
2777+807206440+806816822+807626834+809089635+810514424+811418099+812232186
2764+813350620+813422267+812146733+811188501+810756795+810072925+809375797
2750+808623504+808118692+808745937+810016423+811621788+813466605+813699549
2737+812447674+812440497+813862002+815322796+816645527+818369493+820172162
2723+819450888+816538422+815739115+816876950+816944705+816887168+818115688
2710+819476858+820146009+819817759+818385428+817209762+816811203+816551924
2696+817540384+819974007+821569094+821898621+822074272+821821622+820832432
2683+820334249+821160743+821967349+822165503+822545633+822734178+822623910
2669+823004587+824637505+827186931+827947495+825787809+823567849+822803574
2656+822666788+823808395+825963094+826535905+825582721+825209281+825406401
2642+825335971+825312372+826044229+827468166+828133242+827348897+826763071
2629+826857829+826635408+826638570+827358263+828165477+828714872+829218225
2615+830228884+831211931+831220750+831283091+831647469+830644655+828847400
2602+828331883+829676023+831926697+832785244+831544560+830693069+831695457
2588+833341390+834424426+835384422+836748450+836877451+835009826+834192942
2575+835769965+837266218+837913838+838218794+837562841+836712079+836850690
2561+837036254+836235913+836272892+838574839+840187259+839504424+839302621
2548+840193889+840142252+839003504+838123487+838179443+839040179+839888143
2534+839683116+838793550+838934411+839973718+840058623+839572604+839569989
2521+839956688+840859816+841361345+841068127+841330022+842707005+844429694
2507+844740489+843255670+841659427+841251502+842554527+844451772+845074030
2494+844528710+843775627+843053319+842253282+841644466+842163571+843928409
2480+845341216+845491017+845004512+843768146+842142892+842095756+844107101
2467+846739791+848237564+847955477+847642980+848179358+847923972+846438849
2453+845116969+844542456+844409867+845472771+847893683+849066552+847866922
2440+846747636+847716512+849851809+850395243+849350403+848871013+847680567
2426+844727777+842950653+844282994+847233777+848670183+847911200+847443670
2413+848094757+848985660+849261604+848961940+849499292+850033724+849083460
2399+848033449+848235435+849764836+851415695+851399760+850077455+849137226
2386+849043501+849199020+849313606+848669088+846093387+842615409+839559771
2372+836016411+833002374+832602356+832334988+829280688+826363235+826738621
2359+827767648+827051726+826313605+827499854+831721488+837146523+839685244
2345+838107187+836054241+835325791+834421628+833984266+834030915+833092754
2332+831506486+832100341+836514290+840614769+841131016+841873638+845516015
2318+849054266+849455744+847929932+847739624+849657852+852397404+854967327
2305+856329348+856443083+857018083+858825496+860260320+859954513+858983204
2291+858695886+859074435+859683312+859768705+859548716+860728822+862774166
2278+862908641+861166367+860269686+861336301+863290048+864845601+864446434
2264+861385261+858451752+857795738+858157865+859083193+860650972+861407339
2251+860730465+860077553+860873880+862640968+864069345+864645987+864978920
2237+865493586+865713149+865448761+864912991+864912139+865463723+865208701
2224+864790741+865345305+866380658+868135643+869764424+868832284+866670956
2210+866330542+866647600+865994567+866104531+867472635+868124208+867986632
2197+868331729+868509387+867767981+866960584+866226173+864818475+864293591
2183+866623150+869503746+870373241+870265405+870233535+870627958+871149922
2170+871177413+871379521+871821993+871414128+869753233+868070808+868362565
2156+870529003+872388782+872792875+872687473+873155367+873824883+873889475
2143+873297384+872588943+872208326+872118312+872175544+872111925+871685450
2129+871072619+871437848+873368970+874185429+872452461+870728495+870346114
2116+870989660+872135889+873050087+873207065+872304241+871724375+872454712
2102+873126113+873206518+873156401+872505010+871206851+869971519+868854180
2089+868527450+870032887+872295118+873879013+874914731+875652913+875881539
2075+875622442+875925877+877195025+877365567+876530193+877108903+877762544
2062+876793000+875739401+875608758+875806608+875743232+876016622+876767151
2048+877174711+877416170+877482343+876631825+875738549+876424730+877602768
2035+877615297+877518531+878205198+878707396+878418558+877969396+878203009
2021+879074571+879209898+878004490+877040236+877137732+877640842+878150703
2008+878783787+879516617+879783924+879529450+879054439+878865348+879550190
1994+880463171+881201475+882226124+882583446+881659578+881449685+882795467
1981+883264578+881960823+881443664+882798387+884070697+883951063+882830014
1967+882287492+883482743+884498268+884524299+884965189+885147226+885005270
1954+886231418+888016205+888908264+889558742+889377010+886675410+883890729
1940+884507634+886380794+886583875+885628197+885236450+886360601+888791001
1927+890994722+890887495+888488235+886484007+885636043+885209932+885873548
1913+886928911+886930857+886654487+887421134+888627332+888850119+888408438
1900+888954001+889840586+889613299+889439594+889841194+889515864+889334314
1886+890663613+892309668+893005702+892590843+891802240+891956907+893153618
1873+893603935+891423083+888048318+888477652+892121245+894430794+894307024
1859+893425244+893145589+893307859+893594082+893795217+893503520+893028144
1846+891412744+888751042+889726973+892875302+894087461+894436329+894885308
1832+893297885+890466372+890998006+894226923+896037376+896692781+898214032
1819+899726524+899376196+897895026+896733957+896075876+896465981+897785184
1805+898519535+897608439+895877843+895940549+898149866+899282471+897203494
1792+894264997+894506455+896622837+898690867+900588659+901060629+899495891
1778+899086871+900624300+899898343+894957320+892780969+895915917+899148118
1765+900569440+900030385+898649144+898613077+899376013+900508680+900520783
1751+897086657+892924202+892241123+893422020+894750590+895103473+894981709
1738+897064822+898965351+896201897+894115013+897001994+901231717+903521804
1724+902722862+901392649+900208833+895537125+889854271+891665515+897118041
1711+901864072+904323726+903328394+901336816+900389532+894837686+885115234
1697+882399706+886958227+894228747+898571841+898496544+896487876+891066795
1684+883758322+886672612+893193638+896764915+896787358+894457069+891911900
1670+889169185+889257862+892618091+893840346+892441589+893092979+894937553
1657+894835192+890222845+879439618+877048386+878972940+877868981+878908165
1643+882969354+885315517+885163708+882613613+879127303+880193978+882970327
1630+883080534+881997802+883243048+885389475+887464803+890826552+893538370
1616+894432680+896050331+897874408+899037911+900629226+902934396+905754475
1603+908482958+910481713+912710674+915200131+916655452+917188120+917798822
1589+919055015+920882864+922024531+921563874+920816569+920575718+919365202
1576+918629331+920537097+920113663+917116169+918931853+923711093+924482422
1562+921379830+914194155+908028018+914610960+920497138+922776763+925093671
1549+929086558+931630389+929963838+926492733+922749576+922320607+927858403
1535+932592696+933662291+932802345+932707708+932761656+932609239+931468241
1522+927800624+925222368+925276438+927679164+933242931+937803276+937478250
1508+931479067+927296480+933779189+940110332+942103187+941112051+941179562
1495+943639946+944737762+941612180+937339639+938792345+942648689+943739571
1481+942490190+941618202+940121888+936249183+932733314+933283134+935476515
1468+935037024+931089327+928373252+930173974+930702567+924631737+919662251
1454+923838755+929391818+932976110+934060120+934368542+935799960+938819592
1441+943079665+945009996+941730416+939701920+941063637+941410316+943622308
1427+948429708+950490499+949270130+946837540+942908272+940501714+941424244
1414+942245386+942039994+940952457+938842522+935835419+932930434+932112272
1400+932956891+932750100+929884223+927126121+927030571+927440929+926415369
1387+923616394+920066344+918774571+921600123+925631023+926085416+923545964
1373+922917320+925033885+926370544+926266905+925846998+924353847+922590834
1360+922913427+923768082+922751036+920402440+919290696+920906705+923465133
1346+924371546+924425555+923809744+920804161+917680708+918617653+923041212
1333+926228405+925115628+922505928+921097379+920590437+920895575+923000219
1319+926633107+928330434+928181484+931073696+937062114+941790933+943972576
1306+945131638+946088289+947614526+950880848+954616766+957121124+960049829
1292+964872069+969442510+971140810+971463343+972947310+974946430+976885336
1279+978461082+978385482+977829580+978653580+980218135+981334744+981113478
1265+979470100+978557483+979848588+982152845+984165041+985537037+986304414
1252+987019545+988714743+991463175+993882992+994781315+994479826+994620870
1238+994662167+993219072+992676550+994135581+995154816+995666137+997403058
1225+998914090+997989188+996297761+995783156+996570238+998423144+1000201484
1211+1001327399+1001512599+1001336766+1003035065+1005396069+1005820841
1200+1005711060+1005420458+1003677942+1003022597+1005028833+1007174348
1188+1008398063+1009416812+1011600826+1015868441+1018437512+1016306351
1177+1013367550+1012903000+1014147516+1016380491+1018686330+1019491233
1165+1018180970+1015603931+1013654381+1013494969+1016176559+1021282041
1153+1024520628+1024829963+1025108157+1024344248+1022092783+1021544666
1142+1023587272+1026478086+1028271083+1029188018+1030759871+1031863404
1130+1031610876+1031668778+1032926187+1033206328+1030472554+1027606068
1119+1027922215+1030723500+1033317387+1033988970+1028596110+1016561859
1107+1012693229+1022837838+1030968122+1029797078+1028834771+1033168376
1096+1039248390+1040272004+1037262225+1036516805+1037125865+1037393720
1084+1041529171+1047219202+1046274776+1042969894+1045316605+1050332133
1072+1054559058+1056390495+1052327907+1047608576+1048314341+1050449152
1061+1051702061+1056511771+1062796752+1063314093+1062053399+1063229917
1049+1062129669+1060960814+1063733392+1067482144+1069591045+1069713660
1038+1067998026+1066514242+1067621302+1068615114+1066873206+1063894689
1026+1060059206+1056227616+1055707233+1060149343+1064012073+1062461142
1015+1061154468+1063578056+1066445636+1068623994+1068837475+1063777913
1003+1055713559+1052284359+1055233926+1057494879+1055872180+1055032487
991+1056283815+1058015870+1058647920+1056522232+1056604584+1060892573
980+1060477289+1054315045+1050624924+1050432244+1050129478+1049436242
968+1050638426+1054148031+1058139215+1061308466+1062634725+1061375369
957+1058415585+1056680002+1057455710+1058509492+1059668737+1062054738
945+1063559080+1061861206+1058618118+1058014167+1061577051+1067027934
934+1069525724+1066366204+1061464046+1059287998+1061393129+1066082414
922+1068749042+1069237920+1070397773+1070998682+1070448132+1071444864
910+1073640982+1073741823+1070546662+1067913364+1069482419+1070131986
899+1066864691+1065362539+1065133244+1063812094+1064030684+1065615553
887+1066965411+1068459292+1068743081+1065418859+1061904632+1062950993
876+1064212660+1060912644+1057424084+1056353516+1055298153+1056183096
864+1058530171+1056297317+1051983905+1049440013+1045772639+1043187754
853+1044857651+1047033820+1046571095+1045325484+1045049845+1044373639
841+1044379356+1046400675+1042546338+1029229984+1018813811+1018621070
829+1021681877+1022206761+1020947892+1017826020+1013793478+1011464162
818+1012740548+1016961391+1018747090+1017213493+1015213097+1009703825
806+1003347806+1002460005+1003815701+1003476564+1002011025+998751577+994026042
793+992328898+993748699+991173303+984780426+981929815+982371374+980017609
779+976179815+976337888+976670761+973140963+969278233+964161986+957870924
766+955283971+956046542+958068348+959142991+956985920+953025207+948993334
752+947054002+945866779+941802245+938584763+938594190+936600545+931588544
739+929032124+928809033+927255730+926384837+927638962+928755875+928618299
725+929136310+931914787+934330894+935243207+935893077+935780802+934635850
712+931314729+925793476+922605005+925034067+928385173+924860424+916302083
698+911399195+912245395+914254915+915139189+914546368+913266516+913476043
685+912312054+909555533+911489696+913848936+909895887+906652069+907483976
671+906292253+903441520+907070516+912561602+912125030+907920609+901302999
658+896869162+897387112+895341829+890322956+890197848+896070706+903935811
644+908870995+911497177+916491357+915665836+897337421+873660545+859955546
631+854086581+857552455+880527276+919959117+942141930+919773978+893268691
617+900204332+920341254+931953348+962673883+1011682205+1010253645+956811790
604+938240274+980078004+1038882613
##END=
