##TITLE=Sample description
##JCAMP-DX=4.24
##DATA TYPE=INFRARED SPECTRUM
##DATE=25/8/2023
##SAMPLING PROCEDURE=Instrument type and / or accessory
##ORIGIN=Default
##XUNITS=1/CM
##YUNITS=ABSORBANCE
##RESOLUTION=4
##FIRSTX=4397.6552
##LASTX=599.8556
##DELTAX=-1.9287962
##MAXY=1.85625
##MINY=0.6480667
##XFACTOR=1
##YFACTOR=1.7287676e-009
##NPOINTS=1970
##FIRSTY=0.74528283
##XYDATA=(X++(Y..Y))
4398+431106436+431263243+430972765+430431286+431077785+432549001+433062276
4384+432238836+431448942+432151020+433450741+433992117+434149509+433826829
4371+432605855+431138432+430653429+431762176+433468532+434239635+433819933
4357+433349893+433482323+433786696+434006977+433861720+432877922+431329200
4344+430314957+430319129+430755346+431431117+432677328+434137994+434695780
4330+434202330+433662678+433578103+433770319+433683434+433370028+433356547
4317+433310829+433268421+433911403+434903649+435254257+435317076+435937096
4303+436159549+435284460+434636513+435338418+436676272+437151450+436464542
4290+435458885+435010359+435276392+435790461+436584595+437309532+437072702
4276+436391414+436113038+435994399+435441335+434615067+434945368+436396310
4263+436881417+436145275+435357622+434947540+435149650+435674407+435849211
4249+435677441+435776152+436564873+437192306+436854697+436560150+436371831
4236+435196989+434110342+434097344+434089035+433493391+433197569+434057039
4222+435203298+435515015+435527944+435621656+435274530+434945747+435481468
4209+435981504+435718332+435732158+436289807+436827149+437495472+438143350
4195+438092530+437359008+436595628+436286118+436283601+436018051+435637654
4182+435866519+436612177+437257470+437585943+437586322+437462821+437607561
4168+437870353+437769711+437106180+436129587+435519773+435662788+436421100
4155+437231956+437338045+436797118+436397930+436523086+436657447+436552013
4141+437269330+438818673+439043609+437349285+435804390+435916306+437087700
4128+437829875+437738474+437454030+437557154+438545434+439814780+439687867
4114+438181725+437208166+437483129+438018643+438123526+437683826+437265710
4101+438052018+439834985+440793131+440069987+438856358+438418727+438621976
4087+438780230+438719101+438641145+438657729+438976031+439419351+439150146
4074+438542262+439264958+441253931+442221801+441144774+439772890+439699072
4060+440327539+440517307+440400839+440345295+439790163+438923211+439278267
4047+440751241+441278101+440691318+440658081+441013929+440457039+439190830
4033+438212583+438055845+438710067+439339017+439451829+439725655+440168491
4020+440092502+439863464+439952314+440047025+440038233+439861222+439678799
4006+439826055+439485480+438507301+438492993+439793507+440954041+441133327
3993+440923700+440959350+441032823+440743621+440336434+440634153+441449733
3979+441739935+441440424+440980934+440990139+441768621+442348301+442384951
3966+442244763+441671565+440977693+440777685+440924010+441111192+441087850
3952+440742345+440413493+440729830+441244243+440891877+440232035+440324195
3939+440931940+441571406+441660601+441119019+441279997+442083889+441751175
3925+440533890+440042026+440139426+440032165+439903217+440470865+441976558
3912+443833791+444746875+443308724+439473999+435928304+435444059+436694580
3898+438668590+440763273+440978175+439296368+439243788+440625947+440183420
3885+438732547+438314121+438926693+440947593+441927944+440269616+438160762
3871+436952132+436938271+438272230+438949380+439305849+440841918+442006864
3858+441645361+438856530+433162125+433823657+440664149+445712089+446237950
3844+443120542+439778372+437568669+436092765+437074667+439838605+442350956
3831+443681191+443404642+442471871+441637673+439434659+437094906+438343875
3817+440092295+441590507+444492081+446691061+446280185+444485220+444244046
3804+443704394+442090095+443583687+446106829+447397000+448853632+450347499
3790+451073022+450599741+449120354+448214925+448389315+448236991+448462271
3777+450194072+451305405+450083432+447329906+445928612+446827629+448240163
3763+448985062+448344149+446939510+446523256+446282426+444470015+441888639
3750+443219115+447719371+451923184+456375860+461617774+465971774+467615242
3736+465940881+464993044+468948269+474522622+477314970+476272283+473648395
3723+471602050+469395347+466243565+462922254+460460206+459470098+462460867
3709+470070842+477965192+483788304+487771871+492734547+500319181+508196913
3696+514517578+518333099+518438016+515618223+515239136+516547477+514792748
3682+509844691+503145490+494864088+484749589+478647687+477677714+475356578
3669+473397118+473903877+474044376+473200524+471610773+469316599+466594448
3655+464499386+462562750+458289154+453114989+454202877+458747609+462271548
3642+464668708+466228980+466535456+465432915+463589957+460944968+455294454
3628+449436622+449270403+450111083+447656448+441014619+434166438+430971730
3615+428458414+425471403+424155270+425074973+427288675+429115050+428617151
3601+425924445+423793215+423120961+422507560+421499317+419738796+415553084
3588+409792170+407750997+408492724+408070471+406346634+404580700+403259533
3574+402523942+401903336+400325583+396692418+392386101+391342518+392275771
3561+392415442+391552317+390362926+389202772+388189012+387271239+386239033
3547+385140353+384513748+384530849+384936450+385009750+383933688+382255570
3534+380963295+379841136+378760558+378327961+378350578+378262935+378318859
3520+378701428+379311828+379916850+379716808+378263314+376547132+376036787
3507+376376224+376143910+375660389+375692419+375662458+375611396+375967693
3493+376276513+376135808+375854191+375700832+375332295+374872082+374989066
3480+375342087+375490481+375964452+376760172+377243245+377278792+377216421
3466+377238177+377001795+376624742+376576783+376731107+377010931+377371297
3453+377613195+377514070+376838817+376250758+376356054+376529100+376832990
3439+377781276+378714771+379096099+379155987+379046657+378929742+378982631
3426+379525765+380622514+381360552+381521875+382185131+383348664+384206410
3412+384888836+385735377+386723726+387780308+388661396+389472080+390184674
3399+390632200+392104105+394786433+396384218+397078711+398885674+401085516
3385+402695643+404360592+406244407+408074539+409515552+410782933+413027631
3372+416139487+419067231+422266972+426577047+430950802+434081380+437016882
3358+440870880+444610100+447661999+450812264+454384025+458361833+462828335
3345+467717849+472699350+476898405+479692132+482023956+485498246+490029498
3331+493760720+495698079+497086030+499536286+502877078+505243517+505785272
3318+505860951+505799580+505118810+505253723+506972595+508778317+509221085
3304+508293899+507184601+506563995+505920771+504983449+503551125+501543154
3291+499924751+498989636+497896473+496022139+493311677+490527948+488064211
3277+485984836+484538134+483112602+481652799+480835944+480328977+479529361
3264+478408098+477187159+476036935+475180705+474460665+473084540+471432486
3250+470937794+471031023+470197170+469077700+468446716+467745293+467009082
3237+466468190+465678572+464448013+463319579+462602745+461942696+461696384
3223+462199730+462332092+461489102+460291918+459456858+459664106+460421246
3210+460477514+460008508+460160729+460896630+460839638+460005095+459775988
3196+459717340+458904484+458148862+457986746+458278569+458999644+459581462
3183+459727753+459664382+459637317+460089015+460586430+460323776+459805225
3169+459858425+460239787+460842292+462153667+463418911+463502175+462679700
3156+462016100+462250310+462953353+463430289+463760106+464334167+465374199
3142+466290627+466278215+465858927+466028766+466757840+467913202+469289947
3129+469910967+469923310+470094563+469860388+469347078+469644520+470358493
3115+470523988+470424070+470457721+470419864+470495061+470877975+471313778
3102+471969207+473420219+475381058+476317552+475613923+474576339+474544826
3088+475590995+476132198+475193428+474187943+474600956+476221703+477060556
3075+476044727+475040242+475368887+476125509+476360271+475929329+475363439
3061+475692671+476931573+477447124+476828932+476883511+477996947+478492225
3047+478252464+478656272+479443373+479607316+479311218+479084283+479167823
3034+479429788+479320837+478836006+478730744+479220265+479947718+481170692
3020+483542544+486510489+488177265+487551866+485700943+484097883+483381118
3007+483752689+484775137+485327373+485129986+485151224+486034450+487181606
2993+487913197+488791492+490536257+492251130+492822949+493366118+495059165
2980+496754316+497290382+497083444+496824307+496722631+496727975+496865405
2966+497312482+497891301+498194777+498420264+498498288+497730633+496687532
2953+496695600+497685915+498876858+499967056+500772637+501234816+501466543
2939+501346939+500934546+500728953+500791634+500895620+501496850+502511782
2926+502676656+501974406+501896175+502675174+502853150+501611351+500109106
2912+499799768+500373070+500840007+501183582+501367660+501098627+501203337
2899+502381248+503439174+503499166+503505648+503964517+504598604+505553993
2885+506484109+506750349+506703976+506940082+507473906+507824790+507590856
2872+507131780+507010590+507329512+507746904+507956772+508300209+509126442
2858+509887512+509824245+509277836+508907196+508338755+507595304+507723666
2845+508723014+509521803+509887202+510406649+511396723+512620937+513262092
2831+512987371+512823565+513352770+514017473+514493444+514730584+514826606
2818+515112636+515699316+516531790+517499383+518392367+518969840+519236701
2804+519579758+520177988+520582865+520404164+520340277+521197368+522402206
2791+523157207+523375454+523259814+523405071+523837288+523875593+523932241
2777+524517852+525186348+525959037+526694145+526810026+526735380+527068715
2764+527335507+527226452+527319129+527775861+528479283+529329617+529863752
2750+530127992+530442709+530737048+530907198+531142097+531674336+532346624
2737+532965851+533451027+533850318+534050809+533987886+534196341+534666760
2723+535213755+536198106+537366396+538047615+538208938+538464111+538839405
2710+538887640+539022415+539533622+540053552+540547106+541013215+541465361
2696+542212606+543185923+543950303+544107006+543889587+544151655+544728336
2683+544992852+545298224+545800674+546134560+546275300+546320087+546288781
2669+546291332+546381527+546605669+546983859+547312884+547678455+548274203
2656+548773446+549035376+549454078+550157190+550794380+551228632+551650575
2642+552209362+552760323+552892477+552720328+552567211+552447503+552725086
2629+553413752+553852831+553919994+554240916+555138278+555940273+556154107
2615+556198514+556513955+557096980+557619840+558192039+559057750+559513240
2602+559305372+559383223+559951423+560506141+561169879+561884576+562245321
2588+562498976+562916747+563121616+563017320+563244048+563974019+564662926
2575+565112417+565346972+565391448+565569838+566048774+566581943+566871559
2561+566710788+566389038+566734199+567705550+568267233+568211344+568214723
2548+568440279+568666318+569002479+569280855+569191350+569380083+570287582
2534+571158085+571552722+571885573+572360923+572671778+572745147+572794037
2521+572676053+572465633+572635197+573138681+573708328+574278389+574600415
2507+574655717+575010118+575827766+576509847+576755986+576905242+577114248
2494+577128350+577015744+577209684+577858252+578726652+579397458+579733689
2480+580104052+580734037+581268930+581364021+581277067+581392500+581660257
2467+581807961+581904362+582291689+582805826+582987526+582887471+582877817
2453+583067446+583401332+583898231+584339068+584539800+584629925+584687504
2440+584978154+585696127+586477745+587065115+587565047+587916724+588013814
2426+588240887+588804053+589265508+589607531+590056781+590375427+590487826
2413+590554369+590753790+591282340+591835989+591978660+592088438+592515001
2399+592830752+593157328+594550037+597984954+604335960+615037622+631793296
2386+654989550+683007292+713143646+742903981+771674036+800926923+831295797
2372+860832093+887647170+910908037+929055040+941541151+949668746+951426647
2359+943322704+928406645+912347912+895690156+878135004+866875348+870777167
2345+886933749+896474809+892629120+886120480+879293537+873119059+872744075
2332+877660654+881678319+880417593+875161611+870895151+867491610+859807680
2318+846289570+831446328+823662205+825239027+826620220+818715768+802584975
2305+784351983+769832629+759730473+750425933+740281714+729044400+715985263
2291+702471773+690469390+679817308+669813621+661164373+655122980+651431339
2278+648482151+645504414+642645144+639888963+637679606+636401433+635245244
2264+633737241+632553193+631833635+630888521+629438440+627881822+626895886
2251+626754043+626794314+626312655+625422016+624512897+623863743+623701075
2237+623926838+624259483+624602816+624894708+625203080+625479250+625372161
2224+625028621+624768380+624486625+624257207+624506139+625443392+626385128
2210+626595237+626564000+626768041+627013733+627392785+627865894+628260323
2197+628826109+629420443+629690131+630024292+630571184+630714062+630652897
2183+631191928+631946792+632152971+632049606+632213584+632618012+632720688
2170+632641388+633057884+633659389+633735999+633569401+633903908+634845850
2156+635747659+636246351+636566377+636767108+636909158+637116923+637354615
2143+637640439+637717049+637430122+637254767+637393093+637765112+638586104
2129+639597485+640096384+640233745+640646103+641163137+641259675+641190581
2116+641520882+641982750+642139005+642230993+642426346+642696171+643080051
2102+643457448+643869048+644344570+644525028+644429386+644750929+645789203
2089+646831270+647367128+647842030+648367201+648678400+649026422+649275492
2075+648997598+648860513+649470914+650168751+650600762+651234125+652182962
2062+653053397+653425347+653348598+653495406+654366599+655337020+655488931
2048+655235930+655346191+655584297+655609397+655802199+656638224+657725595
2035+658286761+658389781+658705325+659373235+659921506+660205537+660705056
2021+661507361+661737537+661030598+660593553+661082522+661760017+662357247
2008+662809117+662782982+662450407+662167824+662524190+663733337+664608805
1994+664272713+663701548+664205963+665426557+666553233+667534894+668175222
1981+668163706+667639432+667121157+667285479+668221836+668895056+668640400
1967+668568065+669639300+671056764+671953126+672247845+672314595+672716472
1954+673436720+673881211+673951202+674049603+674091873+673582631+673349766
1940+674805845+676906873+677947491+678048926+678230212+678588922+678796204
1927+679098509+679331994+679312756+679284001+678976801+679192082+680734702
1913+682095070+682409924+682707540+683775120+684796431+684983095+684969373
1900+685355872+685638731+685601150+685826361+685935794+685353459+685461582
1886+686696106+687627359+688162046+688664599+688609296+688178251+688394291
1873+688687837+687404562+685674657+686822640+689646191+691370579+692224257
1859+693251291+694352040+695099318+695540914+695811774+695541810+694396723
1846+692597173+691654748+693191713+695345492+696621734+697458794+697606498
1832+696118147+693913340+693492362+694433960+695677034+697783853+699918531
1819+701107268+701582307+701552725+700887573+700083405+700134709+700855233
1805+701260281+700982526+700281930+699944459+700368608+700511141+699372674
1792+698613121+700780346+703938541+705749332+705815806+704832283+703906132
1778+703917923+704174165+703005701+700465561+700236557+702984739+706312084
1765+708657285+709372706+709409942+709126118+708266786+708183900+707985444
1751+705423445+702467912+702598377+704256154+705516673+706069840+706349872
1738+706625972+705523155+703352620+704628931+708384563+711890229+713783146
1724+713568830+712372439+709818094+704132860+700095197+703941368+709611363
1711+712843548+712963050+710419323+707749476+706716719+704289391+700649605
1697+701321032+705492056+709486208+711159637+710918911+709697627+706024260
1684+701479011+703908959+708517580+709785133+707357322+705515087+705719819
1670+705132725+706077081+709127911+710387259+709539097+709193695+708851259
1657+706412001+700754763+695245506+697211448+698366533+697057261+699724764
1643+704668167+706719822+705183546+700717251+697792611+702435640+708156869
1630+710825751+711184668+711041929+711674602+715129861+719638495+721219317
1616+721874952+726368071+731144669+733468494+734963672+737312735+739715032
1603+741729588+743837235+745396680+745894268+746814144+748883521+750841877
1589+752352501+753825958+755561862+757545802+758876036+758526152+755908367
1576+754341682+757675991+760134625+759391760+760340873+763318679+764488177
1562+762600431+754482973+746423507+756366306+767499564+772657559+773616947
1549+774044958+774176734+770886073+763257584+757322246+766805520+780373968
1535+786232765+788186708+791994609+795466348+795026890+792605837+790983849
1522+791384484+795534477+800349070+805088707+810120994+813065425+812176166
1508+807013413+807693390+820815416+831172503+835486612+834940685+834805324
1495+839809340+844953267+845378934+843689093+847463274+854102104+859083501
1481+863218048+866712060+866974921+863690329+860404772+863854583+873195255
1468+879984617+880619910+879818363+882595644+884281072+880658250+880650389
1454+890007818+898495157+903286994+905713426+908573317+913333917+918298903
1441+921340631+921052877+918749256+920981783+927119163+931260536+933072981
1427+934161938+932993889+930777015+929214329+924618465+919044044+918451779
1414+920578803+922679554+921299602+915120228+908450919+905507040+903818302
1400+899542947+894809309+891906528+890173933+890470859+890449276+886330313
1387+881128600+880587432+881684181+881277477+880897045+880649286+879266437
1373+878548672+879351185+879655282+880643286+882450836+882017377+881418079
1360+883722665+885192536+884031864+883184254+883308238+882726799+882384707
1346+882769138+882198249+879922211+877653482+878358629+881367534+884383817
1333+887347073+890365839+893012103+893905707+892542235+891480447+892891705
1319+895648230+897830005+899646795+902199348+904947322+906038348+906904300
1306+911418313+918096930+922789264+926180117+929857139+933146834+936283721
1292+940237878+943846082+944296573+941960474+941170304+943762162+947178874
1279+949679020+951220054+950978293+950076001+950856655+952308114+952774603
1265+952924376+953476164+954596771+955917283+956610707+956977692+957895706
1252+959250420+960509216+961651062+962192507+961634168+961722984+964110455
1238+966696934+967124325+967053990+968207489+968981523+968537721+968286031
1225+967893670+966401457+965976686+968209351+970062343+968896017+966968622
1211+966927179+968285203+969452287+969650674+969040963+968568130+969432635
1198+970949051+971790869+972982501+974504227+974911552+974799912+975145037
1184+975976581+976260335+975282881+974573046+975470511+977889219+980949221
1171+983096863+983590176+983503222+984248087+985137209+984500674+982931368
1157+982411576+984071490+987350221+990016551+991388159+992258732+992095719
1144+992241838+994377964+997038157+999768134+1001909156+1000871916+998288057
1130+998825089+1001524380+1000593816+996860664+996353559+998871082+1000692216
1117+1000449146+998626770+997901006+1000680287+1006380347+1010372981+1009668593
1103+1008691828+1008839257+1008653213+1011386913+1015882308+1016993537
1092+1015600897+1014904922+1014197293+1012771761+1013327135+1016099658
1080+1019361149+1023635194+1027511224+1029955791+1033460560+1037642549
1069+1040830395+1043698974+1044578235+1042288405+1040550708+1043067335
1057+1048004049+1049140310+1045709669+1043842403+1046090514+1048858210
1045+1048784427+1047916751+1050083424+1054326508+1057099720+1057916852
1034+1057245494+1054719282+1051935037+1051110320+1053799268+1059666961
1022+1063088017+1059319835+1054540065+1056448705+1060965268+1060309426
1011+1055222111+1051225132+1050946480+1051897249+1050886419+1049691615
999+1051452481+1053347950+1051387249+1049104039+1050784088+1053467175
988+1053361465+1052725620+1054062681+1055801757+1055572133+1053192523
976+1052103980+1054105986+1055597026+1054985729+1055038481+1055145846
964+1053702799+1054534824+1059095107+1063195520+1063523407+1061828738
953+1060738058+1055940359+1049513225+1051395385+1058028147+1060837424
941+1062723307+1067176225+1069475846+1066971218+1064815370+1065182287
930+1065304270+1063107945+1059373690+1058048006+1060476300+1062926521
918+1062820260+1062937348+1065718076+1069172645+1070777119+1071121555
907+1072790986+1073741823+1070987918+1067820414+1066239179+1066337579
895+1068737876+1069390271+1065522792+1061631799+1059601728+1057542764
883+1057742048+1060089731+1060905070+1062149592+1063341224+1058902443
872+1052577502+1052527922+1055853405+1052839536+1043686286+1038704061
860+1039244884+1035612477+1028192236+1025071484+1024867097+1023826617
849+1022038444+1018688344+1014425539+1011275066+1009195760+1008143144
837+1008086530+1006798911+1001037894+990247072+980098508+977873980+983124100
824+986497991+981990184+975728821+972347139+970979943+972632686+972995603
810+967622741+963847111+965922556+966402353+961274561+954716824+947594749
797+941196784+938630991+936592576+934392183+935004170+934138493+928625374
783+924124877+925351332+928360306+927530901+924189282+920813461+917698915
770+914879088+911410176+907115789+904063442+904655293+906533316+904866023
756+900917314+897935233+895225598+891973277+889439412+887681235+885879753
743+886149855+888859904+889811706+888393346+887412857+886021596+882803133
729+879347254+877400620+878367524+883331338+889549742+890705724+886121376
716+882389465+883021587+885156058+884708394+881876362+878192237+873763593
702+871254482+871564303+871142084+869272887+868363355+869248546+872338612
689+877488953+881389393+882472971+882336300+879527851+873105199+868745510
675+871290753+878710512+888359143+893403498+878152381+856846699+847910248
662+850008034+857966480+862447945+858009232+853089481+855447026+858649284
648+857232096+853695951+849159390+844816389+842653853+841834101+851189737
635+885050072+907019388+873694567+834263604+813467095+797755764+795515721
621+808729803+816402424+810333793+805028784+810303315+816615085+809624303
608+791522466+778614963+781844459+793261404+800441954
##END=
