##TITLE=Sample description
##JCAMP-DX=4.24
##DATA TYPE=INFRARED SPECTRUM
##DATE=25/8/2023
##SAMPLING PROCEDURE=Instrument type and / or accessory
##ORIGIN=Default
##XUNITS=1/CM
##YUNITS=ABSORBANCE
##RESOLUTION=4
##FIRSTX=4397.6552
##LASTX=599.8556
##DELTAX=-1.9287962
##MAXY=1.7945713
##MINY=0.090737149
##XFACTOR=1
##YFACTOR=1.6713247e-009
##NPOINTS=1970
##FIRSTY=0.091222182
##XYDATA=(X++(Y..Y))
4398+54580764+54589956+54444883+54390840+54788863+55383951+55689218+55484980
4382+54810051+54290556+54508279+55110152+55433848+55430050+55521571+56010931
4367+56629450+57014197+57328808+57599330+57714745+57862894+57913776+57539679
4351+56992402+56777929+56788217+56545744+56035623+55661896+55582813+55547520
4336+55492037+55589429+55791041+56038677+56354643+56532495+56399436+56060623
4321+55713287+55590810+55727373+55839926+55819054+55993679+56463580+56789724
4305+56856468+56947101+57106912+57214507+57250411+57246051+57107821+57001527
4290+57308819+57876615+58209419+58206455+58334918+58781112+58999388+58828910
4274+58803232+59017269+59011340+58743889+58600104+58669607+58769575+58877920
4259+59042322+59203622+59437514+59755718+59864509+59642880+59405413+59585057
4243+60125719+60540182+60748762+60966329+61132823+61106254+60872223+60744714
4228+61138529+61722619+61918887+61947765+62213063+62538288+62615793+62601800
4212+62915180+63436214+63544483+63239073+63143059+63471766+63895836+64020804
4197+63790335+63532496+63591380+63967345+64308801+64335308+64101661+63868981
4182+63794392+63858073+64050172+64336217+64634914+64798135+64775101+64746205
4166+64690098+64459906+64224191+64189825+64359826+64730531+65199158+65467407
4151+65440468+65354052+65310970+65185664+65027471+65071020+65419765+65722086
4135+65488029+64992066+64923058+65411197+65975437+66131708+66047779+66070729
4120+66048421+65908323+65967292+66297653+66628874+66752117+66576378+66319341
4104+66446480+66929256+67204432+67105574+67036566+67108784+67146645+67303406
4089+67688844+68028023+68169989+68290098+68498228+68652355+68595797+68411152
4074+68367299+68635045+69044203+69267534+69188790+68962900+68873854+69041497
4058+69305328+69427194+69341246+69326481+69547664+69619712+69346724+69235447
4043+69495872+69613074+69524104+69672422+69937947+69976040+69946828+69953559
4027+69802325+69655999+69740008+69753498+69664402+69866924+70206687+70350177
4012+70297311+70020811+69782430+69909528+70017244+69827066+69727290+69873125
3996+70057111+70132084+70105123+70260248+70659492+70852274+70688763+70609693
3981+70777707+70818077+70635768+70501144+70571627+70849911+71210153+71439556
3966+71323464+70946848+70774716+71007845+71537728+71985233+71553638+70140808
3950+68775169+68644264+69288723+69302636+69374920+70569046+71711260+71497424
3935+69634615+67418616+67327385+68851890+69204700+68475546+68600335+68893540
3919+68197596+68132886+70081046+72343251+73418204+73062094+70345345+65049034
3904+60487044+59992174+62661660+66893410+69891104+69476850+67483331+67812185
3888+68653826+67335953+65770039+64922185+65267145+68164898+69573069+67321545
3873+63944685+61981498+63162865+64972158+64288273+64606932+67804629+69379432
3858+66968757+60844290+55403922+60227559+68075294+72286907+72370341+69270931
3842+64777067+60385123+59043450+62328027+66158259+68956704+71176951+71939428
3827+71466798+69968377+65953018+62466681+64150488+67170775+71222029+75825442
3811+77594261+75676200+72442029+70833800+68824090+66980602+69156774+72501764
3796+76079541+79935999+82138936+82587025+81784953+80260765+79653369+79785501
3780+79430733+80452383+83172070+84465464+83002242+80372810+79634851+80814649
3765+82425596+83271704+81784677+79815235+80233848+80030631+75733680+69684713
3750+69741100+73028486+74910504+78104502+81984435+82832486+79359344+74198548
3734+75668863+83857934+90383633+92352058+91642550+91407387+93115650+96233008
3719+99598518+101392043+99845458+95266279+93830642+99665520+106099547+109174679
3703+109810214+111520840+115231373+118263905+119596350+118729157+115677081
3690+115124392+122399971+131181629+136748846+139496288+139774995+137826086
3676+136947659+143061315+150014963+155512735+165627311+176941113+185422622
3663+192001361+197455963+201699820+206316214+212456617+215908432+214801485
3649+216901757+231647242+248382051+260522578+269738265+278023234+285790625
3636+292795074+299008891+303401802+306714513+315610748+329017297+339681281
3622+346239478+350551077+356972114+365502695+373225792+380681309+387947775
3609+394679473+403311837+412819373+419926033+425076001+430597792+436251573
3595+441065487+446984280+453084990+455921920+457764526+464674361+473713249
3582+480280468+484843065+488820144+492805283+496657791+499350784+499556488
3568+497083644+497415239+503687133+509734599+513061361+516455776+520522655
3555+523412473+525876401+528784907+530887675+530605723+529894208+532970187
3541+538160490+541426125+542773442+544687981+546866498+547158044+545853915
3528+545644858+546926019+547028016+547092959+549915159+553638459+555057673
3514+554994514+555981062+557224279+557067361+555697648+553978365+553798123
3501+555878923+557891892+558638999+559570483+561129497+561725891+560574971
3487+559252975+558728691+557582871+556066832+556713226+559450798+561795398
3474+562943929+563242037+563039328+563057373+562901597+561688338+559719734
3460+558138324+557461545+557885259+559105864+559515491+558344386+556843468
3447+557323529+559192811+559356433+557871136+556819288+557633905+560222120
3433+562130025+561224574+558852407+557124814+556004529+555366409+555671721
3420+556858910+558098346+559173482+560911738+562497248+561899784+559930110
3406+559411640+560570584+561796218+562352670+562178527+561613623+561069404
3393+561287734+562532626+563766605+564237466+564597128+566014380+568626668
3379+571792304+574065435+574178487+572816263+571786348+573201425+576857429
3366+579803630+581452550+583168088+584629527+586102735+588627255+591097924
3352+592660397+594899862+598043851+599815987+599787456+599949153+601450926
3339+603793565+606339269+609405655+612678388+615004550+616279720+617365948
3325+618546254+619108590+619388545+620541605+622210211+623411844+624502993
3312+625397780+624734517+624219756+625925879+626965745+625612187+625043217
3298+626646203+627357539+625492858+623456708+623600787+625104487+625152418
3285+623413056+622463847+622457428+621761284+621148734+621112714+621172557
3271+622440595+624025820+623771185+622713203+621465494+619167648+616892769
3258+615975585+616022518+616126369+616058038+616197838+616667307+616728648
3244+615951406+615710894+616933925+617735275+616159036+612869471+610083968
3231+609179337+609217853+609062719+608472922+607673498+607275069+605565808
3217+601940581+600121263+600801287+601014766+601119973+602799277+604025660
3204+603206051+601829883+600328537+598598020+597351166+596569787+595891903
3190+595075253+594055217+592776231+591237367+589791941+588352471+586876303
3177+586033085+585569535+584817044+583920295+582268914+579707732+577854249
3163+577044660+576046878+574803341+574150527+573937262+572968259+570609608
3150+568228846+567228602+566785952+565960921+564387144+561478995+558508186
3136+557225848+557203023+557417787+556688048+554766056+553365530+552446206
3123+550935873+549695546+548961420+548104507+547129727+545259482+541879154
3109+538931633+538205675+538310845+537427862+535637039+533817150+532725288
3096+532368479+531928503+530781221+529120639+527414623+526083818+524987605
3082+523272138+521596792+521397257+521697647+521124577+520040561+518639892
3069+516508343+513923303+511486442+509295550+507313323+505257451+502977508
3055+500851487+498713056+496338748+494284410+492961202+491958569+490738570
3042+489175241+487147223+485098412+483584264+482017405+480148515+478433975
3028+476581918+474592986+473411039+473083367+472534583+471425531+470286879
3015+469315487+468474480+467759720+467118461+466991073+467744848+468949584
3001+470270724+471778418+473676052+476321185+479900835+484309437+488897854
2988+492333852+493728244+493206243+491009467+487637733+484044032+480415168
2974+476526462+472981798+470390481+468517597+466690825+464497294+462172665
2961+460299103+459278175+458993156+459162663+459521505+459614871+459379958
2947+459049076+458678179+458163382+457113282+455577699+454092438+452449581
2934+450175023+447506709+444815427+442225037+439780866+437531094+435037814
2920+431229529+426375850+421970314+418283105+414999959+412205968+409622746
2907+407067947+404748240+402351251+399716424+397654561+396569939+395922582
2893+395261210+394699373+394370417+393991995+393569387+393422527+393324845
2880+392837366+392306022+392423710+392891039+392946067+392711725+392733194
2866+392891432+392509194+391152498+388887462+386098785+383088319+379606494
2853+375207484+369906983+364158231+358678095+354049058+350155324+346587800
2839+343160253+339894511+336986719+334389125+331765033+329147788+326950762
2826+325182692+323495791+321949367+320567671+319158835+317920006+316965090
2812+316206785+315618522+314922949+313927413+312804524+311709667+310625080
2799+309456186+308111223+306497217+304581074+302466358+300280387+298107024
2785+296056127+294250789+292615528+290889523+289032652+287217185+285617587
2772+284363601+283242103+281969358+280627426+279272085+277963820+276986115
2758+276402881+275934053+275235021+274249667+273244181+272299483+271337345
2745+270404630+269462821+268461436+267586638+266977797+266444937+265820119
2731+265150205+264433466+263684220+263033189+262525578+261992504+261316314
2718+260657045+260100433+259527559+258845127+258035878+257218176+256555020
2704+256013619+255359950+254448275+253455254+252577888+251728553+250799939
2691+249790102+248677609+247526154+246447256+245434245+244456612+243537449
2677+242633942+241699871+240739571+239767947+238949996+238287232+237486132
2664+236554718+235700604+234952606+234315003+233693039+232935839+232217317
2650+231733440+231319944+230923406+230666542+230424693+230027780+229555101
2637+229179426+228977769+228929731+228890662+228726344+228547083+228492768
2623+228498474+228487044+228533941+228709832+228926004+229075896+229187664
2610+229271027+229201269+229003107+228913415+229002323+229077144+228873276
2596+228308301+227677902+227284805+226971344+226446276+225755838+225054452
2583+224326568+223532475+222714702+221984321+221388266+220752910+219925080
2569+219013834+218190390+217462238+216739989+216015778+215349217+214741589
2556+214153183+213623746+213220717+212894970+212574377+212192710+211716804
2542+211319891+211084943+210877686+210773728+210885086+211016648+210992468
2529+210899566+210903703+211034337+211183872+211295926+211421995+211569158
2515+211667143+211695085+211719799+211794835+211890804+211999327+212104052
2502+212089822+211963842+211851111+211723544+211450561+211004790+210516669
2488+210092563+209634773+209067676+208517715+208000030+207450461+206973003
2475+206524985+205956551+205355182+204839261+204380883+203900376+203374809
2461+202865362+202387084+201910179+201464853+201027071+200516125+199960654
2448+199437459+198982290+198563160+198103747+197613166+197158069+196758285
2434+196418505+196102423+195708524+195307242+195101020+195047151+194951146
2421+194767873+194564041+194320711+193999119+193722891+193602367+193618522
2407+193695341+193697445+193567631+193393773+193234716+193124125+193143115
2394+193191885+193086108+192917189+192701499+192140679+191136762+189830065
2380+188249048+186394923+184333845+182235445+180308799+178492655+176646732
2367+174872545+173394684+172374558+171863595+171973241+172897629+174710938
2353+177225437+179628115+180637149+179758642+177955122+176800886+176531861
2340+176566864+176843610+177387633+177855818+178029480+178230299+178772860
2326+179545162+180356837+181247862+182260570+183225364+183927998+184357222
2313+184639139+184835803+185125263+185677595+186235848+186500325+186623256
2299+186862609+187182382+187440762+187626085+187812318+188019431+188169430
2286+188250582+188306555+188266862+188090918+187868880+187674890+187514691
2272+187350213+187181099+187070079+186973058+186797809+186575967+186359403
2259+186181818+186030196+185836011+185648637+185564721+185564971+185556394
2245+185491291+185402633+185286727+185157894+185093023+185057770+185016080
2232+185028206+185036996+184962389+184884893+184849676+184799765+184741866
2218+184739120+184758004+184711446+184642384+184609307+184561161+184489906
2205+184454636+184467136+184489603+184500124+184517724+184562267+184588836
2191+184529261+184424910+184344151+184229084+184033686+183853195+183745011
2178+183602537+183356711+183088293+182857374+182662529+182505290+182381468
2164+182313476+182288619+182246732+182183573+182098855+182023089+182010856
2151+181994612+181904955+181805045+181790619+181845736+181849303+181749089
2137+181598733+181489515+181495079+181544704+181506954+181432222+181467796
2124+181604564+181690816+181661340+181623805+181682096+181820005+181929776
2110+181929348+181917045+182026548+182216098+182383839+182496428+182570357
2097+182680984+182872780+183062473+183279607+183621848+183905156+184014482
2083+184149627+184392653+184649321+184844469+184971483+185102117+185230077
2070+185232947+185041918+184889636+185105006+185477917+185669464+185754021
2056+185801221+185781607+185733854+185729556+185775455+185741735+185545160
2043+185334088+185379220+185647085+185852719+185963114+186095068+186241037
2029+186330230+186343140+186305658+186261525+186154982+185840986+185618644
2016+185975971+186633206+187059166+187230991+187341868+187495451+187677048
2002+187834554+188009838+188311851+188483088+188040580+187515262+187896554
1989+188892946+189865996+190603063+191014348+191289917+191619694+192016945
1975+192468779+192946612+193104046+192579406+192165126+192855956+193924886
1962+194472725+194648241+194575578+194359762+194317466+194412758+194334299
1948+193789010+192537306+190890383+190431667+191763113+193006383+193295664
1935+193294006+193361177+193419629+193408591+192955545+191617340+190455329
1921+190389584+190562978+191310317+192843385+193537728+192937749+192382047
1908+192935716+194011601+194799007+195276572+195436129+195021135+194402540
1894+194299260+194074137+193567025+194249724+195654868+196502884+197021693
1881+197431747+197768122+198127053+198251446+197197922+194238169+191721548
1867+193471323+197240611+199422302+200046014+200307781+200763859+201357044
1854+201827672+201867561+201116050+199451563+197489967+197813753+201169420
1840+203780192+204568150+205183856+205611707+204085682+201776299+202122873
1827+203974538+205973705+208725810+210876153+211754232+212285042+212507687
1813+211649971+210788172+211816678+213781520+214548829+213451850+212013967
1800+212459863+213813189+213536211+211733423+212410915+217067965+220778266
1786+221946625+222124477+222216934+223051986+224704079+224743006+221997517
1773+219800098+222698083+228110442+232674589+234863912+235122291+236396855
1759+238726120+241071576+243541479+243746720+241219935+240657581+244727652
1746+249801871+253685424+257003395+261227976+264971836+265557371+266550161
1732+273394430+281757483+289306402+294860058+298496108+301106595+301071681
1719+298224302+300049897+310285995+320536002+327355039+330646530+332208503
1705+335272429+338859567+341018862+344887061+353044464+366702331+380313194
1692+388234007+393446385+397204172+399365464+407928463+424356640+437828560
1678+447360918+454959158+462897197+469454110+475455820+486112850+495990890
1665+500269287+502880754+507772842+511591506+510487554+504057851+500845318
1651+507654726+510111094+510853885+519214353+528304988+532488450+532280605
1638+528816825+528948244+537874721+545932481+550268367+553452797+556888974
1624+561249325+568717038+576201014+580378841+585077527+593198696+599893803
1611+603627731+605947260+607963082+609187754+609371347+609162932+607803668
1597+604228512+599739311+595989691+592607116+589016803+585115366+580409796
1584+575113039+569421242+562283270+552654193+544794114+543419052+541345206
1570+536287463+534136977+535207798+535612039+533457559+526063241+521450110
1557+531572585+540340683+544462554+545259553+544841831+543004004+537999756
1543+531703398+531463848+549473757+568847672+579923530+591679518+606728925
1530+617699041+624026676+628244624+629317798+628673651+631120854+633130256
1516+633064565+632440532+628502040+619356877+606612948+604149768+616482857
1503+624705916+627259181+627134431+629558168+636272890+641010378+642349528
1489+647848424+662285066+677678051+689445808+698047680+703411983+705131944
1476+704830519+707117880+717300983+730088991+738646783+743505811+749408698
1462+756606370+759363272+756606584+759874823+771183525+780726047+787606104
1449+793278465+800312016+807843851+813141821+816114769+817188158+817955985
1435+822055531+827340662+830686361+834325924+838591590+839715905+839025039
1422+838594015+836436040+835961863+839951424+844348757+847617353+848973621
1408+846901238+842427871+839312769+837345877+832406750+826212495+823120075
1395+823275495+826033323+827622828+825360075+822773287+823228491+824113507
1381+824223706+823758872+820709748+815826897+813975268+815491592+817108558
1368+818282445+817928381+814637104+812317147+814156650+816178678+816097936
1354+815492234+814441313+812196891+810670581+810239057+808514746+804303431
1341+799475002+798936989+803278545+807364325+808602334+807710543+806111694
1327+804723186+804119338+804264915+804144374+803552223+803679398+804634956
1314+805516120+806753131+809620017+813574200+816930171+819679726+822061665
1300+823432198+823815862+823917003+824144319+823878772+822791475+821055038
1287+818161903+814283825+810427858+807283013+805541441+805071971+804127256
1273+802010293+800177922+799065447+797385928+795134445+793330533+791571842
1260+789930982+789227492+789249246+790047030+791282400+792406003+793635952
1246+794523393+795305770+797460750+800773068+803706431+805955632+808162038
1233+810756529+813955154+817401851+820364671+822913371+825711357+829047070
1219+832449046+834593469+835382765+836777621+839474537+842416245+844758598
1205+846440970+848074839+849717982+851445218+853725161+855779356+856705741
1192+857230845+858537755+860525546+862875888+865839564+868695109+871057077
1178+873870612+876902975+878978568+880646389+883243877+886566395+890670649
1165+895736808+899409467+901161596+904396525+909964821+915032835+917669908
1151+918981954+921504763+925822068+930275607+933451193+935981847+938546953
1138+940039097+941157279+943240218+945524869+948444323+952903210+958001395
1124+962288601+964728100+966041216+967820306+969499968+971044394+973856788
1111+977336723+982203597+986829602+985540095+981289195+979855965+980759811
1097+983780834+988287724+990241207+989446419+991451470+996970480+1000121744
1084+998830097+997691944+999680448+1003066090+1006483687+1008172906+1007610142
1070+1009147222+1013619519+1017359225+1019947582+1023585933+1029105085
1059+1033557054+1033301421+1030109287+1028024065+1029000093+1033168683
1047+1036811171+1035826298+1033007272+1032852137+1035827653+1041683965
1036+1047844126+1048491268+1044195932+1041561070+1042339239+1043044084
1024+1042341450+1043095297+1046947840+1051115717+1051357941+1048394835
1013+1048217233+1050807944+1049311663+1043689302+1040204231+1041088605
1001+1043068264+1042560921+1041132185+1041362569+1041567204+1041087035
989+1041994519+1043012558+1041137748+1037669653+1035694345+1035936925
978+1037968724+1040809148+1042864485+1043610129+1044230026+1046912248
966+1051935255+1055511338+1054787163+1051498311+1047923726+1046229086
955+1048928142+1052646592+1050862152+1047769304+1051405587+1057238218
943+1057275307+1054274256+1053739809+1055403850+1057264181+1059787488
932+1062608369+1062560296+1059754036+1058430721+1060471864+1063588534
920+1065142733+1066341656+1069239284+1071590624+1071462451+1070638062
908+1070285354+1070217737+1069667883+1068025311+1066407276+1065946580
897+1066706846+1068361971+1071031070+1073741823+1073690539+1071100185
885+1068814322+1068180160+1068394567+1067883443+1067337584+1066317119
874+1061921641+1055722749+1050794678+1047158039+1046308829+1048041557
862+1047858676+1043406992+1035858680+1029659433+1026911590+1023479585
851+1017649950+1011280090+1005333623+998703921+990786781+984734180+981081992
837+977108051+973365778+970887191+967325659+961743169+957360458+956096842
824+956066957+954499848+951856569+949335045+944895343+940546512+940822045
810+941847003+938106727+932715106+929755567+929300506+929004359+924337769
797+916968985+911775010+906573402+902107381+902762156+905538672+906183247
783+904965780+902877491+900685279+898296207+896204851+895450291+893616707
770+887952121+881640178+879042762+878655032+876366245+871406718+866194269
756+862735660+860888240+859801585+858092822+854232219+850305068+850459561
743+853835574+855577717+854565883+852957262+850863053+847620919+845240193
729+845919504+847455799+846111228+843836350+845022148+848513995+849875541
716+846709513+840626883+836468636+835915144+835967212+833916084+830785504
702+830045923+832049762+833480495+832308105+829333445+826094735+824224133
689+824721777+825145026+822349894+818299920+816864408+817809267+818900273
675+820568593+821980710+817660979+808471807+807777233+814876903+817378527
662+815894443+812849811+810274150+809916164+809880072+808492920+806418753
648+805788657+807267892+807836148+806034519+803563279+801281054+805193440
635+823462512+839565264+829884512+812664934+805549287+800238978+795900560
621+796892137+792817555+776290341+761962257+761244287+766049036+772544573
608+784583156+792928396+790858295+788959020+790429196
##END=
