##TITLE=Sample description
##JCAMP-DX=4.24
##DATA TYPE=INFRARED SPECTRUM
##DATE=25/8/2023
##SAMPLING PROCEDURE=Instrument type and / or accessory
##ORIGIN=Default
##XUNITS=1/CM
##YUNITS=ABSORBANCE
##RESOLUTION=4
##FIRSTX=4397.6552
##LASTX=599.8556
##DELTAX=-1.9287962
##MAXY=1.936623
##MINY=0.61553591
##XFACTOR=1
##YFACTOR=1.8036207e-009
##NPOINTS=1970
##FIRSTY=0.73961979
##XYDATA=(X++(Y..Y))
4398+410075019+409406837+408619784+408422162+408446881+408731914+409450393
4384+409602146+408653592+407648626+406874230+405997322+405832219+406565404
4371+406951429+406626079+406535430+406932294+407567891+408624312+409784996
4357+410365933+409631227+408127546+407808277+408359174+408156462+407362900
4344+406611208+406091837+406129710+406847991+407642248+408103091+408279068
4330+408063467+407652724+407127075+406156379+404947247+404522789+405317508
4317+406080998+406157734+406603772+407725130+408926727+409882089+409868341
4303+408601707+407322813+406861309+406856220+406913788+406433612+405561264
4290+405570418+406456844+407360388+407946315+408025959+407825792+407409232
4276+406925255+406876973+406914052+406727864+406638571+406847991+407253844
4263+407472220+407433852+407330249+407486430+408113732+408410265+407725163
4249+407007113+407486166+408653459+408664134+407295021+406561967+407249349
4236+408055801+408303886+408150051+407915218+408005404+407799486+406884574
4222+406441741+407221094+408291857+408180025+406868381+406329513+406980411
4209+406624625+405332016+405099628+405642197+405843620+405683737+405495633
4195+405326662+405165061+405304223+405619692+405763910+405637736+405344574
4182+405589553+406511273+407016135+406809590+406823833+406979981+406211898
4168+404786605+403933028+403780416+403856358+404346977+405239285+406039491
4155+406729814+407099381+406350597+404722129+403619674+403608537+404140565
4141+404764033+405124611+405130659+405407661+406253537+406909558+406489891
4128+405287832+404581811+404783102+405348539+406050561+406576574+406475450
4114+405915696+405485718+405267838+404746287+404399456+405096191+405718140
4101+404920082+403858407+404207750+405220085+405180891+404383495+404029261
4087+404332404+404974775+405267375+404865984+404261286+403866702+404097041
4074+404933599+405561991+405560736+404935185+403873014+403203577+403699021
4060+404907458+405603333+405444905+405037069+404903757+405178412+405302372
4047+404664165+403591254+402764379+402570954+402829747+403107442+403610487
4033+404619419+405469360+405080593+403654043+402646698+402682224+403173239
4020+403587123+403931078+404334353+404727450+404989481+404763108+403926485
4006+403310220+403377372+403634876+403777376+403663164+403516831+403960226
3993+404798931+405349531+405367509+405102272+404826460+404463304+403953088
3979+403638842+404010491+404797213+405217507+404931417+404187624+403653944
3966+403619146+403833192+403929855+403917000+403945388+403655960+403290821
3952+403518517+404204841+404798204+404906202+404404182+403552192+403202850
3939+403579753+403922916+403600937+402711041+402247455+402685066+403188012
3925+403216465+403007640+402793890+402727234+402979616+403455628+403949419
3912+403932400+403259129+402516360+401670781+400357286+399080209+398691078
3898+399789601+401507461+402106872+401353329+401115720+401377123+400409501
3885+399297230+399815345+400979664+402121082+402497556+401243679+399199906
3871+397532113+397082670+397913577+398590516+399527966+401149857+401839123
3858+400786404+397881190+394102737+395649479+400712577+403985540+404348266
3844+402521119+399625852+396367429+394679146+396497867+398742136+399675158
3831+400720211+401756043+401942825+401342655+398851390+395288074+395308266
3817+397153226+399129450+401469193+402678820+402140481+400459303+399495514
3804+399003705+398011396+398820029+400725035+402372671+404278603+405578978
3790+405621278+405117011+404333759+403526250+403177965+402686388+402970263
3777+404705672+405483570+404194365+402119397+401343250+401893585+402967752
3763+404311154+404199851+402533016+402108756+402446399+401043578+398859917
3750+400416903+403910787+406460281+409392957+413269429+416247082+416615393
3736+414679950+415012372+419406793+423820017+425157107+423004742+419837728
3723+418024262+416903929+415719186+414942444+414761577+414898656+416834662
3709+421432091+426722587+432014702+437345285+443583674+451150231+459300468
3696+467518517+473981859+476738228+477421447+479404478+481133475+480202337
3682+475861420+468565850+459885106+450276000+443625512+440741084+436194085
3669+433191117+434127973+434210888+432216720+429774465+427595199+424880899
3655+422481572+420888398+417199238+411468884+411359960+415607585+419106757
3642+420565329+420325703+419708183+419168225+418028492+415900681+411720671
3628+407515049+407286197+407072481+403991654+398745210+394540282+392350871
3615+389436304+386763611+386606504+387254263+387504662+387822873+387250595
3601+385571598+384390292+384153145+383558064+381834090+379665762+377192211
3588+374212641+372092233+371062316+370213300+369280972+368073790+366713401
3574+365877175+365480740+364589060+362443470+359366047+357447887+357048974
3561+356922668+356545467+356079468+355184021+353800565+352958984+352649563
3547+351848598+350846970+350541085+350615540+350624331+350348948+349530038
3534+348582343+347622586+346649511+346808963+347639936+346900108+345126596
3520+344392617+344481051+344644569+344968200+345049001+344703393+344640273
3507+344788490+344189839+343005989+342409520+342572376+343050834+343373606
3493+342958004+341970884+341277917+341458289+342548814+343905204+344432340
3480+343861680+343090986+342990159+343116631+342640123+342217284+342516196
3466+343049644+343390956+343619180+343493435+342645543+341687471+341307659
3453+341468731+341847816+342057897+342150363+342325249+342774824+343541453
3439+343953882+343989573+344383992+344906468+344989020+344758285+344485050
3426+344459405+344755475+345069061+345398508+345951190+346678526+347343370
3412+348141890+349367479+350254731+350443761+350831966+351739476+352944675
3399+354467028+355731745+356126230+356377256+357196993+358407413+359976065
3385+361987616+364206506+366164752+367779901+369244025+370720905+372792470
3372+375412420+377817498+379961370+382111554+384698193+388108897+391541115
3358+394540579+398169131+402582620+406495443+409705716+413242198+417088233
3345+420556670+424011493+427846622+431602868+434904615+438055701+441286264
3331+444078953+446387268+448773541+450923692+452844000+455040120+456183818
3318+455784112+456039996+457766449+459799051+461296123+462268438+463279782
3304+464081475+463627869+462246297+461284887+460741723+459490754+457214626
3291+454603103+451948321+449567038+448005590+446587699+444858503+443121343
3277+440947696+438431976+436561272+435284262+433413789+431068098+429745218
3264+429446603+429037214+428294709+427242883+425939500+424919928+423929238
3250+422717000+422008930+421410875+420130725+419071925+418983425+419083029
3237+418709001+418143926+417544879+416812850+416041727+414899086+413253632
3223+412282407+412557195+413087900+413174583+412929274+412614829+412237827
3210+411752066+411303714+410748025+410106645+409962625+410108165+409784963
3196+409380135+409434762+409876206+410401327+410350533+409935460+409933279
3183+409878090+409096259+408531846+409212552+410203143+410430805+410444883
3169+410761442+410769473+410423006+410412827+410731931+411169675+411434350
3156+411031471+410714978+411808444+413273394+412906141+411238743+411156555
3142+413443753+414559922+412562284+410747860+411727776+413988635+414480444
3129+412781751+411985676+414391910+417116290+416122692+413240545+413157068
3115+416359740+417857109+415201699+412805082+414335168+417624292+417867321
3102+415080350+413765566+416158879+419518624+419060127+415827085+415320041
3088+419129692+422346574+420427125+416679240+415826358+417716163+418649516
3075+416853961+415432699+416653133+419047635+419176553+416248470+413850002
3061+414629156+417455387+418460254+416520746+414612765+414314910+415039801
3047+415558808+415244529+414774432+415074302+415792518+415629925+414877771
3034+414777307+415200311+415582172+415859603+416047245+416384228+418481504
3020+427121368+443219824+454646759+451077163+440076373+431611394+427099986
3007+424408423+422427506+421064243+420301480+420071769+420231453+420781887
2993+421577763+422905799+424607929+425148747+424544049+424470485+426020896
2980+428580270+429579552+428313513+426849455+426583029+427629535+428374518
2966+427584062+426752528+427195625+429354302+431612121+430704744+427910899
2953+426989906+428927762+431661527+431554652+428828158+427059206+427621703
2939+429802819+431082639+429800968+428411796+428980637+431233962+433380511
2926+432497423+429428592+427507888+427624875+428895078+429039362+427116840
2912+425495643+426042905+428237306+429825886+429283614+427958520+427683270
2899+428804826+430392580+430877349+429946938+428794449+428598479+429587384
2885+430362936+429929720+429296106+429206449+429667986+430379658+430610328
2872+430568887+430687824+430823218+431354882+432003896+431792724+431312813
2858+431441465+431653463+431441069+430940073+430197238+429318016+429122509
2845+430089008+431142652+431218562+430847805+431043246+431655479+432134961
2831+432607074+433062729+433338971+433650077+434128931+434559735+434723847
2818+434869982+435256568+435594542+435757068+436097752+436772378+437523740
2804+438004048+438153587+438251770+438465420+438747974+438956138+438935351
2791+438885516+439013640+439220450+439614406+440253274+440777205+440941747
2777+440865342+440679617+440550832+440874860+441555368+442006264+442093178
2764+441939938+441786104+441953818+442413869+442913377+443262488+443564738
2750+443889823+444098979+444279252+444565242+444966171+445295784+445288216
2737+445234812+445581643+446100847+446528148+447092925+447658264+447816527
2723+447831563+448088406+448390458+448547234+448732364+448961249+449028533
2710+449022816+449202031+449488121+449717931+450083764+450680002+451206940
2696+451519765+451752979+451903046+451954104+452065110+452206883+452354604
2683+452769743+453303951+453445360+453303852+453271399+453261849+453273085
2669+453521633+453947314+454395666+454603301+454480729+454477524+454705880
2656+454804823+454888763+455374062+456030379+456290064+456361678+456694959
2642+457052662+457115452+457040104+457104150+457161850+457031016+457081975
2629+457609871+458335092+458792135+458919995+458985131+459028093+459053902
2615+459158827+459365967+459760815+460371264+461057192+461690310+462231987
2602+462624059+462817386+462841014+462740518+462660709+462825813+463140158
2588+463139993+463042503+463527669+464072453+464014224+463960786+464296909
2575+464688849+465000154+465172694+465208253+465300190+465373125+465371142
2561+465464104+465608388+465888893+466210707+466049436+465677126+465672467
2548+465770782+465910473+466485627+467115804+467122777+466819569+466806185
2534+466935069+467128990+467612272+468015680+468024966+467992811+468181312
2521+468576822+469099232+469564272+469841737+469962987+469946695+469889490
2507+469989260+470251820+470668149+471164022+471460522+471556293+471695620
2494+471972192+472311686+472651874+473002736+473265825+473284728+473153266
2480+473103167+473154852+473353334+473719960+473907305+473951224+474233183
2467+474490918+474521322+474676743+475037486+475447933+475803190+475940502
2453+475762410+475436069+475354806+475657816+476119981+476375106+476189083
2440+475956695+476181251+476715822+477122667+477320884+477603966+477986356
2426+478179583+478100038+477974987+478185994+478738048+479196082+479267497
2413+479162770+479441689+480176758+480723227+480705216+480456106+480428479
2399+480851021+481795047+483435809+486659499+493049079+504183413+520793804
2386+541855390+565015607+588385277+611540735+634628909+657838035+682382600
2372+708755337+734503151+756678825+774465168+788147773+796861597+799666579
2359+797036086+787256754+770421180+751494113+733515303+722133776+725010536
2345+739226986+746588849+739679469+728710833+719537058+715600143+719461313
2332+725334861+724430095+719738778+718849015+721129537+721063839+715113093
2318+703272077+690768860+686510991+691485787+695245172+689363957+674605466
2305+656719123+642873198+634899566+628541876+620788933+611123547+599380879
2291+587048649+576130377+566606764+557636031+549639728+543193307+537939163
2278+533496361+529667246+526368902+523681073+521456335+519421650+517479730
2264+515730243+514166383+512675425+511310442+510139976+509219181+508393067
2251+507475643+506770383+506358813+505806858+505059495+504581401+504566034
2237+504551592+504237776+504038039+504244650+504587944+504790292+504758600
2224+504584540+504631996+505071458+505580187+505924209+506261257+506602503
2210+506819788+506991336+507164867+507472570+508047922+508631238+509035208
2197+509313234+509518688+509824144+510303196+510861959+511394019+511641410
2183+511614278+511741874+512047891+512275718+512478794+512572119+512440723
2170+512476613+512884779+513292714+513455041+513491459+513503720+513435610
2156+513290698+513225958+513361121+513473184+513317730+513108773+513039935
2143+513223777+513768032+514348209+514671476+514837010+515091540+515610612
2129+516118482+516280645+516446145+516980122+517608746+518045465+518341998
2116+518642397+518795439+518759285+518989294+519378392+519524526+519755725
2102+520326946+520848034+521037395+521066741+521090998+521208679+521376195
2089+521398204+521468463+521896457+522525610+523047161+523585864+524306029
2075+524928903+525225865+525450752+526015165+526772112+527346968+527852095
2062+528415252+528881152+529385419+530141275+530815736+531259891+531785176
2048+532556829+533504656+534427004+535326020+536029364+536232505+536221368
2035+536382176+536799530+537305515+537748646+538129449+538357210+538514416
2021+538863857+539245949+539190397+538836957+538594390+538323832+537933578
2008+537699471+537927167+538493629+538886693+538993171+539017163+538914188
1994+538542836+538035727+537932719+538556947+539466043+540005539+540063372
1981+540006597+540155078+540622663+541206706+541529280+541652249+541750267
1967+541763321+541987943+542566897+543090034+543400348+543676193+544058384
1954+544507760+544855086+545102709+545399936+545658067+545699674+546035268
1940+547074769+548027255+548474318+548809549+549225878+549743629+550322715
1927+550609962+550432101+550356258+550593669+550540463+550637655+551516447
1913+552361662+552615035+552656344+552956017+553617556+554358838+554774208
1900+555012148+555302237+555385780+555409244+555495629+555498669+555909512
1886+556672639+557232789+557755662+558435708+559054550+559299496+559143249
1873+558732406+557829357+556818707+557398356+559239284+560619600+561161905
1859+561316830+561487420+561736860+561935871+562024305+561857417+561177768
1846+560019264+559680002+560992505+562269912+562893183+563586249+564101719
1832+563014003+560711471+560290053+561727872+563099331+564391213+565482829
1819+566225532+566619983+566350186+565609267+565394262+566243113+567221773
1805+567697917+567526336+566514761+565934055+566560829+566561159+565201332
1792+565212965+567973069+570386573+571156705+570817707+570129796+570036272
1778+570514730+569987891+567603468+565339536+566969491+570674877+572996973
1765+573440202+572874566+572754142+573217530+573483428+574026988+574061886
1751+571935364+569263166+569418289+571119362+572249378+572640459+572852755
1738+572852887+571690286+570360994+572030275+574749466+576919479+578342756
1724+578742760+578423788+577081212+573941462+571719301+574251313+577974941
1711+579749510+579086253+576808903+574758720+573404643+570828877+568362629
1697+569684187+573975236+577873486+579062789+578239715+576305858+572393861
1684+569155828+572171453+575964150+577283527+576480546+575294217+574279403
1670+572954143+573435840+575141274+575382056+575250793+576919876+578205809
1657+576846246+572019105+566674115+568123235+569179953+568683187+571948450
1643+576521194+578718702+578017638+574552439+573012373+578363642+583885832
1630+586519563+587126178+587385070+589120908+593148571+596235776+596462810
1616+597672867+602474297+606470234+608117638+609018637+610828501+613196202
1603+615477187+617569142+618995791+619593483+620262490+621826219+623873956
1589+625837292+627475178+628876908+630705477+632567027+632677338+630376789
1576+629167790+631753404+633532072+633902267+636177105+639362923+641373648
1562+641412379+637163234+633082101+639532058+646818507+652412145+656342583
1549+658629186+659459332+658228852+654357106+651391845+659640431+670247993
1535+675446518+679384557+684848385+688919141+690781022+692006809+692871522
1522+695106241+701065448+708018847+715093727+721831063+726800505+728948839
1508+727966411+731294663+742524966+751178578+755525807+757741161+762959515
1495+771072408+776853093+779622054+782598947+789560277+797867554+804544612
1481+810094099+814936376+818023515+818730527+818546057+823051384+832317097
1468+840172751+845036839+850736228+857618046+860054486+857028484+860569559
1454+873040654+882629767+886961265+888742180+893273152+900372090+904605835
1441+904592881+902654067+900893179+903276148+909319030+914992047+919634917
1427+924124579+926579855+924964970+920291565+913913055+910213882+911211247
1414+911740862+909518635+906029906+903137548+899899185+895919771+893323383
1400+890315624+884582196+878539380+875695800+876602813+877636993+876159121
1387+872437807+868926738+868181457+870910562+874743114+875502870+872057631
1373+868053432+867107621+869113455+871978781+871463442+866711583+863269980
1360+863513604+864896762+867264793+870533163+872660809+872364706+871057292
1346+870919816+872219893+872126964+868646035+866754478+870213663+874716809
1333+877515511+879008122+879053859+877827742+876370690+875868372+876940226
1319+878471501+879372236+880539200+882660963+885163761+888390491+893889548
1306+900776654+905613511+908208247+911525394+915865551+919772129+923085641
1292+924730533+923938259+923552136+926373773+930736006+933301659+934827119
1279+937707779+940252547+940860549+941202654+942078207+943739160+945778768
1265+945999259+945560260+947468208+949784422+949459700+947913024+947862924
1252+949625200+951685496+952621195+952139102+951117414+950633405+951155551
1238+953188946+956713035+959629849+960538779+960437060+959656418+958070218
1225+956477012+955654400+955984278+957253093+958191766+957843646+957657524
1211+958135652+957541397+956615347+956318451+955307206+954122265+954405546
1198+955033642+954538991+953842884+952939505+950958854+949109333+948698754
1184+949578141+951311533+953686637+955151290+954480894+954261130+956443568
1171+958336050+957479136+956234776+957114691+958949010+960096013+959739962
1157+958754362+958612787+959829388+963770863+968629002+970018572+969147579
1144+969909846+972089376+973813053+974927339+974731369+973207364+973008882
1130+975527939+979748201+983564097+985501920+986273374+986092275+984297547
1117+982064811+981538633+983437130+985422078+985261468+985279578+987143640
1103+988542660+989193228+992353071+998438782+1002459372+1002163600+1001526053
1090+1003239617+1007031323+1012107177+1017631217+1021967739+1022023391
1078+1019445972+1020026414+1023577403+1027463624+1032366112+1036851743
1067+1038803049+1039650248+1042187745+1046341714+1047831152+1046334973
1055+1046639139+1047777153+1046003046+1043613799+1043142545+1044127815
1043+1048131486+1054244956+1055343115+1050223440+1046460817+1045889628
1032+1046036028+1048053428+1050530780+1050761119+1051167864+1053577997
1020+1056098707+1056710345+1056194940+1057093362+1058045981+1055409672
1009+1051321335+1050783393+1053946870+1055701149+1051755972+1045187838
997+1042827209+1046097099+1050439239+1052798281+1053389496+1052980834
986+1053600734+1054849522+1054664854+1054995525+1056969105+1057107705
974+1052953537+1047169745+1044494507+1045596301+1047327976+1050231636
962+1056716029+1062741264+1063924552+1063065060+1062964663+1060813355
951+1056252443+1055126920+1057724828+1059654257+1060692336+1060187837
939+1058045717+1057752125+1060158954+1063128841+1066742026+1070821573
928+1072169370+1070673191+1069592348+1070865856+1073304542+1073535939
916+1072063487+1072217090+1073741823+1073498728+1070752636+1069216800
905+1070424742+1069987990+1066127149+1064472013+1068365834+1072242933
893+1070815492+1067406209+1066410232+1066949695+1066233760+1064408364
881+1064601029+1065818224+1064625352+1063152768+1063081187+1061926848
870+1058519085+1051860071+1042608965+1036999398+1038037213+1041530701
858+1045570525+1049791646+1050869976+1049066986+1045443821+1037948184
847+1029745865+1024731478+1019565207+1011553239+1002871868+997240688+998777450
833+1006080488+1008823407+1000979650+990020995+983624045+982004665+982594822
820+983190664+982797798+980591963+976786774+974419007+974656352+973816622
806+969526895+965154286+965059903+968007847+968232237+964891494+961927688
793+960459862+958672338+955111236+952205196+951415897+948553281+942915624
779+938962053+937606985+936213516+934869353+934492020+932183342+927808551
766+924639984+921457272+917672441+916651282+916574943+912546553+907454241
752+905789521+905285947+903027500+900224303+899144783+899602751+900526024
739+902344811+903441384+901716517+899960586+901083795+903172181+902898748
725+899863692+897557525+897926200+898081125+897388059+898199765+899930976
712+900893377+900436070+898232415+896078596+895412430+893671635+892919612
698+898288926+902517450+897400617+891009417+890798179+893216310+894048704
685+894678121+896242907+895165237+891331033+890288790+891404992+892223440
671+894462984+895035560+889652432+882881256+878148762+876618147+876925949
658+874754945+871126823+872889099+879299532+878355440+868981861+859541461
644+849170451+841335418+846122836+859107220+869523240+878292650+877159593
631+862998398+858023338+861271350+854398520+849187701+854985373+851439737
617+828232329+808817419+811744279+823921980+825279031+817710227+810987035
604+809242605+811000056+814630887
##END=
