##TITLE=Sample description
##JCAMP-DX=4.24
##DATA TYPE=INFRARED SPECTRUM
##DATE=25/8/2023
##SAMPLING PROCEDURE=Instrument type and / or accessory
##ORIGIN=Default
##XUNITS=1/CM
##YUNITS=ABSORBANCE
##RESOLUTION=4
##FIRSTX=4397.6552
##LASTX=599.8556
##DELTAX=-1.9287962
##MAXY=1.7911423
##MINY=0.29167533
##XFACTOR=1
##YFACTOR=1.6681313e-009
##NPOINTS=1970
##FIRSTY=0.43405741
##XYDATA=(X++(Y..Y))
4398+260205785+259138560+258737171+259206932+259773971+259838216+259677943
4384+259396255+258594567+257828058+257925694+258544526+258867912+258603071
4371+258112015+257758560+257504796+257240973+257224519+257618618+257907685
4357+257870632+257787020+257571042+257227145+257207671+257442212+257131796
4344+256268240+255806411+255933133+256061802+256183324+256617978+257010863
4330+256895165+256454686+256061033+255909050+255834157+255690124+255724354
4317+255778505+255575998+255338670+255084352+254767557+254750138+255107041
4303+255185990+254606230+254098362+254400667+254949698+254643426+253557657
4290+252775586+252883816+253603214+254146135+253955954+253567733+253572253
4276+253380447+252626997+252096279+252270648+252755308+253013807+252850640
4263+252572900+252527807+252626229+252760775+252859358+252750127+252618957
4249+252614294+252610989+252591587+252251549+251452363+250858722+250780470
4236+250845394+250984157+251001701+250662789+250447936+250439093+250541695
4222+250997003+251148843+250649461+250291576+250166998+249915360+249913948
4209+250311442+250497478+250333006+250226259+250155028+249991914+249718694
4195+249175774+248632532+248609664+249108331+249754622+250071131+249852598
4182+249366919+248890030+248559014+248362116+248161520+247957566+247861377
4168+248077462+248489124+248344555+247515015+246883230+246939168+247308362
4155+247357243+247033534+246778555+246619032+246407985+246064642+245370059
4141+244597618+244387232+244779455+245260989+245384352+245378135+245543053
4128+245208768+244420587+244344747+244855670+245008172+244686447+244320986
4114+244164447+243978376+243621187+243335782+243267500+243347520+243364671
4101+243083018+242628104+242518945+242770673+242736656+242391777+242267450
4087+242203794+241846248+241554358+241653281+241766889+241545175+241343704
4074+241534903+241762529+241605901+241248533+240912551+240653070+240598240
4060+240631417+240618750+240433357+239831802+239240751+239090786+239041227
4047+238964619+239168341+239671225+239849131+239412905+239114869+239214488
4033+239190906+239151405+239146277+238681573+238081214+237947007+237982381
4020+237982738+238081357+238003802+237559518+237024976+236585069+236323337
4006+236500064+236945259+236985636+236462100+236030536+236232007+236769515
3993+236964519+236617245+236147806+235803999+235492118+235454600+235678993
3979+235643065+235329629+235066950+234973387+234970672+234841342+234615377
3966+234313696+233706602+233158411+233200306+233660973+234049248+233827464
3952+232761811+231302255+230746972+231240333+231330144+231241708+231809962
3939+232290157+231983188+230635543+229041298+229174308+230588539+230802319
3925+229879128+229580503+229227762+227790860+227045361+228464236+230392034
3912+231304149+230905279+228635479+224519062+220959644+220443076+222498113
3898+225806821+227941825+227160255+225207410+225572191+226440321+225214431
3885+223495519+222449393+222602038+224844379+225793512+223918936+221382811
3871+219775220+219969367+220521631+219675441+220316426+223255779+224399737
3858+222167937+216993675+212604735+216863434+223089217+225905119+225360376
3844+222378323+218323472+214473880+213354773+216182787+219435361+221660980
3831+223138634+223231964+222377591+221012152+217902217+215191562+216232364
3817+218245721+221341559+224761893+225704094+223712265+220655695+218866178
3804+216785611+215113775+217002322+219650893+222251370+225054658+226579781
3790+226737231+226064534+224856599+224010319+223359007+222264698+222778158
3777+225058856+225938116+224300779+221725386+220792314+221383526+222229002
3763+222236631+220195832+218002318+218010144+217390097+213371066+208423216
3750+209008603+211835510+212925424+214564959+216638112+216366911+212859428
3736+208279469+208828731+214552757+219319181+220752117+219846737+219112350
3723+219975745+222040197+224394449+225600473+224337011+221245710+222765294
3709+233259370+247091205+260728213+274757249+291011171+306657338+318506473
3696+326728801+330391197+328947578+326738056+329017254+332643311+334041480
3682+331554432+323953473+312740499+301260898+295373759+293484802+290212700
3669+288396545+288424451+286286553+281590841+275668918+269254080+262803278
3655+258040856+253688648+245772234+236775464+236800279+241360641+243554726
3642+242965391+241141589+239129912+236833134+233774313+229540501+223958651
3628+221548569+224182580+225682423+223784586+219577894+216697337+216159276
3615+215507857+214879735+214480401+214037850+214980461+216296484+215688693
3601+213986718+212972929+212163738+211344936+211683634+211723135+208864338
3588+205377741+206166422+208723235+209554918+208884258+208145869+207665711
3574+207092936+205934328+202876454+197534612+194328827+196473300+199617162
3561+201264325+202125184+202427686+201422044+199807700+198990398+198119249
3547+196922998+197292907+198955256+199950036+199976870+199857724+200184630
3534+200397446+199591703+198075710+197125970+197281223+198007517+198753195
3520+199332919+199840733+200282284+200285393+199693127+199103791+199038546
3507+198912378+198290027+198152211+198828713+199232532+199370526+199864834
3493+200266544+200172696+200169569+200496244+200408809+199584879+198999384
3480+199544556+200512501+200979493+201198044+201817894+202783713+203430076
3466+203427754+203118641+202996387+203181422+203580291+204212540+204772915
3453+204853918+204383407+203664653+203611788+204385301+205057123+205586305
3439+206366267+207091007+207455717+207598964+207770546+208097596+208501575
3426+208705262+208641481+208704726+209187707+210038185+211149771+212217746
3412+212967480+213659972+214658522+215711025+216409574+217137547+218176098
3399+219050213+219865496+221062515+222426882+223757037+225224543+226917442
3385+228597907+230266670+232473530+235176002+237460292+239229281+241523218
3372+244631117+247816230+250816255+254067686+257848943+261818843+265424247
3358+268720253+272385185+276817735+281642795+286634273+291835887+296557933
3345+300514970+304410048+308517621+312793632+317222966+321487436+325028488
3331+327751934+330540447+333820624+336648799+338284296+339117374+339948307
3318+341321786+343088417+344530893+345216507+345551274+346302169+347490738
3304+348395385+348524876+347924696+346614104+344343696+341339937+338176173
3291+334830107+331104717+327547658+324812384+322477624+319634120+316314424
3277+313111999+310069578+307155434+304834501+303369693+302231791+300659575
3264+298846850+297445983+296193008+294687216+293382967+292741607+292453826
3250+291908422+290793281+289291027+287937200+286816914+285619662+284541164
3237+283771403+282913974+281882570+281014798+280173216+279219474+278350755
3223+277448859+276601042+276162725+275857311+275164551+274224459+273628405
3210+273295425+272749610+272244618+272040753+271655104+270745990+269899925
3196+269635566+269470219+269057718+268725863+268731508+268638892+267841832
3183+266907939+266522755+266352780+266032949+265563653+265181130+264827479
3169+264249113+263853870+263916364+263962172+263673748+263389112+263365422
3156+263222854+262843797+262603772+262528361+262415450+262098173+261612083
3142+261528847+261987906+262191467+261853752+261571814+261569438+261481574
3129+261174034+260689981+259994702+259399792+259219742+259254383+259236303
3115+259125464+258908485+258546705+258249509+258119358+257709805+256989621
3102+256614316+256685618+256696123+256500869+256269812+255785455+254812793
3088+253938643+253647003+253458484+253106066+252943023+253032012+253036925
3075+252636662+251827454+250949373+250196852+249464126+248802738+248396168
3061+248038015+247389008+246702715+246375291+246094370+245486044+244818135
3047+244399148+244137452+243890673+243632263+243252314+242664729+241895754
3034+241039826+240482095+240373740+240237532+239860780+239449476+239105079
3020+238875648+238745103+238479011+237962014+237526216+237360690+237235130
3007+237091794+236913012+236614959+236468067+236593734+236698874+236838744
2993+237233219+237683166+238033888+238387271+238730453+238972373+239108581
2980+239112225+239014750+238980805+238932353+238560336+237818999+237046361
2966+236579674+236317227+235866136+235109488+234402275+234061290+233954900
2953+233782228+233411693+233028403+232886317+232868237+232671268+232244974
2939+231746897+231211658+230603492+230135876+229974316+229766717+229201929
2926+228576594+228141457+227661388+226920015+226042238+225181790+224336922
2912+223713427+223524640+223509418+223351932+223079034+222895964+222848406
2899+222716414+222375822+221969306+221719204+221590143+221277761+220867851
2885+220733518+220726229+220473715+220120939+219949250+219792836+219431413
2872+218880507+218297513+217973930+217919654+217850978+217655474+217334159
2858+216949171+216576582+216112664+215446631+214655145+213988594+213625188
2845+213450926+213407852+213521853+213615219+213588599+213571609+213727397
2831+213931424+213881418+213755482+213800021+213812367+213734472+213633906
2818+213431935+213280255+213357024+213442565+213413158+213422877+213397990
2804+213243987+213092004+212974001+212808904+212565055+212285815+212032390
2791+211856949+211842281+211966179+212062368+212011022+211831687+211644776
2777+211522574+211389814+211188093+210960930+210708667+210494868+210463764
2764+210484131+210408684+210411864+210502157+210504605+210446434+210337722
2750+210133838+209939370+209854526+209887310+209968259+209940567+209808861
2737+209748868+209694985+209484134+209277410+209278786+209369294+209374975
2723+209370866+209423516+209413976+209348212+209366471+209447760+209435969
2710+209285289+209169680+209194299+209231120+209239607+209224510+209138183
2696+209093572+209078762+208910056+208667958+208507274+208337496+208084822
2683+207932302+207934750+207845457+207617223+207418485+207272201+207105496
2669+206934843+206817430+206662516+206393655+206152576+206044256+205970238
2656+205836871+205661341+205478449+205344528+205260488+205154116+205085672
2642+205107075+205072166+204934850+204861011+204873035+204812881+204682015
2629+204613267+204545038+204317483+204065827+203991291+203931602+203724735
2615+203543970+203572519+203768006+203898729+203747460+203511240+203520244
2602+203620667+203633388+203640087+203583310+203501986+203497430+203432845
2588+203261513+203084947+202964335+202901538+202867521+202865270+202854193
2575+202762310+202561786+202310630+202139191+202034766+201889768+201702571
2561+201538260+201450289+201379398+201219393+201053671+201019941+201004844
2548+200904010+200784185+200565830+200275799+200174179+200237870+200290466
2534+200366235+200474251+200451865+200254860+200070290+200000381+199966954
2521+199937137+199901709+199839429+199815168+199854633+199940871+200097124
2507+200254342+200326895+200320499+200260416+200242622+200369987+200551877
2494+200659197+200704450+200658196+200549608+200513627+200464728+200331808
2480+200236316+200177520+200086601+199984999+199892294+199780472+199670259
2467+199624773+199642246+199675940+199635975+199500303+199417709+199456675
2453+199475273+199381103+199313499+199369651+199368150+199177970+199003743
2440+199046532+199146723+199144472+199149724+199145490+199024468+198918792
2426+198949414+199008406+199000528+198992256+199026790+199074259+199140273
2413+199213326+199281930+199381031+199525654+199671331+199724124+199694878
2399+199735951+199898565+200063679+200122600+200113828+200138501+200118545
2386+199800053+199018036+197700352+195793171+193417606+190798173+188074709
2372+185336149+182651667+180119920+177845671+176038538+175033754+174851541
2359+175299559+176548282+178965725+182552691+186218767+187954884+186799885
2345+184090892+182342895+182029763+182248957+182836845+183695167+184391822
2332+184855347+185562310+186544816+187369800+188098346+189146615+190587858
2318+192115429+193485835+194600583+195427693+196202867+197187481+198278611
2305+199230066+199899297+200329003+200714348+201120399+201425099+201632073
2291+201899737+202255192+202650185+203019272+203181368+203109923+202990044
2278+202901341+202817229+202766133+202742318+202649435+202544652+202595052
2264+202767563+202949203+203105582+203193195+203208988+203247507+203328992
2251+203346661+203304284+203319988+203404886+203483816+203506809+203486889
2237+203473740+203463753+203455052+203489355+203522871+203493464+203448907
2224+203458840+203516921+203554779+203554511+203549115+203577093+203651486
2210+203667029+203593190+203527283+203453659+203341445+203281112+203337925
2197+203422215+203456785+203497180+203518136+203460769+203431773+203518690
2183+203619595+203644715+203670209+203746960+203798503+203782959+203750908
2170+203743423+203754374+203774080+203791267+203782727+203765451+203790749
2156+203835163+203836271+203852761+203959472+204074992+204109151+204064112
2143+203980643+203969156+204088213+204237874+204325469+204361879+204372563
2129+204338922+204278304+204279626+204361397+204406740+204342727+204296455
2116+204402452+204576375+204680639+204741954+204838804+204957254+205060339
2102+205129032+205146344+205188239+205359375+205565920+205683762+205832923
2089+206101587+206359871+206540440+206715095+206926660+207149356+207373231
2075+207613704+207851907+208088913+208309840+208426539+208549026+208856245
2062+209181829+209432538+209752406+210123762+210491081+210840748+211168476
2048+211562111+212024565+212408105+212693581+213103670+213690344+214255882
2035+214699738+214998881+215170463+215253360+215285089+215320124+215326216
2021+215171857+214787905+214507717+214745724+215211643+215400698+215347744
2008+215365003+215507964+215589896+215584768+215670577+215931023+216020852
1994+215546250+215095213+215479272+216284586+216962106+217501150+217931928
1981+218318005+218710461+219199177+219830390+220469856+220800604+220688890
1967+220896471+222039108+223326795+224111832+224592830+224927061+225238424
1954+225646405+226042095+226289785+226273652+225794119+224984213+224975781
1940+226240904+227498024+228160984+228601177+229089625+229665722+230188222
1927+230235602+229576894+229244449+229820439+230538693+231764476+233448818
1913+234262761+234085945+234014768+234732593+235636097+236121633+236320335
1900+236300701+235853094+235272638+235068844+234625703+233860890+234089035
1886+234961757+235372382+235497763+235608995+235718404+235782703+235539319
1873+234305907+231661838+229567300+230911550+233709818+235191652+235501301
1859+235576747+235859829+236280602+236504781+236247944+235335739+233673890
1846+231784772+231974666+234641353+236446717+236694729+236865650+236896147
1832+235349549+233288974+233434418+234768896+236212141+238047966+239279234
1819+239686571+239934922+239809273+238826124+238051235+238758645+239994433
1805+240247304+239122123+237822697+238028403+238814547+238176367+236383437
1792+236719794+240145595+242581850+242909650+242442176+241798797+241636255
1778+242079413+241218465+238238593+235929095+237761096+241427762+244220938
1765+244957273+244070670+243837987+244218598+244455443+244773685+243391988
1751+239898566+237938163+239487137+241600005+242560411+242845065+243527928
1738+243637194+241153613+238797039+241514018+245712348+249015090+250658180
1724+250684174+249779598+246811267+241501315+239744170+244734094+249659452
1711+251731443+250971562+248615952+247132063+246214749+243929620+242256016
1697+244044550+249623988+254884613+255995431+254591473+251912959+247542331
1684+246451541+252074322+256571581+258098008+257947990+258003106+257685918
1670+257589962+261747987+266329644+267470137+268407407+271731748+273914578
1657+272074304+266592306+265550736+271383277+271943510+271605312+277597734
1643+283540757+285246644+283240881+278921510+278904538+285950285+290758211
1630+292175014+292844763+293714447+295046478+298295693+300844520+300705775
1616+302309221+307219000+310240410+310814685+310980443+311709363+312200491
1603+312432602+313062761+313525125+313174064+312807067+313273505+314066491
1589+314827427+315649320+316294951+316757815+316867332+315448331+312521430
1576+312893180+316857291+317969109+317685223+320132430+323256139+324576664
1562+322868204+317107197+316170355+325959433+333527984+338816980+342901792
1549+346577837+348179353+346294237+342656067+343005520+357202743+370498142
1535+376218916+382605330+392243228+399164934+403699068+408685240+413083845
1522+419886601+431562582+442841766+455051467+467329164+475473241+478514875
1508+480665118+498174713+521900711+535051755+543868403+553057158+566724342
1495+582300547+592609874+599192131+609546087+625700390+640710359+652266890
1481+662421679+671666675+678890632+684512251+692390093+707740869+724251271
1468+735989174+746160899+759199640+770954766+776679005+779201070+788790516
1454+803485764+815254039+824242912+830832352+836785272+843686933+850489546
1441+855679887+858102475+860555577+868260908+876759904+880734164+882281047
1427+883703156+882575616+879040353+873834504+865628720+859367366+858246044
1414+856472480+851979473+846720885+841455793+835489081+829736685+825049155
1400+819334921+813085644+809188136+807136725+806357853+805174358+801126134
1387+796239367+795695178+799138469+802438191+803202271+801604363+798942375
1373+797679199+798288133+799204000+800551431+801134210+799376083+798911717
1360+802233021+805704254+807269718+807835631+808503308+809391876+810985710
1346+813401509+815438699+816386295+816852733+819334492+824516686+829262172
1333+832020563+833397651+834153656+834894868+835828171+836667144+837249637
1319+838132632+839412172+840094285+840676706+842843386+846110521+849143687
1306+851970612+854725144+857531988+861226684+865665309+869396594+872372948
1292+874972406+876622767+877500973+877736157+877455237+877600449+878451785
1279+879022058+878269841+876356997+873781479+870792262+867939826+865851898
1265+864356111+862311632+859868534+858796807+859520511+860405434+859585685
1252+857156022+855188437+854682266+854887436+855870835+857291944+857005307
1238+854825406+852976164+852194719+851382116+850194833+848979108+847365050
1225+845541177+844457587+843760468+842142551+839418961+836445038+833407299
1211+829687304+825597561+822369087+819920344+817168812+814231192+811920229
1198+810388567+809765769+809932706+809690233+808658454+807867003+807824912
1184+808231821+808420840+808236752+809037707+811687475+814260206+815093176
1171+815945656+818459716+821654245+824718354+827905880+830658340+832752414
1157+835379028+838428416+840719370+843257942+847507690+852208868+855327147
1144+856711380+858108549+860904745+864076405+867030105+870458031+873021329
1130+873769116+875076885+878549547+882763635+886430961+889277824+891243836
1117+893270449+896238155+899763342+903477620+907516839+910693073+911805463
1103+912732192+914961187+917290231+920259438+925494729+931441075+936475270
1090+941089693+944509544+946612550+950010962+956151901+963154253+968661603
1076+973420666+978697835+983696227+988079682+990676639+990508416+991594579
1063+997130657+1003628409+1007260433+1008761366+1009559462+1010962205
1051+1015135059+1020647483+1022578265+1020912968+1021065398+1024587798
1040+1027557505+1027064983+1024685273+1024242847+1027034612+1031404989
1028+1035433489+1038261914+1040807060+1043477982+1044392777+1042872549
1016+1041940389+1044044681+1048660891+1052713759+1051643747+1046945784
1005+1044437655+1044258426+1042862330+1040752677+1041269925+1043400873
993+1044478675+1044389918+1043459687+1043178124+1043664285+1044044538
982+1045673890+1047275442+1046210218+1044606164+1045134846+1046808290
970+1049019920+1051029167+1050835717+1050571448+1053094798+1056154620
959+1057260792+1058800172+1062078241+1062644798+1060346555+1060651772
947+1063723743+1066223225+1067121655+1066748976+1066523368+1067520345
935+1069087167+1071257920+1073257234+1071843057+1067033684+1063624481
924+1065098329+1069233022+1071609803+1071500107+1069966087+1068412558
912+1068644741+1070116374+1071915092+1073741823+1073243442+1069037572
901+1064636394+1064365836+1067893524+1071560565+1072576337+1070960563
889+1069813157+1070676213+1070238575+1066054715+1060644769+1057036614
878+1053874171+1049540026+1046578180+1044903092+1041745224+1038788451
866+1037622608+1035515313+1030939552+1026288183+1023100086+1018404481
854+1009804508+1001719853+998666821+996726035+990287382+981287574+974527982
841+970911394+967809838+963177550+957998428+952965376+947072342+940100148
827+932904347+927771962+926269600+926986872+928445570+929217796+928241472
814+927046543+925535105+921006724+916018979+916592968+921119778+922332644
800+918792950+915255400+914230266+912041933+905264189+898017578+895075027
787+894505111+892849676+890151885+888342090+887922032+886728390+883460897
773+878967246+874775955+872619566+871977830+871111487+869559887+866805426
760+863502988+861781164+861073611+859024059+856337702+855639439+856028125
746+854914449+853555656+852201293+849230229+847385989+849031062+852741838
733+855785723+855544179+852698746+851189809+853710944+857033320+857214979
719+856866526+858569841+861171944+861355746+857151448+852989099+851925233
706+851158723+849245522+847299447+844789174+840856578+837611239+836635129
692+836925697+838223103+839156550+836404948+831103124+827389275+825217164
679+823441886+822791146+821973326+819722963+816276385+812661655+814191030
665+821156507+825894632+824816544+820590307+817965837+815577980+811067106
652+806451683+804674404+804726929+804094627+803792411+804340387+805032004
638+805684959+802006556+791097478+782276327+782933499+785008706+782642074
625+780220343+778342587+775232527+774039957+777174314+781034733+784391554
611+786667214+781457793+773286596+772996100+777003947+776488414+772900554
##END=
