##TITLE=Sample description
##JCAMP-DX=4.24
##DATA TYPE=INFRARED SPECTRUM
##DATE=25/8/2023
##SAMPLING PROCEDURE=Instrument type and / or accessory
##ORIGIN=Default
##XUNITS=1/CM
##YUNITS=ABSORBANCE
##RESOLUTION=4
##FIRSTX=4397.6552
##LASTX=599.8556
##DELTAX=-1.9287962
##MAXY=2.00857
##MINY=1.1884689
##XFACTOR=1
##YFACTOR=1.8706265e-009
##NPOINTS=1970
##FIRSTY=1.2697634
##XYDATA=(X++(Y..Y))
4398+678790405+675892551+675292052+676387199+676460931+674507000+670551724
4384+668758321+671665543+676242603+679226680+678659829+675790333+675010889
4371+676175307+676252226+674674602+672102009+671603155+675539185+680403015
4357+680811505+676616234+672882855+672078303+672719332+674657714+677589153
4344+678913590+678590430+678936786+678341768+674212263+669878322+670535282
4330+675371647+680030213+684752888+689629018+688971293+682033660+676649690
4317+676855656+678702462+678627137+677957877+678797352+680479042+680364843
4303+678111905+676014078+676654215+680053155+681596876+680303984+680060993
4290+680098719+679574247+679863822+680072336+681204190+683305777+682930999
4276+680271547+678779444+680500199+683705473+685415330+685905900+685711596
4263+684927436+683810431+680999691+678261026+678709345+680547739+681720442
4249+682648370+682621414+681009951+679621150+680447369+683405127+685789980
4236+683981984+680363186+680229551+681906206+682426728+683240776+684843189
4222+686077261+686835612+688586828+690912861+690422291+687074078+684372757
4209+683824961+684344462+685036346+686045207+686470520+686166033+686626333
4195+686897236+685092298+682034871+680341264+681318517+682728284+683264737
4182+684866513+686727722+687191654+688304263+688976008+685794887+682191321
4168+683171058+687166928+688684585+686472496+685346760+686898256+687788138
4155+687407051+686929673+685484410+683985680+685432026+688440192+688972949
4141+687456440+686450255+686410936+687101035+687923303+686874230+683667109
4128+681582983+682800550+686153606+689346963+690584476+690243346+690523107
4114+692167517+692379154+688130862+682989309+682636326+685595868+688019849
4101+689442298+690180065+691791910+694188234+693319827+689541776+688136470
4087+689794963+691092316+691491247+692272093+692334418+690329186+687655969
4074+686839818+688534381+691148714+693024835+693168794+692102069+692276745
4060+694046824+694874509+693061669+689353144+686861549+687599570+690110093
4047+691860672+691485447+690395271+690394697+690711102+690583775+690614683
4033+691076002+691448932+692046627+693443840+694196519+693495841+693851374
4020+697150071+700046715+698329656+694556703+692448043+691117297+689733148
4006+689025333+689409734+690920763+692118447+691576195+690864492+691919492
3993+693404520+693217673+691772282+691152028+692856915+695487244+696990626
3979+698148672+698504332+697267583+696504135+696162367+695637448+696413196
3966+698298812+699440799+698277081+696302566+696236035+696676006+695864252
3952+695634772+696628529+697123433+697251205+697284789+696477114+696162176
3939+697474696+698575961+697575830+695708313+695581177+697481833+699601391
3925+700225915+699410465+697436013+693842069+691084541+692222768+695472077
3912+697669445+698070415+696990881+694024328+690288082+688490091+689305986
3898+693098886+697713672+699487128+697971575+696834049+696705384+694485010
3885+693001702+696129038+699595146+701238281+701855030+699478462+694400763
3871+688669227+686389205+691105444+696530709+697627131+698221193+701045252
3858+703658502+701974136+693722263+690724357+695199453+699018990+700261283
3844+699958644+698924802+696203343+692922872+692516740+693404265+694321423
3831+698045753+702800355+703272954+700799202+698183530+696861069+699791679
3817+699607509+695670331+698142936+703381672+703373197+698367637+695946078
3804+695451557+693115582+695996677+702005234+704104973+705708661+709194907
3790+712097923+712527889+709815607+707140159+707143473+706785838+705076936
3777+704582352+705369761+706322097+705597522+703885243+705202478+707984414
3763+708141309+705168767+702684564+705150031+707897235+704757154+697038230
3750+695294342+700846615+703977201+703410286+705891558+708858237+707931775
3736+703946166+700529510+699579405+702740325+706841280+706737150+704963757
3723+706731351+709761694+710740412+709725943+706939037+701727130+698465012
3709+702372365+707729251+709775650+708374805+707604856+711202241+715894838
3696+717469913+715739280+712833906+709652084+708659346+711786681+715046122
3682+714745268+712538340+711029159+706627412+701009119+699663971+697759555
3669+697632930+702981658+708836315+711125196+710256534+709022844+706650609
3655+703417423+701615544+697176008+687555471+683991352+688227344+692939123
3642+695219782+694716785+691721301+687322422+683772195+681504344+677880066
3628+675520895+679252681+682946357+681850955+675449202+669460846+669869017
3615+671908024+672265341+672671983+670588686+666821404+667376402+669820394
3601+670714164+671119977+670185230+667229002+664820570+663857082+662302910
3588+659146579+656998471+656654537+656904538+656796903+655505477+654396055
3574+654811937+655064040+653105266+648800257+645348997+646629271+650595253
3561+654359858+655836857+653750437+650073393+647506218+646345878+644836505
3547+642049472+640468534+641307499+642000274+641771877+641457193+641082734
3534+641025316+641040228+639347641+636781803+635737319+635541996+635332016
3520+635817105+637338203+638780407+638577310+637348208+637545762+640284044
3507+643282078+644041767+642976698+641212163+639853696+639727326+639184436
3493+638039263+638488092+639750841+639988160+639493448+638573040+637070550
3480+636057547+636684684+638360065+640717133+643388502+643807825+641659208
3466+640379826+640783918+641152451+641146588+640733957+639968150+640017538
3453+641635693+643635189+644083062+642949933+642154111+642783988+644057890
3439+645267809+645893544+644374995+642286982+642926354+644693948+645500094
3426+645883411+645891377+646358113+647751694+648806311+648439180+647535341
3412+649194981+652630500+653296765+651589075+650656304+650687339+651222326
3399+653187856+656459788+658432965+658861082+661548319+666806556+669966775
3385+669263612+667620221+667180952+667728621+668865828+670992332+674261396
3372+677503249+679482161+681552076+685432664+688981170+691119081+694501452
3358+697576850+698006561+700040214+704432530+706860972+708283803+710432739
3345+712608886+717112468+723706867+726757539+726167683+727863648+731861620
3331+733228627+732348940+733745643+737736160+739870757+738190215+737458693
3318+740816975+744059465+745379759+746598282+746538697+746148306+746159841
3304+744555961+744409198+747891875+748361097+741463166+733593973+731859517
3291+735100860+737563906+737541347+736643817+735908918+736087863+735702124
3277+733558223+731318476+729843835+729693312+731394375+732434526+729799799
3264+725819033+724296150+723893906+722923791+722240766+721297671+719982411
3250+719804103+720367512+720306080+719193280+717660329+717152298+716698880
3237+715828944+717386430+721206223+723758677+722425383+718880827+717524718
3223+718376938+719537979+720791551+721456223+721673086+721330363+718571624
3210+713811668+711291013+713367619+717220931+720085457+721926337+722703678
3196+722040854+719479159+716658350+716955126+719798622+720871720+718849664
3183+717877128+719722022+720736109+720123757+720220240+721755740+723688960
3169+724201707+723060166+721400335+721039322+721852095+721028552+719696468
3156+721427482+725079800+726922082+727061899+728068593+729672983+730608112
3142+731173688+731866655+732870035+733586007+733051339+731833708+731451665
3129+732482767+734999216+737754641+737894139+735074669+732146225+731614232
3115+733456642+735010049+734308990+732435163+731690386+732561533+733063956
3102+732984170+734638649+737870369+739975270+739258342+737399555+737686326
3088+739893508+741102918+740538106+739393315+738422117+737498522+736070784
3075+734410761+733951099+735302684+737504194+738906696+738795111+738261844
3061+737904718+738189322+740054036+741905941+742168177+741976869+742154731
3047+742257522+741505226+741000572+741717755+741729545+741042759+741145933
3034+742451380+745066414+746405891+745071257+743988537+744545064+744831963
3020+744989177+746950373+748592553+748055144+746444700+743913020+741832017
3007+741201631+741509750+743912128+748799538+752903871+753186691+751238176
2993+749556231+749081402+750567068+753130739+754731241+755418982+757394134
2980+759974820+760288038+759206401+758203084+757233797+757729529+759901598
2966+761599538+762082971+761951821+761110243+760266689+760936013+762740250
2953+763654795+762437802+760732023+761734002+764941633+767129251+768141681
2939+769205156+769614347+768817187+767918509+767569541+767325084+767601787
2926+768464139+768925395+768758876+767942280+766546214+764602479+762127197
2912+761323027+763707306+765996824+765639061+764617199+764389185+764553345
2899+764997139+766106689+766669270+765132559+764095403+765580432+767883587
2885+769853896+770211341+768390152+766727644+766809087+768080312+769774556
2872+771282272+772055980+771517360+769579871+768374858+769429029+770875057
2858+771203314+770889013+770264107+769079996+767040416+764777345+764114012
2845+765386511+766327312+766848216+769092296+771975111+772940383+772715108
2831+773401065+774450074+774202049+773491557+773922160+775269857+776826387
2818+777679564+776125455+773462880+773791711+777349203+780406057+781237119
2804+780834875+780079456+779815881+779831431+779245971+780012033+782973615
2791+784763322+784087944+782587684+781009997+780161664+780801610+782932893
2777+786107896+788426282+788666150+788233572+788396394+788808325+788497592
2764+787227770+785853243+785785374+787564503+789233766+788969618+787848725
2750+787418058+787822852+789245428+791383976+792202549+791505440+790980521
2737+790348541+789709615+790771369+793560251+795454407+794156289+791652649
2723+791320122+792661510+793510863+793799418+794706253+796291587+797011064
2710+796340785+795787189+795951158+796185227+796958044+798824351+800212132
2696+799430521+797787195+797667643+798832699+799768911+800557341+801358707
2683+801300843+800207098+799647448+800788797+801785486+801337231+800801734
2669+800588248+800739154+801675366+802928620+803787085+803354507+802215707
2656+802531856+803816973+804005350+803658293+803867190+804286131+804912694
2642+806398806+808880779+810699354+810076551+807535503+805010069+804507391
2629+805712786+806044612+805343743+805887206+807515493+808234779+808077119
2615+808314820+809772829+811300682+810782709+809326485+809027606+809599746
2602+810334135+811962422+814590712+816310065+816392272+814998883+812388692
2588+810991988+812205604+813622063+813511624+814185919+816588743+817778779
2575+816978178+816607861+817413560+817760426+816778585+815124489+814213449
2561+815207652+816935672+818150945+819320971+819544015+818236275+817492135
2548+818013740+818405215+819062431+821017637+822530132+821811228+820564984
2534+820101244+819307716+818963590+820321548+821318428+820528469+820066704
2521+821351566+822648473+822355138+821371003+820765979+820404010+820450531
2507+821482716+823262418+824228518+823727115+823585067+824606164+825689586
2494+826418367+827062901+827630580+827267401+825478458+823767008+824421675
2480+827416713+829909838+830177682+829177615+828410025+828549140+829202405
2467+829323231+828550479+828387083+829473691+830157481+829684053+829102545
2453+829670480+830997147+830556093+827475724+825206918+826475530+829273270
2440+830851148+830518940+829103883+828742615+830057175+830939538+830476307
2426+830650472+832051955+832308966+830304371+828089988+827681753+828468016
2413+829367585+830633393+831962036+832145697+831390979+831625176+833194069
2399+833930243+832776658+831462290+831580312+832340256+832835605+833528572
2386+834249132+834228803+833190054+830914302+827592918+823925369+820619598
2372+817515842+813539026+811013210+812833506+815293110+814348486+811282520
2359+810400539+813341154+815009972+814267680+815638000+818268457+818768331
2345+817113916+815385705+814275009+814571212+817822751+822795491+826084183
2332+826096610+823902300+821759546+821161150+822268469+824054544+825216795
2318+827110696+831163856+835815413+838403491+837306495+835273606+835879458
2305+837816757+839037000+839646038+840109461+841150185+842757124+844228642
2291+845391659+845659057+844679192+843949964+844494957+845175561+845658356
2278+846600240+846614897+845246871+844452642+844309639+844167910+844926070
2264+846768479+848256949+847967374+846696722+846233491+846224315+845750824
2251+845397904+846268286+848686405+850473881+850049651+849358087+849220436
2237+849271737+850143712+851095410+850791560+850040857+850638998+851692659
2224+851529454+851395946+851769259+851714071+852095222+853284430+853737975
2210+852536850+850629248+849624593+850093814+851616888+853065656+852822410
2197+851234462+850666082+852115551+854250785+855408067+855699490+856469566
2183+857607092+857216382+854946875+853005434+852666916+853261871+854080698
2170+854517929+854362817+854364411+854484217+854352239+854893663+855781825
2156+855819233+856248115+858056876+859418530+858840527+857493849+857083830
2143+857350973+857019976+856141117+856134426+857592371+859021320+858975309
2129+858099382+857660686+857962369+858595560+859015011+858981618+858934524
2116+859742517+861026743+860855954+859265840+858578226+858954279+858931274
2102+858520681+857912599+857059104+856753597+857515198+859154445+860924079
2089+861761578+861824540+861391579+860479137+860946447+862898084+863780702
2075+863795232+864077797+863977873+863468695+862909236+862694731+863263303
2062+863524074+862612205+861621888+861315171+861622398+862586650+863257695
2048+862449383+861069440+861007625+862532737+864166505+864653697+864447668
2035+864458310+864877634+865528286+865694995+865243044+865067221+865340610
2021+865731511+866507705+868123055+870145111+871481783+871734142+871513838
2008+871331196+870266510+868143766+866971446+867264908+867671486+868192709
1994+869017654+869191118+868863435+869175569+869859486+870015235+869966038
1981+870142179+870423916+871801692+874507092+875859186+873835537+870455779
1967+869252360+870384724+871074122+871141354+872034423+872608539+872188897
1954+872720762+874513018+875903157+875943624+875348478+875228735+875409146
1940+875499639+875338027+874840511+874260978+874128235+874972872+876369447
1927+877552092+877803813+877380985+877100969+876150354+875641304+877020800
1913+877867795+877217462+877020609+878215234+879019022+878318090+877782019
1900+878083001+878002832+877636657+878081790+878871048+878534251+877968802
1886+878896093+880351234+881284068+881620419+881650944+881967667+882502527
1873+882842893+881617105+877923301+875698148+877376142+880402343+882344293
1859+882565872+882833079+883839200+883782292+882163181+880540375+880013481
1846+879322235+877914826+879427894+883928991+887866168+889085838+888323345
1832+886584301+883264192+880558155+881070456+883374439+885529174+886668930
1819+887840359+889293142+888562321+885273884+883228696+884783633+886958888
1805+888060344+888225270+886092265+883719138+884394580+885903634+885488644
1792+884960093+887429256+890261664+891138546+891056402+890818637+890405049
1778+890404985+889849924+887038993+882351176+880437329+883297457+887114637
1765+888420401+887417977+887714944+889323794+889223552+889674675+890475021
1751+886401341+879633860+878637107+881762020+884288220+884940465+885017320
1738+886531790+886884391+882117680+879089504+882302106+887544857+891547992
1724+893263457+894182463+893481913+887651791+880439240+881513167+886438685
1711+889919259+890799328+889061303+886681740+884862144+879768515+873448651
1697+874757793+880661329+885438873+887158481+886766751+886917848+885876295
1684+880591866+880071791+884441101+888131017+888809327+886385537+881863665
1670+876060117+875737914+880457148+881798281+880474481+881957025+884036944
1657+883052045+875802405+863052303+863361697+867442005+866067097+865775674
1643+869261728+871285568+870268231+865209906+859006854+862254251+869453801
1630+872654613+872121665+871655120+871976941+873935334+876847782+877750155
1616+879046552+883740678+887385603+888924991+890651226+893574062+896789978
1603+899016087+900396922+902229135+904083908+905343534+906746100+908514650
1589+910902179+913783656+915072342+913841202+912645812+912287858+909893318
1576+908423967+912466931+914351272+912040789+911591641+913060356+913900277
1562+913376824+904330340+888657402+894624282+906725962+914050545+917633528
1549+919984733+920888190+917328467+909493432+901728305+904071927+914344708
1535+920308083+920719504+921671394+923632654+923266351+920669670+916583945
1522+912859871+913513454+917008749+922377615+928189193+930229793+926738704
1508+918630217+918971220+933402311+943498059+945727354+940407876+934478276
1495+937398818+942213388+939735557+933768804+935305898+939600328+940458412
1481+939277615+938138624+935495167+929412113+920818345+918310499+925148972
1468+930183655+927670265+925322246+928411281+927926829+918225551+913776264
1454+922177131+928834364+931333161+933076730+937071134+940803302+940106448
1441+937922781+937337831+934650530+932025363+934653653+938224273+941024307
1427+945076894+948317217+948761967+946201992+939659148+935527731+938157296
1414+940243015+939120592+937906467+936894292+933566471+930562639+930324746
1400+928819325+924768076+921152147+919789601+921011374+921583578+918984029
1387+915644164+914819984+916074640+918052341+919003274+917631552+914562846
1373+913197432+915218851+917618106+918609761+918605682+918964465+920755064
1360+921942679+921904252+921973396+921698796+919926550+916359244+913194119
1346+912509373+912622934+911969351+910812579+910317803+912014915+913749754
1333+913044615+912776452+915735230+919417308+920975687+920345491+919171641
1319+919840837+922634817+926155475+930781605+936794113+941337270+942148259
1306+941524245+942527243+945283751+948345830+951161732+954779637+959255180
1292+962069106+961999389+962811143+967819952+973783454+975729229+973871907
1279+972517519+973951566+975586927+974723554+973369803+973562258+973856740
1265+975500640+980376643+983280233+981205412+980577128+983431011+985560892
1252+987816762+991096086+991166632+988151137+986612387+988348181+991637893
1238+994362474+996103621+996161804+994422696+993473547+994137263+994468388
1225+994904471+995161546+992507383+989565875+990721244+994752228+998234777
1211+999778562+1001311067+1004486007+1006959886+1007195421+1007301271
1200+1007943384+1007609264+1006529347+1006308724+1008288784+1012494124
1188+1016149565+1016303147+1012943272+1009289870+1009694536+1012896751
1177+1013647390+1012985331+1013281980+1011114117+1006779412+1005649087
1165+1007245383+1008287892+1011258586+1017536199+1021986187+1021413345
1153+1019634536+1020534742+1022219364+1022931512+1025647936+1029457086
1142+1029393359+1027252835+1026166928+1024156025+1020872176+1017642559
1130+1017321694+1022579994+1027729322+1027262586+1025568660+1025587651
1119+1023279716+1016858336+1010791468+1009334479+1016134525+1033091242
1107+1048679423+1048240982+1038658235+1032057464+1029455366+1027331219
1096+1024082357+1022784622+1024927185+1028132904+1030765336+1032146490
1084+1033903442+1037195001+1039514470+1040118538+1041162576+1043004476
1072+1044398630+1044492372+1043216240+1043879128+1047222052+1047568599
1061+1045304062+1044537873+1043370014+1041492427+1041939663+1045473385
1049+1049601615+1050302739+1047479700+1044916475+1044270348+1045454330
1038+1047649596+1049648263+1052947789+1058234958+1062061824+1061961963
1026+1058826917+1056157778+1055625913+1054378905+1052441861+1051787003
1015+1049781644+1045852751+1044854724+1047650679+1049431656+1048223775
1003+1046037750+1046254677+1049765139+1052105701+1052182747+1053316832
991+1054086972+1051509090+1046976830+1044844017+1046753468+1049484931
980+1050834476+1050660247+1048179421+1046416543+1048698286+1052008199
968+1052528530+1049824978+1046382704+1045799348+1049890872+1056534150
957+1058547092+1055086401+1054393881+1058621015+1062042705+1060742485
945+1058857697+1060733244+1061282762+1055833344+1049442744+1048639275
934+1053405221+1058892237+1061329028+1060378604+1058294096+1058876752
922+1060959985+1058274659+1053828750+1055418992+1061299331+1066896212
910+1071077910+1072559688+1071371818+1070158075+1071173245+1073741823
899+1073307460+1068265895+1063919400+1061862422+1060135422+1061125229
887+1066061326+1070208037+1067832871+1059856107+1051664647+1046017358
876+1045553681+1051274638+1056218765+1054770570+1048850211+1040779578
864+1035961312+1036611518+1036665749+1036157463+1038999111+1044235935
853+1050222316+1053122401+1049647817+1043946997+1038728271+1030863476
841+1023173611+1020152699+1017494267+1014109219+1013966917+1014152745
829+1013172051+1014605716+1013939578+1008420253+1006145711+1005750540+999046594
816+993582265+998315838+1004474918+1002773728+998761608+997364968+995211635
802+988196638+980305524+978892251+982024685+978175387+960983837+945523747
789+947109528+957904551+965731111+970851697+971113806+964407885+956993575
775+953526192+953040020+952708066+950268982+946635782+944802613+944145078
762+941770549+939901502+941299989+940189548+934866373+933210748+933215081
748+926085248+914496123+906871196+906342900+909004264+910448189+912257842
735+914539521+913760523+910794736+908644016+909099472+912555065+915431953
721+913746504+908854697+905452443+908594818+918941141+925298476+918517803
708+908257257+903287640+901051015+900920566+905171089+908519684+904429180
694+897787878+896478226+900543048+903473977+900392525+894708529+892307362
681+892259121+887665620+879601869+876309034+878140037+876280039+866753882
667+864143563+873307177+879316308+880129273+876665013+870167925+866828060
654+872502115+879354353+871860767+859917193+857495633+858776099+860139727
640+865364762+873448778+887799000+921266919+947162421+911084693+852571326
627+825421741+824217366+823565057+821876867+845666449+897639968+922653553
613+887263630+847345654+839683892+858350211+875050045+879615506+878910176
600+859513419
##END=
