##TITLE=Sample description
##JCAMP-DX=4.24
##DATA TYPE=INFRARED SPECTRUM
##DATE=25/8/2023
##SAMPLING PROCEDURE=Instrument type and / or accessory
##ORIGIN=Default
##XUNITS=1/CM
##YUNITS=ABSORBANCE
##RESOLUTION=4
##FIRSTX=4397.6552
##LASTX=599.8556
##DELTAX=-1.9287962
##MAXY=2.081398
##MINY=1.2918831
##XFACTOR=1
##YFACTOR=1.938453e-009
##NPOINTS=1970
##FIRSTY=1.3725623
##XYDATA=(X++(Y..Y))
4398+708070983+710979120+712698580+711364338+708841788+708388492+706908933
4384+702739612+701314908+704978354+709979300+713075865+713897036+711387461
4371+706691110+705864896+709557983+711732952+710710747+708767007+707738652
4357+708543588+707914042+703896127+702016345+705088311+709177255+711059251
4344+710758961+710913257+712094186+711305240+709124613+708593954+708812146
4330+708191025+709004940+711494712+711683201+710340473+710788725+712111037
4317+714443192+717717730+719212602+719764662+719117527+715128332+711052179
4303+709678764+709582398+709473609+709278479+708552690+706782495+705514486
4290+707094408+711312681+715534643+718080440+718479064+717238483+715427146
4276+712523621+710311016+711427373+713662978+713501794+711111155+710894193
4263+715205511+718928670+717018261+712774468+711790637+714208458+716057553
4249+715077781+713522273+713213496+713754486+714661015+713780930+711063802
4236+709749608+710769415+712874585+715309318+716928353+716258218+715516994
4222+716324697+715975885+714958600+715414785+715666616+714265711+714020215
4209+717631818+722302833+724681050+724151744+721756800+719878001+717026810
4195+712619003+711091476+711752016+711381373+713236987+718478449+720699418
4182+717911569+716065117+718115186+721714920+723276701+721013976+716808372
4168+713698831+712176962+710682581+709956608+712098553+715973179+718333808
4155+717365966+716097342+718533735+721658527+720341074+715980928+713586476
4141+715734017+720127864+722084518+720623285+718832058+718254969+718468671
4128+719948907+722626492+723795552+721460875+719104736+719940359+721328226
4114+721160892+719670510+717199186+715695950+715561517+715333548+716081599
4101+718846264+721282534+722381057+723136611+722480190+720586571+718737537
4087+716961377+716600081+718403607+720795169+721131804+718691967+717215667
4074+718656237+720685889+721828997+720518186+716730393+714837143+715735124
4060+716878786+719583737+724316064+726645637+725221486+724179540+724473620
4047+723999477+723405415+723356463+723010911+722343236+721923949+721496851
4033+720388427+719679980+720450908+722200686+724183845+725787260+728081226
4020+732261739+734873830+731495300+725021498+721667813+722521024+724154757
4006+724533026+725519071+728052138+730436627+731650704+730302810+726202488
3993+721794497+717889430+716040642+718617740+723358923+727052563+729071514
3979+728107485+724288759+721614557+722791058+724734921+722869529+720069380
3966+722603800+727935908+729442588+728462139+728318543+727861435+726676385
3952+726113441+726177213+726352910+727333851+728485446+728244808+728041068
3939+729630277+731522421+731028783+727490915+724497112+725242703+727266881
3925+727863403+727587465+726342025+723852868+723301546+725586718+726937379
3912+726628356+726672819+726974277+725258877+720989315+717832422+719143172
3898+724547232+729965436+731384052+727581316+723807114+724903977+726500627
3885+726297748+726660458+725953610+726931291+730036588+728355564+723389979
3871+720931570+721273002+724289559+725663835+724201003+725171920+727875764
3858+730391919+732431840+729746629+726019658+728359500+732666021+736199093
3844+736425956+732983039+729505622+727510163+727380097+728279370+727754860
3831+727686107+730407416+733790373+735817564+734236781+728224022+725442630
3817+724891862+724529336+727830625+732225394+735714495+736513958+733897440
3804+730723573+727503091+728623938+731340205+730989671+732193723+735685838
3790+738886394+741153670+740803629+738398414+736857358+737205247+739037308
3777+739930615+738842424+736830422+735132302+735706193+736482348+734619108
3763+734817129+737535610+736176892+733607296+735944310+737645444+730500830
3750+721868601+722385731+725348662+727109264+730397331+734185492+735086364
3736+730337678+725495763+728377334+734274786+738059811+738443369+735184821
3723+732019256+733868720+739379663+744480665+746984397+743241621+734752557
3709+733863370+739406721+743231351+742265231+739545705+740249232+742486559
3696+743197035+742919130+740720300+735903599+735325280+738346634+739560034
3682+739889658+740257842+738015841+729500210+723487329+728382008+734771806
3669+736926296+738247439+738497486+736071240+733456075+732165865+729545657
3655+727742561+730528442+731626781+723218894+716445170+718142121+721324659
3642+722826419+722112499+720366288+718912434+718244760+717544738+713039397
3628+707696465+709064838+711688551+712595019+710870271+707361798+706648739
3615+705988506+703156501+701250951+699238888+696877706+697432902+699487706
3601+699730312+697629939+694322869+690808554+689288653+690027971+689482922
3588+686259427+684804344+685462917+685499323+685477676+685722250+684530928
3574+682736134+683234999+684995354+683204435+678045994+676930990+678559064
3561+678382629+677141494+676731862+676214179+674466800+673246082+673394966
3547+672500675+671219997+672216497+673557934+673288945+672301670+671976904
3534+672967992+674314963+674748825+674283108+672794939+671299575+672029115
3520+673380822+672680308+671308123+671007033+671085995+670848001+670963616
3507+671089623+669600593+667805984+668446292+669892643+668829050+666450587
3493+666652298+668955796+670203019+669681585+668700460+668468923+669561973
3480+672195403+675037308+676115169+675615504+674344113+672837618+672363967
3466+673042219+673621153+674301065+675575162+675221062+673068109+672470049
3453+673387832+673715243+673199344+672421221+672323317+672756749+674625585
3439+678750567+680809490+678948895+678063398+679990164+681630969+681381844
3426+680624138+680299864+680264626+681217216+683104563+684385179+684558786
3412+684681350+685549874+685845552+684860183+684346621+684739956+685768004
3399+687096465+687131272+687393803+691446710+696815963+697099957+693700026
3385+692288237+692443025+693307490+695622919+696945291+698132001+702972932
3372+708921980+711354437+711541327+712500129+713868932+714799138+717535944
3358+722203330+723751643+722090176+723448094+729169971+735620220+740623442
3345+743604392+744377165+743741039+743181292+745148155+751102737+758632630
3331+764613472+768259083+769198821+767794165+766530460+767327586+769576290
3318+771336153+772372872+774383459+776027708+775386662+773376935+770377843
3304+768655001+770496963+773473670+774668252+774104200+773243364+772198527
3291+769606731+766374011+765770848+767214739+767138667+765853069+763357946
3277+759856361+758410072+757788459+756933710+758291444+761294041+763402470
3264+762554179+758138685+753236626+752397190+754763846+754956024+752393869
3250+750207769+748252468+746438118+747730173+751294670+752834988+752131338
3237+750534565+748729932+748533326+751303771+755702046+758020549+756338111
3223+752835111+751247686+752037370+752365458+752274688+753971517+755291798
3210+752372714+748610136+748411623+749120131+749667025+752092103+753442826
3196+750655100+748024252+749395208+751738310+752726323+752773737+750767024
3183+747407436+745854511+747748868+750305550+749755889+748004327+747882194
3169+748824699+750271849+752745633+756095750+757823574+756508396+754504020
3156+753580825+753837268+754340376+754592699+756905914+761177627+763232615
3142+762256410+760706067+759588418+758500350+757409452+757466767+758743140
3129+759192746+758790247+759514991+760249328+759358973+758549178+760130516
3115+763997824+765245047+761421463+758644991+760358485+762400252+761313597
3102+759522739+760677471+764043516+767544302+769418734+767812675+766053119
3088+768404647+770734957+768136765+763839592+762795986+765634324+768443267
3075+767463372+764122971+762724956+764756083+767260308+768012479+767792996
3061+766576521+764654490+764753193+767389452+768977431+768535574+768391363
3047+768443636+767570930+766642754+766970534+768908308+770904013+770469966
3034+768623330+767554879+766197269+765099360+766273464+768730704+771471139
3020+773510938+772173498+768330789+767075386+770243964+773860733+775249400
3007+776134467+776256661+774704535+773470350+772626363+771789326+772543280
2993+774112872+775040248+776280645+778458136+780541105+781887830+783233818
2980+784985318+786109854+785664062+785054072+786018654+787134396+786362300
2966+784086291+782517991+783184559+784711779+785708032+786692109+787881218
2953+787960241+786487447+786575019+788694948+789479774+789861794+791699390
2939+792993597+793139345+794196665+796936731+799751024+800245461+797365428
2926+793681688+793215417+795428022+795940293+792776204+788055254+785994178
2912+788437213+792109883+793509496+792756279+792457526+794020783+795264440
2899+795035916+793850682+791506781+789471841+788957971+789503635+790358937
2885+790483161+790974892+792941386+794651375+795383929+795374028+794342659
2872+792840715+792117078+793414053+795411418+795855919+795945090+797448449
2858+799343852+799719907+798196069+795390755+791976619+789442876+789564394
2845+791706093+793659488+795351089+796675122+796937838+797605758+798278045
2831+796917175+795528262+796533679+797758825+797642226+798117168+799309598
2818+800582281+802405302+803166821+802095356+801165335+800928387+800964055
2804+801317049+801594278+802352107+803754979+804467177+804541220+804427881
2791+804419886+805241734+805832291+805583842+805974411+806667114+806893731
2777+807893613+809175767+809395803+808619156+806188913+803091979+802569807
2764+805027970+807451387+808245622+808306505+807931311+807917843+809631214
2750+812042763+813158259+812252837+810265065+809391744+810359094+811335361
2737+811226942+811104378+811203388+810376682+809611597+811773590+815810999
2723+817239208+815890945+815135884+815924646+817025137+817688814+818062040
2710+817954297+817759228+818444306+818888192+818150596+817861621+818400951
2696+817965428+816493371+816234714+818173411+820541358+820930820+818962665
2683+817261286+818273406+820501693+821151410+820744237+821217027+822209099
2669+822417697+822421571+823743883+825913071+827112019+827039268+825984715
2656+824420597+823605637+823453370+823552442+824568313+826016079+826577670
2642+826361938+826687074+827221176+826409045+825469738+826394470+828158639
2629+828726257+828027219+827541638+827879073+828274745+827798819+826474601
2615+825449444+825370113+826303701+828318962+829853315+828892484+826922608
2602+826738239+827824463+829224384+831000113+831511585+830853381+831113022
2588+831807694+831714033+831344620+832098760+833636126+833636249+832617242
2575+832920177+834184804+834781264+833640370+831583598+831000175+831700935
2561+831885672+832037508+832720311+833262470+833763856+834373354+834629981
2548+834195135+833176128+832387673+832264863+833084497+835520706+838001315
2534+838490341+838181256+837605458+835880402+834543455+835310201+836694563
2521+836939321+838020256+840674288+841354200+839248969+836976035+836307684
2507+837688418+840047817+841544226+841236679+840063191+839150697+838584308
2494+838453750+839077515+840985402+843404084+843580642+840901212+839431493
2480+841475965+843222360+842300272+841478855+842468774+843714522+843967152
2467+844059828+844423583+844540797+844548300+845040646+845448741+844539321
2453+843591097+844368052+845384722+845165546+845058664+845749031+845758686
2440+845043782+845531762+847283384+847940666+846240393+843758307+843251202
2426+844954980+846141444+845978907+846071829+846781937+846850383+845782731
2413+844835553+845154477+846598798+847701011+847790797+847642220+847395125
2399+847978240+849996269+851631293+851496676+850104996+848896639+848687487
2386+848851438+848371207+847054062+844736850+841196891+838315750+837687680
2372+837652811+835839322+831367682+825865472+822331663+820882114+819838016
2359+821433374+827108268+831638023+832753089+834134253+835842397+834962804
2345+831173904+827745685+827289684+828852572+830602473+833783227+838860061
2332+841167741+838988898+836581408+835967359+836103329+837219502+840491396
2318+844546270+845878605+844492645+844553035+847204238+850183035+852967564
2305+854831911+854831972+854696125+855578486+856599277+856806092+856199976
2291+855813282+856141800+856401195+855612555+854525532+855017448+856642632
2278+857370635+856861255+855979017+855488577+855831055+856030059+855537836
2264+856746993+859999883+861535405+860267765+858934138+859249680+860531588
2251+861631648+862227371+862211505+861756733+861213960+860574328+859921659
2237+860114945+861966070+864526626+865980664+865656574+864605096+863503498
2224+861995957+862166243+864860063+865695870+862985385+860320345+859737967
2210+860551451+861997618+863789951+865090554+865463596+866498715+868338587
2197+868642874+867710947+867303405+866812597+865497788+864253455+864884846
2183+867748399+869658684+868308760+866509600+866901768+868079930+868582546
2170+869002264+869270145+868374378+866734004+865671764+865787378+867032818
2156+868519757+868897226+868379605+868440118+868914138+869291054+870009341
2143+869781801+868124392+867728289+869651243+871181291+870547748+869906087
2129+870797918+871663859+871195989+869720981+868317678+868040387+868708000
2116+869505556+870283556+870694911+871194267+872757401+873825606+873659810
2102+873876772+874364813+874296182+873272194+871433122+870596085+871211978
2089+871630220+871698175+872007997+872304905+872925411+873833355+874150004
2075+874134260+874152648+874197602+874774261+875305227+875423240+876289120
2062+877648821+878283226+878141536+877558420+876761418+876135377+875743333
2048+875478649+875847078+876699552+877242510+877510637+877077882+875940739
2035+875633130+876713142+878933127+881448852+882284967+881417181+880355125
2021+880057110+881152497+881806335+879956255+877641995+877307820+878638556
2008+879588502+879119402+878223942+877383830+876599250+877007345+879169707
1994+880953246+880364411+879369203+879397185+879017501+878843956+879878338
1981+881123102+881659233+881213871+880998078+881982216+882641958+882294683
1967+882214737+882619573+882491966+882259199+882785369+882780326+881984553
1954+882202561+882940034+882572220+881490916+880878712+880658491+880437470
1940+881241606+882650137+883197338+884099009+886401646+887744190+886574822
1927+884422361+882195980+881200588+883543751+886820072+887719222+886949216
1913+886158240+886094898+886299069+886320039+887016740+888587746+889948001
1900+889787801+888532829+887884957+888770515+889823777+889008571+888038638
1886+888946828+890089506+890305668+889986006+889502331+888851569+888364142
1873+887949590+886102893+883566136+883976015+886385042+888711109+891262563
1859+893085769+893318966+892834922+892713465+893137426+892486418+890162933
1846+887828502+887900270+891248911+894021386+893346148+891195532+891049291
1832+891877043+890671515+888409589+887902852+890036126+893153969+893853376
1819+893144130+894061421+895557769+895091621+893332557+892653075+893433289
1805+894753940+895537536+894942613+894180541+894559548+894998637+893794216
1792+891781169+892997520+895896987+896606295+895590854+895447935+897346044
1778+900500785+901365681+897151036+890766651+890476384+894995931+898441000
1765+899532144+898553110+897679297+897485827+896410304+897126561+898799037
1751+896005529+890820584+890624100+893465022+895520809+896431582+897167702
1738+898526112+897931005+892381012+889693649+893390918+897912125+900741239
1724+901631533+901383453+899951124+895175380+890237529+892264106+895573205
1711+897174405+898623831+898455760+896678616+896391485+893425479+885873693
1697+883120159+886090286+890864616+893874039+894086881+893192097+889942036
1684+884312650+886113532+891349397+893654187+892484081+891433526+891381560
1670+887877024+884966549+887658340+890379895+890467160+889744138+889027081
1657+887271277+881451312+873233204+874705384+875541807+872545421+875890803
1643+882200962+884382941+883479425+878824769+871231165+872191505+878626810
1630+882741152+883135165+881998021+881492392+883298993+885980883+884987028
1616+881992794+885788704+892853002+897087756+898210817+898664296+899906846
1603+902335736+905329478+907624182+909126987+910728557+912562032+914165877
1589+915829559+917440476+918402476+919338524+920003984+919047888+916319445
1576+914351414+916549814+918662117+917507816+916929374+918503147+920068433
1562+921394311+917408436+905409547+907107483+915901511+922141809+925152954
1549+926528153+925730412+921567979+916545693+913477417+917762168+926873152
1535+930663650+928146942+927188017+929456031+930434574+929477063+927910362
1522+926210643+926280012+928129477+930316192+931955213+932843847+933194319
1508+930164478+925154000+929801768+935787899+937498318+936806906+937876710
1495+940434991+940715417+937386393+934265537+936338790+940209173+942107712
1481+941552947+939914479+937014090+932077469+927362608+926642415+928429706
1468+928087905+925187700+925027131+928735346+930055259+925236713+921511402
1454+925715714+930040008+930635915+928721817+930580691+936957635+940780727
1441+940503560+939070308+937505698+939538424+943974888+944916163+943671031
1427+943713464+942419564+940230574+939600044+937921541+937912255+941602083
1414+942436292+939568742+937568978+937986482+936773144+933207172+931550378
1400+929350933+924495550+920427269+917523006+917451976+920803939+922116411
1387+918117990+915547779+918111410+921284293+921649463+919828410+918049052
1373+917811181+917925320+917032074+915938717+915794444+916795987+919037372
1360+921792505+923403914+922721235+920014992+917680192+917984480+919508010
1346+919438887+917539610+914457620+912184440+914072279+918919605+922137996
1333+921903754+920526771+921589196+925390272+928866520+928984656+926273985
1319+924473042+925596718+928136918+930914251+933546021+935386691+937566211
1306+941138272+944108153+945108834+946838379+951082173+955381437+958870661
1292+962670384+964508718+963277853+963064027+965374413+967355235+969254205
1279+972045437+972924108+971715505+971785550+973362213+974551937+976473476
1265+980674468+984606533+984099612+979402830+976391562+978274727+980893767
1252+980611003+980522754+983852024+988529496+991768734+993333836+993254997
1238+991535230+989916933+990657420+992808528+993568263+993151251+993331561
1225+993718993+993214716+991753667+989801072+988637669+988973936+989969205
1211+991260768+993146639+995417174+997693183+999610479+1000930945+1001374094
1198+1000393583+999398498+1000281105+1002050132+1003749728+1005016815
1186+1005300255+1004746043+1003134387+1002204981+1004614316+1009616185
1175+1013755372+1014366038+1012552427+1010584027+1008845564+1008257713
1163+1011283556+1017152289+1020416802+1019015406+1016625935+1015479136
1151+1015994175+1019701099+1025134493+1027464988+1026155960+1024126740
1140+1022588819+1021859156+1022899318+1026266163+1028902238+1026930394
1128+1023299665+1022790776+1024081109+1024414239+1024764096+1028274967
1117+1034059202+1035099734+1028785885+1022264914+1024585385+1034084416
1105+1036969615+1029804277+1023827126+1024466388+1028072149+1029011210
1094+1026568545+1026915019+1033829695+1040419604+1039394693+1035182386
1082+1034128571+1036389820+1039871296+1041112923+1040183701+1043889026
1070+1051127115+1052791473+1049975643+1050005531+1055686389+1063200354
1059+1064534350+1058760139+1053526118+1051968027+1051133880+1051366585
1047+1053594134+1056752503+1060426219+1061826877+1061293451+1061378194
1036+1059778900+1057543233+1057990687+1057435122+1053019751+1049201517
1024+1049266212+1051882915+1055155423+1058558797+1060583897+1059021870
1013+1056777225+1057441763+1057609158+1054975974+1054018956+1054776232
1001+1051882177+1047006808+1045928517+1049211480+1052849281+1052256325
989+1048154221+1045912036+1047312940+1048922935+1047959890+1046374986
978+1046784311+1047485501+1046040196+1044391335+1047237422+1055373492
966+1061688878+1059408195+1052096187+1048204157+1049678858+1053190467
955+1058293129+1061845696+1058529155+1053341381+1053365365+1056455841
943+1058215397+1059779392+1061360975+1060240990+1057776554+1055435358
932+1053368193+1054375393+1059343131+1064886852+1067849906+1068488861
920+1069211945+1069951509+1068254065+1066561787+1067976344+1068886748
908+1069725692+1073741823+1072261095+1059724537+1049980071+1052715094
897+1059847531+1061610039+1060711812+1063308343+1067953098+1070819725
885+1069629633+1062739249+1055994121+1055488860+1056781161+1055450609
874+1054350057+1053679000+1050873747+1046146586+1040346915+1037343518
862+1040637796+1045164354+1045665678+1044391458+1043347851+1042136235
851+1041242436+1039401950+1035961308+1034553639+1036111607+1036565948
839+1033577188+1030403136+1029514995+1026757279+1020212078+1013929839
827+1010956638+1012853394+1017384256+1019849737+1021387043+1022390799
816+1017712036+1007073586+996722697+992101372+993470175+995699692+993109310
802+986488591+984567298+990988951+994913390+989296119+983800121+983120332
789+980586650+975702917+973352804+973090519+973790725+974713182+972817718
775+969099909+967185380+965370231+960804438+955865296+953174121+951042815
762+947518291+943317607+939635405+937208113+935625792+933934990+932434522
748+928678646+921854187+919570306+924892944+931326774+933480219+929697531
735+924001605+922279931+921231036+915892778+910906653+912007882+917167860
721+919598411+917542439+916265082+918262201+919172420+915492309+912783668
708+915079663+917724532+920426654+924295807+924046867+919209318+914906672
694+914665480+917220378+915514509+907466503+900822969+900100685+902276084
681+904798881+908450457+911539704+909483302+903772494+899593518+898841408
667+901597156+903374115+902523795+901125227+895906335+886595915+882116834
654+884670932+891901826+900663199+899138316+887788099+885853768+901150810
640+910742763+893142777+866963019+855289265+874497647+911469597+909073854
627+880974094+879085025+893336370+903480321+919946546+931429290+920465274
613+913326565+933829092+954450309+935419039+897125638+876349756+887303378
600+927080951
##END=
