##TITLE=Sample description
##JCAMP-DX=4.24
##DATA TYPE=INFRARED SPECTRUM
##DATE=25/8/2023
##SAMPLING PROCEDURE=Instrument type and / or accessory
##ORIGIN=Default
##XUNITS=1/CM
##YUNITS=ABSORBANCE
##RESOLUTION=4
##FIRSTX=4397.6552
##LASTX=599.8556
##DELTAX=-1.9287962
##MAXY=1.875293
##MINY=0.95961475
##XFACTOR=1
##YFACTOR=1.7465027e-009
##NPOINTS=1970
##FIRSTY=1.0182071
##XYDATA=(X++(Y..Y))
4398+582997702+584751949+584919996+583591802+583421640+585057327+584989139
4384+582806585+582189551+583285060+584093415+584925524+585408777+584370057
4371+582759557+581931475+582744882+584923613+586870684+587003783+584283781
4357+581095544+581031656+583220763+584500494+584658507+585397992+585989226
4344+585285165+584651613+585431984+587436526+589529733+590438630+589578331
4330+587809545+587052108+588055062+588663496+586691102+585112273+587482258
4317+590591523+589876542+586424494+583957927+584125496+586003150+588811611
4303+591638707+591777403+588999384+586345522+585278749+585278340+585950456
4290+587563755+589878180+591491820+591268623+590226354+590675273+592111516
4276+591638843+589124292+587376802+587726546+588742673+589543930+590176595
4263+589263261+587477548+588372111+591529702+593088191+592988401+593090717
4249+592250622+589809309+588245701+588966211+590264167+590584152+590341365
4236+590477194+591576321+592784725+592860762+593106415+594366967+594826603
4222+594181174+594243833+595415448+595628475+593298078+590437401+590249288
4209+592432865+593568099+592613948+591913710+592256970+592603505+593130783
4195+594580813+596280866+597040691+596538532+594541634+592028790+591318723
4182+591930433+591928863+592142709+593464077+595180306+596495735+596278272
4168+594593168+593362922+593990535+595802050+596706169+596436557+596632179
4155+597685847+597988562+595520562+592735649+594086640+597367092+598313597
4141+597772600+597517391+597426816+596295814+594035311+593618609+596834422
4128+600285513+600125931+598375847+598270323+598720267+597872800+595882387
4114+594533990+595274499+596934621+598105144+599000389+599702402+599949284
4101+600255754+600975786+600984933+599566846+598146507+598318444+599595104
4087+600288107+599854340+599574832+600306809+600737778+600298550+600243331
4074+600745217+601231746+601386551+600880228+600158762+600063818+600776001
4060+601943110+602799587+602818425+602707373+603462898+604955111+605393110
4047+603385223+600984250+600615804+601637460+602661846+603010020+602884292
4033+603024558+602984560+602509362+603325977+606176347+608628785+608382040
4020+606476947+605311134+605641016+606450190+606435038+605719919+605407034
4006+605624020+605873359+606030621+605896020+605046165+603845541+603637429
3993+604636970+605486894+605938543+606832561+607513619+606930713+606371969
3979+607382704+608558209+607972094+606649634+606293816+606072735+604915045
3966+603532519+602816992+604111194+607098076+608571314+608744138+609693989
3952+609920257+608615749+607975917+608904744+609434274+608171880+606970165
3939+607263051+607980422+608102190+607543379+607610269+609020507+609673170
3925+608472138+607388642+607771831+608608650+609042417+609598294+610226522
3912+610541319+610692779+610087143+608280543+606311221+605718145+606861023
3898+609995680+614174449+615339238+610344537+605401983+606305010+608515207
3885+609221179+609726547+609290050+609098114+610188503+610468626+610049056
3871+609358920+608582303+609782039+611744058+612403957+611829446+611631435
3858+612548113+611505366+604865900+603399966+609460144+614685755+616663199
3844+615543050+612802913+610889083+611688156+614006130+614625894+614097797
3831+614726162+615296236+615069217+616471673+616956905+612388735+609303837
3817+610125435+612020972+614260725+615761606+615850680+613938624+612207721
3804+611858591+611378342+613433735+617216482+619686053+621157720+621769908
3790+621600906+621778031+622113304+621933996+621402759+619836079+618404137
3777+619865634+622941386+624451960+622232957+619139186+619494799+621762195
3763+623483134+623025955+620171285+618000402+617622537+616737393+612756021
3750+610014928+612477878+614460510+614413277+616233118+618363251+617442546
3736+613375990+611491101+614295126+618299432+620956160+621499342+620883126
3723+620202409+620706412+624000173+627684837+627456589+621864511+616172439
3709+617708472+622182857+624867707+625562621+626818873+629937763+632510263
3696+634021997+634568523+632282083+628087069+628002773+631500279+633892174
3682+633615737+631247186+627863941+622765286+618784596+618551774+617564178
3669+617675026+621955087+626232759+627554946+625714764+621609165+616792135
3655+614678997+614723978+611764603+605333318+605062546+610298327+614221819
3642+614660090+612945227+611196235+609132173+606319821+603941919+600776206
3628+597364430+597997436+598819784+596488227+591823407+588394909+587807702
3615+587590512+587365335+587164594+584856586+582217809+582166753+581719335
3601+578987389+576648665+575994022+575528448+574547950+573670588+571501617
3588+567303497+566689740+569887840+571726077+571189892+570019335+568853216
3574+567596213+566663017+565414547+561616612+556758765+556600240+559205742
3561+560165899+559700530+559511973+558931148+557870996+557773049+557924406
3547+556967969+555999485+556145655+556246674+555337709+554266601+553904640
3534+553960269+553880648+553301257+552487065+551738331+551899995+553957709
3520+555528621+554218515+552080328+551224602+550967141+550905062+551454011
3507+551952143+551172967+549574240+549449332+551292756+553427053+554240801
3493+553353916+552161552+551664683+551053519+550867726+551801536+551828838
3480+551036045+551319922+551696217+551351661+550848068+550863903+552353625
3466+553870956+552904758+550719951+550186428+551212180+551937946+552185340
3453+553007381+554400042+555637216+556313087+556602936+556626211+555998700
3439+555382519+555776731+556323291+555825944+554712927+554174319+554852613
3426+556437108+558162040+559564700+560151361+560298248+561894483+564418897
3412+565139031+564766558+565433249+566262355+567135963+569829004+572323829
3399+571909003+571353467+572903800+574857696+576279742+577815365+579703121
3385+581389591+582864057+584988115+587714533+590401771+592777422+594611665
3372+596215203+598055590+600686313+604771298+609010951+612776157+617487322
3358+621841441+623961950+625034252+626594993+629256841+633141153+637986647
3345+643059364+647403927+651161010+654948536+658396897+661810106+665575926
3331+667998946+668771195+669676201+671792137+675139479+677421277+677025188
3318+676277170+677416909+680169469+682216671+681511996+680209876+681818192
3304+684638530+684192204+681479097+680704118+681702430+682299329+681785634
3291+680093841+679023860+679247603+677069827+671344855+667313315+667853902
3277+669189263+668265554+665861987+663176592+662239300+663530567+664111767
3264+662294451+659114882+656524840+655924119+656310311+655608844+653928245
3250+653242750+653931931+654943007+655845556+655882005+654822262+653280905
3237+651444204+650953717+652390642+652376172+649779304+647601869+646823751
3223+646626150+647268029+648384015+648946922+649095788+649744971+651023133
3210+651723986+650886826+648894228+647297038+646975689+647028997+647163393
3196+647772305+648891976+650242489+650666086+650763692+651952916+652473027
3183+651550615+651052415+650843005+650524932+650790790+651068182+651189678
3169+651668835+652391120+653193333+654077657+655311453+655977153+655597104
3156+656217346+657760546+658421537+658889364+659810615+660492629+660652689
3142+660296120+659645163+659816007+661553327+663257748+663653087+663455895
3129+663052843+663452824+665356893+667093189+667418907+666534241+664959029
3115+664070950+665288091+667319799+667937721+668023450+668550318+668473462
3102+667608112+666777642+666945483+668593524+670351253+670250575+668841498
3088+668270127+669290896+671108485+672442480+672838979+673199849+674090658
3075+674309418+673223192+672421525+672375316+672466574+672985525+673630544
3061+674032913+674322046+674691106+675572018+676446923+676830727+677568437
3047+678728858+679299341+678752201+676959253+675345203+675904834+677215349
3034+677323740+677555264+678867144+680456690+681761267+682499524+682463553
3020+682351272+683260032+684603379+685209219+684848622+684746102+687303313
3007+691171790+692053043+690011847+688303468+687888335+688451311+690427731
2993+692398555+692580184+692438621+693440756+695008050+696211403+696851440
2980+697099960+697243844+697679658+697966811+698185640+698992289+699740989
2966+699771090+699668365+700147522+701023997+701919448+702244142+701944498
2953+702035893+702403383+702926360+703582710+703690623+704389155+705913789
2939+705793727+704013474+703614381+705985594+709295464+711144110+711415632
2926+711226836+710868697+710395956+710033107+709598316+708111564+705153690
2912+703095772+704136608+706023203+706030166+705817343+706539355+706691839
2899+706975238+708177021+708771053+708782520+709057183+708797878+707805709
2885+707402452+708129038+709108375+709855914+710874567+711864347+712114983
2872+712752972+714484081+715998818+717073235+718088885+717968754+716535583
2858+715579862+716173963+717121083+717049687+716818026+717818318+719366774
2845+719699249+718757179+718266692+718649267+718579577+718077486+718854239
2831+721507282+724027566+724366457+723460973+722360140+720506034+719423904
2818+721310773+724622417+726055930+725024582+723698709+723787169+725155770
2804+726713303+727676327+728117056+728274523+728754294+729890688+730666077
2791+730582941+730303432+730609015+731658997+732162385+731478528+731200726
2777+732368381+733837114+734308353+734146109+734476126+735450003+736009361
2764+735673610+735448092+735789167+736560255+738165090+739686039+739949029
2750+740159053+741192585+741591746+740052164+737595972+736652742+738206317
2737+740670905+741816581+741591814+741881493+742648417+742145029+741204052
2723+741984355+744303967+746270422+746541603+745798363+745967365+747535206
2710+749120520+749603635+749098678+748388883+748600409+750259917+751990616
2696+752362202+752230195+752404384+752434963+752313535+752105013+752004950
2683+752483766+752977461+753076979+753574497+754518136+755221173+755833429
2669+756410192+756460974+756347328+757338337+759747023+761814088+761951760
2656+760793388+759809887+759945239+761049279+761966776+762203761+762344164
2642+763012595+764120868+764759607+765073790+765717512+765837369+765524143
2629+765974496+766636374+766437340+765960845+766074286+766244858+766514674
2615+767995897+770205753+771682267+771965666+771231914+770056819+769335626
2602+769578549+770635084+771538861+771631621+771700423+772485163+773516101
2588+773700051+773216935+773393991+773926661+774072319+774291012+774697886
2575+775487403+777089371+778739528+779466796+779455738+779203805+778971598
2561+778909076+778715912+778236345+778207541+778697005+778732020+778862252
2548+780330848+782080250+782608756+782736872+783355750+783577718+782957339
2534+782414090+782425489+782018751+780886452+780903653+782744790+784665514
2521+785710036+786050019+785757678+785517144+785919855+786188169+786220044
2507+787131808+788461913+788850289+788811725+789466436+790219232+790216501
2494+789779254+789445755+789671136+790386459+790771901+790567679+790632590
2480+791620323+792942578+794064775+794739758+794224357+793247819+793537975
2467+794644473+795249358+795456992+795181716+794205792+793845536+794606523
2453+795358772+795893831+796585401+797351165+797626646+796926066+795901885
2440+795088205+794860025+795940177+797480578+798329819+798849862+799579791
2426+800685265+801491983+801589930+802103011+803012932+803179203+802835602
2413+802311328+801294177+800390468+800610047+801656412+802384976+802487565
2399+802749395+803710440+805088596+806163014+806204514+805724811+805452810
2386+805028190+804541252+803801561+801982061+799564638+797068585+793332388
2372+787928083+783394109+782190074+782916591+782189801+779653612+777225200
2359+776161158+778317706+782998293+787329000+791801201+795513850+794532465
2345+789084749+785594342+786226256+787276033+787861123+788864623+789966684
2332+790967454+792983600+796063310+797388023+796179414+796211289+799259261
2318+802855465+805328994+806756841+807655159+808610128+810107733+812545701
2305+814943193+815888743+815636537+815439755+816346468+817766944+817788717
2291+816688158+816695529+818086314+819589379+820446811+820667960+821402873
2278+822847647+823162376+822242558+821858754+822265560+823229267+824596980
2264+824914302+824160620+823995986+824200686+824206966+824901948+826175400
2251+826816802+826888676+827099655+826855298+825830025+825897667+827981727
2237+829680414+829156345+827616421+826699265+826753460+827512740+829123172
2224+831171603+831914979+831323336+831298286+832188686+833179968+833570187
2210+833204335+833239623+834280800+835093934+834451236+833047960+832425670
2197+832898343+833973102+834817019+834571503+833778709+834026820+835263823
2183+835790896+835777040+836558708+837939117+838989782+839248882+839246424
2170+839214617+838937020+839248267+840391077+841434916+841428842+840223987
2156+839245196+839561562+840598439+841138003+840893510+840996167+841341815
2143+841117390+841086879+841350347+840933303+840088362+840380634+842257265
2129+843449424+842725296+842005673+842299856+843014702+843927353+844459408
2116+844247883+844169866+844374566+843955884+843304175+843404307+843964689
2102+844620287+845142924+845084019+845237458+846227511+847058460+847125010
2089+846997371+847535228+848657357+849207773+848912020+848635242+848737012
2075+848836529+849219581+850819297+852735926+853088809+852292535+851579737
2062+851045293+850742509+850884414+851666559+852791554+853457870+853732805
2048+853379512+851877129+850742100+851098737+851846072+852309667+852818038
2035+853506400+854421235+855320849+855756459+856281484+857423680+858160776
2021+857771376+856924182+856505022+856769787+857114480+857060012+856878109
2008+857183145+858458987+859928880+860171052+859976454+860792932+861566000
1994+861056537+860025121+859820899+860755528+862248355+863358607+863305572
1981+862782731+862670450+862340432+861829741+862103994+862498718+861942909
1967+861038859+860776892+861478496+862904841+864323815+864946515+864702431
1954+864387430+864235697+864380126+865252165+865654807+864444765+863420788
1940+865374002+869447315+871772729+870431089+867876062+867077194+868156799
1927+869523148+869829481+869258314+868617664+868073732+868950753+871092899
1913+872035719+872106433+872956151+874252947+874860562+874521330+874030023
1900+874327005+874844249+874423928+873712496+873248082+872604701+872827352
1886+874165443+875369957+876386493+877784444+879148677+879633568+879822637
1873+879742641+877117037+872495219+871527690+874819062+878221419+879660665
1859+879302390+878707539+878961929+879889391+880764774+880571064+879316723
1846+878009962+877590666+879250583+881923488+883383757+883294819+882680515
1832+881349114+879448526+879543333+881244409+882116448+883620332+886418078
1819+888095742+887764768+886082053+883553919+882023347+882927397+884676253
1805+886215084+887116132+886022807+884071573+883576922+883549551+882273300
1792+881517092+884862114+889430351+891269304+889910874+887323220+886256857
1778+887709276+888890105+886751713+882109691+881009540+883883869+886871912
1765+888551897+888167957+887904147+889579081+890609201+891257769+891728394
1751+888852769+883852266+882521479+884445411+886617044+887748660+888383782
1738+889139649+887375368+882254052+882214873+886218360+888868673+890276453
1724+890522447+890324914+889847532+886737516+882903986+885004428+889335749
1711+891097777+890208606+887862921+885640983+884631886+882098087+878130502
1697+876440484+878315476+884048844+888007214+888016428+887128213+883669067
1684+875943921+876269980+882253165+885754424+884053280+881005923+880807025
1670+879626947+879027727+882360736+884088159+882790544+883447099+885324275
1657+884072665+876098589+864992792+867077126+869465267+865876844+866845533
1643+872757458+876023371+876147665+872968574+866604385+866542818+871481071
1630+874145990+874256223+874716269+875546671+878415608+882882553+883811176
1616+881992632+885814353+892496206+895502951+894756230+894901206+897708371
1603+900936607+902875964+904938592+907789099+909632762+909989605+909769206
1589+909146848+909615084+912468594+915694987+917892284+918208309+913725938
1576+909137360+913422062+918069272+916760054+915499024+918799065+922575260
1562+924259067+918861451+904526940+905081520+913050613+918290285+920885242
1549+923832331+926340671+923504224+914187895+902352031+902410185+914483648
1535+922639557+924821019+927453516+930042740+928988935+927254414+925836395
1522+922886849+923729879+929325232+935757883+939939518+940848893+938593510
1508+930373030+923905843+932063322+939110208+940318885+938981272+940298408
1495+945582378+949123158+945753086+938512149+938956359+943905055+945642375
1481+944997356+945006707+944872175+942998274+938927486+936114793+937924192
1468+939958425+938658626+936659681+937301151+936525012+929624330+924576526
1454+930672196+937943303+941209899+940960696+940306394+941423881+943541729
1441+944963023+943781990+941894165+946696521+953242749+954918570+956241167
1427+959770958+961202696+960013949+957896580+953426972+949506689+949583886
1414+949962571+949122544+947796671+946210743+943002438+939519266+939643355
1400+940614502+937786997+932717965+930340950+931693579+932571010+929330898
1387+923333994+920705797+922072555+924395989+925859944+924649901+921725609
1373+921976996+926380054+929560716+928843072+925754352+920853229+917042565
1360+917906618+921234303+924182348+926014885+927320281+928079424+928198940
1346+927979634+927806332+927697395+925663912+922214391+921441391+923001178
1333+924140165+924510045+925166258+926116245+926721471+927306971+928946753
1319+931487173+933350562+934826871+938216122+942952406+945775201+947501054
1306+951361204+956507092+959858052+961046048+962360590+964887018+968275382
1292+971963800+974795195+976374366+977378139+979394012+982189504+983544522
1279+984764940+987014999+988080748+988080543+988660105+989679372+990869552
1265+991852370+991494299+990090068+989561903+990520900+991390413+991410207
1252+992187165+994039975+995050163+994931603+995008868+996117687+998412113
1238+1000470782+1001061333+1000959427+1000012306+998223248+997845315+999626319
1225+1001434966+1001359816+1000113189+999742012+1001309239+1004228821
1213+1006657096+1007367027+1007183350+1007975802+1009305907+1009012679
1202+1008273330+1008569970+1009138475+1010585707+1011899908+1011430170
1190+1012487319+1016696325+1019200228+1017430282+1015269160+1015693371
1178+1017941451+1019687849+1018625786+1016374566+1017354995+1021451857
1167+1024325981+1024343523+1022807899+1021773002+1024097118+1028068662
1155+1028637917+1026883192+1027126183+1029598211+1031764315+1031666845
1144+1029444771+1028132481+1029951504+1031862740+1031659747+1031332732
1132+1030509838+1029050866+1029856014+1032583046+1034929619+1036747958
1121+1037500003+1035635659+1031815370+1030208897+1032252345+1031683431
1109+1025515342+1021339098+1022703263+1025176246+1029193248+1035640573
1097+1039967662+1041436531+1041918009+1041832348+1040569271+1038959589
1086+1040447297+1044516856+1049065436+1053243454+1054038295+1051352490
1074+1050172753+1052945858+1056457220+1059244317+1061635734+1061854768
1063+1061209544+1060499067+1059141865+1059623888+1062200211+1064544941
1051+1065329066+1064461874+1063533592+1063995549+1064202091+1063418786
1040+1065341011+1067439883+1063589494+1057643782+1055615009+1060060317
1028+1068336357+1072384348+1071367197+1068592181+1064221135+1060497019
1016+1059638017+1060302626+1060319349+1060826627+1062571387+1062432009
1005+1060800827+1060721308+1060771818+1060016156+1060065027+1059201589
993+1056590455+1056663694+1061326944+1065004372+1062999079+1060171438
982+1061362710+1062798066+1061980427+1061698598+1062195638+1062067590
970+1061319845+1061045593+1062732472+1065115084+1066765923+1068190153
959+1068214862+1065349611+1062286146+1059624981+1049758712+1038372997
947+1041779518+1054533561+1061611981+1063313057+1064283043+1064897211
935+1064611696+1065370156+1067788603+1067956035+1065784743+1065281219
924+1066839162+1068010162+1068602214+1067910440+1065080341+1063899854
912+1065540660+1066823190+1067896925+1067907641+1065264564+1064018483
901+1066202402+1068914554+1069286890+1068379836+1070481985+1073410918
889+1073659848+1073741823+1073452691+1070361445+1065799282+1063633655
878+1065482096+1067651886+1065817711+1060249182+1052106514+1042743429
866+1038470603+1043052765+1050521678+1053246321+1049867444+1042725273
854+1036691647+1036477050+1039194253+1038584250+1033376522+1027101543
843+1024069748+1023195866+1020616745+1016080588+1010998587+1006700097
831+1004104458+1000766330+995192750+992391524+993894111+995817770+997829889
818+998661452+996196045+994361256+995766988+996338427+991943901+983823007
804+975819240+969646167+966812110+967901135+970547010+964044056+938253458
791+917271291+924814193+943550465+950245492+949674598+948181908+946214088
777+943098679+939707653+939316546+939981769+937766520+933166339+928030280
764+923940585+922680989+922901456+921290819+917199964+913398309+912083289
750+911291315+909674671+907108792+902539735+898261108+897518073+900465435
737+905014083+907870529+907622213+905663881+902616523+899032332+895563153
723+891746550+891323295+897471522+904553014+904807882+896115276+886411525
710+883980315+885337653+884553255+881442147+879145264+879933553+880128833
696+877965664+877241877+877210684+876184455+876070127+876775075+877561862
683+877132941+873747648+870654832+870794347+872377068+873209722+869076549
669+858331553+854412634+864405108+876213191+883008827+878754908+865431883
656+853679224+850866803+855133281+856905344+854706408+853667415+853449611
642+852707600+849368311+844351359+840715293+837363036+836645393+840340022
629+836101461+831089013+839663605+856898859+858370459+838655123+823898926
615+822407737+823269742+820040346+815433885+821515495+838236372+844890786
602+835281843+827947053
##END=
