##TITLE=Sample description
##JCAMP-DX=4.24
##DATA TYPE=INFRARED SPECTRUM
##DATE=25/8/2023
##SAMPLING PROCEDURE=Instrument type and / or accessory
##ORIGIN=Default
##XUNITS=1/CM
##YUNITS=ABSORBANCE
##RESOLUTION=4
##FIRSTX=4397.6552
##LASTX=599.8556
##DELTAX=-1.9287962
##MAXY=1.892522
##MINY=1.0352305
##XFACTOR=1
##YFACTOR=1.7625484e-009
##NPOINTS=1970
##FIRSTY=1.0953919
##XYDATA=(X++(Y..Y))
4398+621481852+621657025+620993192+619999436+618928307+619492785+622334995
4384+624812721+624676911+623256990+623843855+625643613+624620098+621101813
4371+618616105+618406235+618909775+619407363+620850212+623691069+626808281
4357+626781903+623274372+621039724+622445983+625331073+626432029+625849492
4344+626780077+629337071+630552939+629853259+629041102+628398100+627084365
4330+626023178+626364936+626920554+626781836+627045475+627752054+627717493
4317+625778070+621863784+619424948+621330756+625239225+627827670+629441567
4303+631440711+632686676+632255640+631308553+630145237+627825302+624876974
4290+623537944+624803050+626973580+627131980+625186403+624448171+626313872
4276+629409914+631353665+630969162+630459603+630530078+629953629+630203065
4263+631473920+631566647+630991820+630665686+630058800+629459287+628806884
4249+628562655+629623166+631171119+632459288+633981067+635315769+633862166
4236+630215172+628540877+628710978+628831097+629958566+631562250+631303480
4222+630262448+630568901+631695423+632571900+632686946+632532266+632292637
4209+631703607+632598142+635573930+637892107+637296178+634714159+632307516
4195+631121070+632003228+634049378+634528366+633182911+632049693+631549806
4182+630938050+631819532+634955073+637212987+636749825+635023655+633838764
4168+633701939+634269867+635693102+637366788+637281636+634993963+633329205
4155+634226446+635629390+636653852+638205931+638446034+636538332+634843341
4141+635181243+636692336+637092395+636518650+636738125+637812095+637864241
4128+635650154+633475837+633298499+633878939+635066400+636409082+635467744
4114+633916003+635190306+637823457+639255215+639683071+639651892+639101549
4101+638534365+638873485+639403740+638534906+637811080+639055084+639925879
4087+638520567+636685843+637094289+640026452+642835183+643713283+642914180
4074+641063764+638921708+636877249+635660435+636158834+637676082+638550868
4060+638266464+637782809+638550597+640593433+641805310+641253412+640461749
4047+640991733+642530015+643463846+643523500+643487248+644156222+644870917
4033+643704964+642082747+642749422+644854211+645722369+644458954+643348394
4020+644083582+644394431+643126147+642568973+642586693+641609508+640744055
4006+641354796+643252218+644957219+645554297+645937380+646616025+646944730
3993+645996695+644387465+643010830+641274920+640509634+641980484+643851596
3979+644967702+645782429+646623059+646751633+645410574+643857209+643523162
3966+644231364+644868617+645123735+645528190+646254856+647713329+649059732
3952+648177776+645388457+644437514+647312121+650096367+649639766+648644793
3939+649146372+649977533+649991196+648633836+646652075+645595216+645363162
3925+645195631+645358089+645668261+645147678+645554703+648785811+651130163
3912+650435352+649300646+648728457+647462743+645654667+644870714+645275778
3898+646227870+647378944+647807612+647697165+649247350+651524675+651942184
3885+651503641+650662199+647657328+647206476+650477353+651531101+649837462
3871+649520594+650852658+650944573+648425860+646637330+648361945+650204312
3858+650388887+648358834+642400833+641723608+648887196+655123310+656854080
3844+655264261+652845850+648824160+643440648+642854120+646939927+650156495
3831+651920676+653721651+654312033+653976498+652302473+647491150+645202124
3817+646595600+649700570+654829709+659881203+661625432+657414974+652854237
3804+652561717+652113232+651496133+652542982+654251771+656733352+659249225
3790+660854938+661437070+661121351+660992710+661252833+659823172+658254996
3777+659472149+661096529+661126762+659507657+657246496+656482225+658353878
3763+661300380+661335212+657711484+655192433+655204472+654574253+650746945
3750+648969169+652587148+653169617+649608113+651305066+655359288+654799341
3736+648425590+645810700+651903362+659199378+663215319+662477831+659652801
3723+660602864+664586205+666790755+666561947+666252519+665386187+661960764
3709+660504118+662842585+664859381+664669463+664768074+666615311+668082374
3696+668681684+668093533+664542648+659392069+659703797+665128770+670257435
3682+672181708+670751980+667858030+661963740+656638867+657061516+656898381
3669+656718811+659725373+662035636+662356292+661627732+659408166+655703413
3655+653252875+651458934+645361809+636129684+636518921+643659040+648475977
3642+649569156+648920945+648184946+646974827+644015948+639698289+633727776
3628+628921998+630463797+632706696+631953381+629394020+627526087+626771623
3615+625151977+623243057+622365769+621630242+621947381+622631708+620705744
3601+617247045+615382156+614085195+611486943+609999049+611038999+610433399
3588+605411258+602340173+604275402+606986671+607566367+605791364+603833072
3574+603733446+604605527+603922958+599491673+593877797+593792442+596947529
3561+598538093+598390379+598266066+598439549+597484210+594895360+592573802
3547+591772061+592031507+592263968+592791653+594539061+595441442+593552069
3534+591912944+591982608+591825560+591371529+590930416+590559034+591097811
3520+591607303+591332977+591165378+590818751+590109264+590330632+591405819
3507+591798100+590598533+588674328+588122632+589361563+590921759+590892743
3493+590071388+590740836+591527765+590487747+589362104+589320441+589611473
3480+590434992+590810905+589218245+587417338+587348689+588600944+590309124
3466+591510315+591325875+590552000+591365239+593679695+594319789+591925524
3453+589538698+589700277+591144953+591396959+589972642+588366523+587984387
3439+590145245+593654265+594901447+595039286+596936099+598020688+596688962
3426+595933619+595976837+595067963+595253891+597414141+598906634+598941601
3412+598805317+599561607+601420342+603826173+605777161+606653773+607068915
3399+606731486+604817629+604102055+606672035+609759014+611921293+613845836
3385+615703015+617886937+619701573+621866422+626124021+631225903+634752711
3372+635739094+635933340+637515788+639928044+642712020+646990856+651354777
3358+653132553+653805653+656265591+660515751+665284938+669847231+673498283
3345+676602577+681062471+685850326+688491728+690650422+694220516+697184197
3331+697925607+698234089+699440285+701783080+706044670+710205822+711167045
3318+711045438+713237747+715449399+715513584+715717840+716030786+715536715
3304+716341702+718470705+718863121+716917679+715160666+713418263+709148355
3291+703931629+701793428+702787387+704515181+705638186+704307542+700211455
3277+697346588+697926487+699134373+698765359+696803955+693458341+691343948
3264+692450179+693919541+693363991+691372151+688689762+687370008+688494569
3250+689163340+688011590+687202612+687028453+686187281+685899564+687708046
3237+688753542+686591601+684895528+686098071+687278363+685923304+684158649
3223+685255006+686986655+685671094+682679953+680796870+680702790+682045405
3210+685564367+689331750+688181082+683123907+679189669+677615338+677897374
3196+679938316+682424565+684497769+687105692+688762740+687546805+685702679
3183+685386758+685829900+685733115+685307490+684919944+685792498+689789163
3169+693201194+692066826+691123459+693748426+695281567+693252799+691194137
3156+690912101+691458724+692140819+691924997+690744975+691555914+695366652
3142+698062500+697930680+697947183+699296832+699769057+697637078+695689336
3129+696848323+699214859+700084234+699515359+698987403+698985374+699176780
3115+699841020+700191841+699718872+700263398+701352315+700431808+698834279
3102+699661653+702430885+704623464+705973045+707091248+707587145+707432870
3088+706874006+706933659+707901916+707801614+706638367+706575534+707135549
3075+706392853+704779159+703528256+703401509+705346072+708358247+710052021
3061+709838701+709074498+709070169+709223362+708724083+708400519+708506908
3047+708317396+708799698+710410282+710782137+710033016+710903473+712114944
3034+710827655+708491826+707674529+708791920+711408366+714590033+717140602
3020+717879375+716737365+715531913+715570532+716134064+715981074+715396441
3007+715110685+715336246+716981120+719727626+721130504+720325314+719382081
2993+720103878+722011918+724010115+725896242+727467800+728141508+728265685
2980+728675078+729144462+728991743+728771322+729808025+731673726+732946136
2966+733688899+734384116+734804735+734988769+734705380+733214375+731524524
2953+731564293+733262260+734662026+734943183+736120499+738489131+739107447
2939+737867772+737917010+739576696+739817002+738422038+738549732+740132923
2926+740347122+739501959+739334970+739279442+738793555+738280749+737806495
2912+737578634+737515057+737231804+737164981+738238545+740674338+743036477
2899+743175940+740885764+738056743+736950511+738238815+739269161+737893067
2885+736800701+738951549+742634592+744503201+744462418+744664780+745407950
2872+745166494+743407588+741295832+740970780+743431937+746567613+747634819
2858+747113018+747441655+748077285+746672717+744590450+744351700+745300816
2845+746014362+746329606+746292475+746306475+746799667+747432592+748301697
2831+749440055+749807446+748881799+747854632+748319823+750232192+752512019
2818+754308530+755325890+755858715+755794327+755111623+754848457+755140368
2804+754697497+754170893+755187036+756954531+757997525+758064821+758278750
2791+759640843+761421798+762239500+761646548+760993874+760830198+760419926
2777+760669498+762490154+764577967+764741575+763210192+762218669+762609529
2764+763929081+765289078+766052673+766075871+766059639+766672273+766911362
2750+767185214+768084416+767989322+767956249+769911363+771854099+771704356
2737+770797647+770862508+771435238+771494080+771185802+771420359+772325445
2723+772977443+773063812+773354303+774245254+775048821+775648672+776176019
2710+775686480+774767393+774871212+775502446+776501747+777988018+778359806
2696+777360301+776754904+777022196+778027720+779452375+779641482+778632576
2683+778625407+779791698+780691509+781433596+782915741+784607351+785014646
2669+783861003+782689706+783098355+785295533+787900074+788696269+787344997
2656+786258853+786318168+785793391+784962770+785355660+786412789+787661392
2642+789354624+790482837+790178211+789655734+789707474+789233288+788567831
2629+788648857+788706347+788593194+788790957+789453912+790704273+791969717
2615+793262755+794889097+795246411+794015326+793287510+793231644+793543101
2602+795152129+797181032+797982705+797635401+796969133+796273240+795665340
2588+795678326+796415881+797281199+798125887+799152851+800215391+801532643
2575+802824261+802744723+801534266+800846355+801602645+803314139+803916155
2561+802506717+801174653+801250201+801742040+802143113+802562854+803115361
2548+803879632+804012399+803529623+803872057+805107471+805592073+804944945
2534+804590269+804973554+805710974+806691406+807432073+807866963+808799780
2521+810114664+810168907+808727140+807606570+807461629+807462982+807637682
2507+809161963+811593901+812947270+813611374+814727886+814965013+813802374
2494+812841827+812786435+813346720+813803592+813443370+813123187+813531295
2480+813621655+812843180+812268354+813228359+815406735+817312137+818386040
2467+818272887+816865614+815928671+816609617+817664920+817870326+817121273
2453+816101748+816046288+817271624+818579137+818774533+818111714+817934173
2440+818787181+819583511+819268942+818638114+819269348+820750411+821692223
2426+822344221+822561395+821419453+820057156+820213730+821731722+823288332
2413+823836646+823495565+823799109+825134487+825318047+823613249+821825666
2399+821441569+822620238+824354051+825917763+826767728+826518088+826172408
2386+826147586+825719323+824676871+822915666+820428132+818039413+815936246
2372+812555327+807762738+804618270+804355983+803374334+799860986+796912522
2359+795849036+796136686+798561657+803456239+809926031+815220807+815798475
2345+811783075+808584634+808953513+810670012+811477908+810776131+811381528
2332+814312069+815665640+815246170+816532851+819132185+821282154+822227483
2318+821855425+821811125+823578485+827211072+831010582+832853220+833334778
2305+833908590+834370535+834504654+834555516+834488963+835161319+837098104
2291+838403925+838253100+838866343+841078063+842398696+841289353+839246044
2278+838175861+839526254+842356086+843059689+841701383+841358544+841968946
2264+842575831+843322518+843152078+841748187+840728121+841028148+842563048
2251+844290234+844252020+843129556+843699513+845440969+846160534+846148495
2237+846412202+846777361+846744964+846327862+845795172+845320309+845041925
2224+845579688+847477380+849700191+850862560+850636999+849731033+849470301
2210+849947396+850429969+850945886+851413512+851233671+850683734+850737977
2197+850978350+851141012+852424514+854036314+854380980+854236986+854452403
2183+854789493+854465388+853163422+852130100+851951342+851922800+852084515
2170+852642230+852864342+852844390+853321349+854039087+855322522+856750153
2156+856579511+855744021+855730832+855608481+855136189+855593263+856550631
2143+856438628+855878681+856221657+857376788+858375549+858641826+859087538
2129+859941831+860004866+859685969+860073921+860430221+859785460+858494180
2116+857557575+857558252+858082082+858411057+858322320+858095609+858426477
2102+859739468+861352148+862293081+862240732+861459417+861244474+862528179
2089+864191517+865038032+865002524+864212619+862938856+861864413+862132313
2075+863869306+865506943+866601541+867547614+866873906+864503718+863205742
2062+863877422+865573630+867372305+867589886+865950964+864182116+863524099
2048+864610716+866755072+867898706+867712846+867250495+866921656+867488907
2035+869055122+869952972+869423190+868449860+867662999+866904815+866345003
2021+866383217+867183131+868769231+870707368+872667555+874105737+873940168
2008+872618452+871642282+871460277+871397106+870967288+871122848+872688522
1994+874513642+875033346+873940844+872189310+871837408+873517587+875038013
1981+875555282+875449231+874080915+872639486+872753316+873226893+872794032
1967+872710909+874156869+876123210+877891044+879378397+879892690+879479578
1954+879046108+879314617+880199616+880297551+878754535+876477683+875613245
1940+877750026+880414762+880717224+879655225+879291757+879821471+880198872
1927+880146861+880059342+879415596+878343452+877719658+878056072+879406059
1913+880492610+880481044+880503702+881735599+883213280+884241867+885321789
1900+885697229+885268966+885584820+886297756+885436294+883340230+882573997
1886+883049333+883429710+884899749+887433815+888897293+888995160+888910482
1873+888562704+886641746+883133065+882438999+886003613+889360725+890624140
1859+890836242+890390733+889342599+888407551+888920289+890484069+890141635
1846+886340907+883404686+885635478+888652050+890036733+891217363+891851641
1832+890228207+886663727+885192674+886116293+886675428+888803484+893242005
1819+896565571+896881627+895767347+894099207+892555582+893144679+895051975
1805+896258306+896403653+895297219+893509230+892619564+892752331+892552335
1792+891778595+892775868+895426468+897101575+896402368+894703251+893932352
1778+894520706+895567960+895494847+892960240+890896302+892453994+896020706
1765+898744082+898422073+896498680+896066427+896990789+898944889+899777674
1751+896196150+891090142+890645107+892422409+893253436+893005825+892590008
1738+893794377+893873375+889641341+889174933+894443467+899143193+900474310
1724+899133184+897833314+895968763+890118368+885002012+889648443+897229269
1711+901183527+900178612+895001791+890887036+891544918+891108336+887786800
1697+888809300+893007516+896770233+898319133+897040568+895170742+892087212
1684+885300619+884442674+889851144+894994824+896014416+892966191+889940286
1670+887839352+888701423+892166209+892998927+890471759+889834032+891565276
1657+891636968+885533756+873581704+873811121+876892351+873880108+873433517
1643+878115456+881317414+881618320+877767070+872408447+875397761+880965646
1630+883328529+883541646+882595843+880566940+881403445+885200452+886597242
1616+888075262+895641141+902348939+903231097+901652844+901946851+902249110
1603+901870018+904410307+909203234+912911505+915565014+917588980+918509149
1589+919335306+921029891+922713452+924135740+925433919+924518620+918634611
1576+911746769+913391711+917720123+919879764+923844844+928251036+929186693
1562+927492379+918995036+904787235+909270395+919668000+927792000+933889937
1549+936299217+934695804+930641379+924979482+917679475+918214735+926712484
1535+932011656+933965079+936472091+937762222+934818290+930478650+926756784
1522+921170977+919109947+923643563+931867933+939604927+941748809+936559814
1508+924813912+920703216+933740938+943815926+945953315+942701172+941502619
1495+945728092+948303280+944871838+940893434+943883899+948654439+950809886
1481+950845192+950480032+948901508+944200158+936989496+933516932+937546467
1468+941491324+940365343+938001107+937924477+935525477+927404386+923250065
1454+928868270+933835897+936678242+940331864+945194184+949125649+951957916
1441+953561127+952113747+948172474+947854862+950042572+950665486+952641567
1427+956322378+957339941+955787050+952920966+946333827+941671029+945825891
1414+951277174+951400945+947441209+944411178+943067481+941688073+940236972
1400+938090723+934088512+927393294+921851381+922834856+925659413+924628932
1387+921481893+920825973+921539653+921499208+921829129+922591980+922657247
1373+922941042+924031650+924685745+924240303+922303992+919095947+917833682
1360+919891059+921888242+921988679+921036722+920448233+920763816+921638805
1346+923353546+926341914+927642663+924654701+921350276+921490956+923300047
1333+925389551+927779826+929893881+930962034+931504396+932910385+935358082
1319+937443257+939045724+940755392+942135476+943449955+944167694+944559230
1306+947484766+952867670+957993427+961947820+964499877+965557277+966602908
1292+969224967+972760769+975167615+975937026+977297429+981239918+985100637
1279+985043080+983616666+984465413+985800656+986459079+987516478+987208200
1265+985346219+986002951+988989357+989920280+989004102+988646856+989522859
1252+992790355+997948239+1001155743+1000095570+997277236+996826586+999400489
1238+1002047032+1002779718+1002497140+1003440643+1005638160+1005599473
1227+1003368342+1002635115+1003001492+1003390120+1005143818+1007667198
1215+1008951174+1008444455+1007239477+1006252349+1006529313+1009643887
1204+1013299809+1014068544+1013929758+1014658791+1014181426+1013154259
1192+1013954242+1014191842+1013096296+1014809887+1017609216+1016837843
1180+1014737518+1014529812+1016208571+1018880544+1020450817+1019900271
1169+1019232515+1019362847+1019720498+1021118033+1022313272+1021014011
1157+1019745253+1021422118+1024657758+1027762322+1030509505+1031892024
1146+1031365759+1030599391+1030921535+1031318077+1030932154+1031164140
1134+1032103315+1031765886+1030457765+1029501682+1029303039+1030492529
1123+1032150591+1033148675+1033308428+1030776391+1027460739+1028829055
1111+1032493296+1032832281+1031281081+1030585797+1030904221+1029842425
1099+1024817781+1020053870+1021144951+1027438285+1035065170+1040893245
1088+1044588056+1047220937+1049216564+1051325952+1053300680+1054686514
1076+1056319213+1057673867+1056989878+1055288259+1055606412+1056984129
1065+1056543828+1055659235+1055970692+1056437641+1055906913+1055724637
1053+1059048473+1063658043+1064223197+1061645439+1059756743+1060150850
1042+1062049015+1063871430+1063702546+1059541056+1054817792+1053529962
1030+1053782915+1056165412+1062780078+1069268605+1071227033+1070377542
1018+1069314731+1068825327+1068048070+1064638001+1060847283+1061264183
1007+1064135611+1064968802+1062767903+1060226871+1059324760+1060053997
995+1062274915+1062565608+1058806341+1054238096+1051007461+1050170482
984+1052003922+1055458630+1058874922+1059184351+1056597530+1054510799
972+1053288709+1052409662+1053319753+1056641086+1061204394+1063986476
961+1062005391+1057722632+1055634818+1056840406+1060519661+1064101523
949+1064693934+1063373842+1064213796+1067305916+1068553571+1068133696
937+1067650717+1064430565+1058902112+1056047660+1058485685+1064065676
926+1067596947+1067549197+1066891789+1067169902+1068101502+1066385611
914+1061780641+1061229486+1064793425+1066983704+1068982104+1072035740
903+1073741823+1072792436+1068472613+1061392012+1054609884+1053195441
891+1059511702+1066238844+1065167106+1059197607+1055406552+1057649924
880+1064048227+1067943101+1063983974+1054361664+1048014764+1048762803
868+1050867525+1049741679+1048483472+1050702767+1053624041+1052611281
856+1048347053+1043277906+1038547676+1036900706+1037432246+1037071957
845+1039816502+1045850321+1046678981+1040194174+1028752628+1014740967
833+1005565723+1003590048+1003959130+1004915416+1004741798+1002546514+999267384
820+994399789+991493394+990958539+989947740+991378956+994553793+992844463
806+984522091+974792040+971677195+977708174+982557373+978250874+972575315
793+970650772+968085256+963588906+961528621+962030808+960627186+957699892
779+955595577+954137712+952500549+949244145+944590004+941607520+941130493
766+939879118+936427994+932911940+931104608+929955699+928623094+928508656
752+926978220+921087110+914336160+910619638+909798216+909148179+907474764
739+904974921+901722778+900116929+902324049+906153386+907692953+905610618
725+901790345+900492234+902570239+903280606+900477557+897532543+897539374
712+898702689+897161973+892793994+888080537+885360746+884233480+881208251
698+876966749+875731809+875880605+876395372+880961926+887382819+889001112
685+882593341+874341850+872381460+872666473+870367978+867518667+862793983
671+855887068+852590489+857410876+863859499+868542452+872825752+873492494
658+868352399+860660381+854167931+851062691+849451364+845039017+842236103
644+845620674+846991763+840052654+834358834+838089898+846128678+848355007
631+837794334+821839328+812817411+810291191+805915975+796365358+795169646
617+803506898+800424653+789678256+787023259+794080526+802381457+797080391
604+784395789+783398855+796893788
##END=
