##TITLE=Sample description
##JCAMP-DX=4.24
##DATA TYPE=INFRARED SPECTRUM
##DATE=25/8/2023
##SAMPLING PROCEDURE=Instrument type and / or accessory
##ORIGIN=Default
##XUNITS=1/CM
##YUNITS=ABSORBANCE
##RESOLUTION=4
##FIRSTX=4397.6552
##LASTX=599.8556
##DELTAX=-1.9287962
##MAXY=1.8010068
##MINY=0.30656147
##XFACTOR=1
##YFACTOR=1.6773183e-009
##NPOINTS=1970
##FIRSTY=0.4476254
##XYDATA=(X++(Y..Y))
4398+266869683+266690121+266513704+265953573+265656548+266188410+266787418
4384+266592664+265896876+265824987+266662723+267111841+266398728+265452378
4371+265197889+265363716+265287794+265108321+265315885+265385571+264672085
4357+263986193+264097829+264513791+264536712+264069098+263783391+264029796
4344+264378934+264796211+265162762+264813109+263837814+263048016+262780414
4330+262895443+263041850+262889633+262780681+263035703+263268035+263053293
4317+262372163+261756098+261656439+261836089+261951154+261964035+261938663
4303+261781418+261670955+262094665+262544404+262082636+261231947+260985489
4290+261369488+261914143+262138676+262148412+262279788+262186968+261653205
4276+261035364+260724480+260771298+260808628+260590866+260350538+260372801
4263+260445862+260492307+260797417+260948248+260391280+259592118+259358417
4249+259584300+259599260+259490379+259523498+259370801+259148952+259323095
4236+259613173+259524991+259001852+258223461+257612532+257522306+257861139
4222+258121740+257956002+257781788+257928462+258091997+258022329+257862330
4209+258022471+258439642+258557781+258343572+258176536+258247696+258380813
4195+258227814+257863538+257673706+257639272+257456210+257293563+257207389
4182+256825079+256758609+257488796+257807729+257088576+256237372+255824181
4168+255679799+255657394+255639093+255357935+254889699+254671954+254751288
4155+254893821+255121694+255314723+255118282+254620232+254119996+253666810
4141+253421400+253599576+254100771+254540863+254452859+253964545+253803107
4128+253894007+253457735+252757398+252695922+253147473+253481864+253589022
4114+253567416+253311169+252707240+252252898+252482192+252889627+252803293
4101+252320754+251774641+251425343+251412959+251384460+251075619+250992163
4087+251281442+251401925+251304682+251194664+250863258+250344081+250110043
4074+250223811+250364692+250447579+250452376+250305579+250242965+250450529
4060+250612394+250410871+249894822+249581113+249879524+250258121+250152384
4047+249712044+249382202+249386981+249308447+248926048+248540024+248231734
4033+248188398+248578704+248810433+248447436+247931049+247466349+246965029
4020+246840725+247204291+247553234+247606271+247418678+247157650+246946746
4006+246801974+246702509+246693252+246766882+246740888+246598088+246361402
3993+245913671+245458778+245403592+245796669+246237081+246286404+245903188
3979+245382252+245059464+245094573+245268947+245237302+245140130+245231652
3966+245137252+244643608+244324249+244376379+244279811+243819251+243186609
3952+242515625+241985201+242097192+242516780+242217054+241650828+241880158
3939+242623831+242923787+242050267+240677080+240524525+241291492+241190819
3925+240253832+239850307+239870047+239593099+239571813+240574826+241989270
3912+242734364+242354133+240532769+237237972+234313706+233899164+235405717
3898+237814219+239491290+238986754+237594750+237952239+238553752+237576201
3885+236305072+235662835+236222238+238188623+238598687+236611780+234133806
3871+232568637+232935330+233833796+233390595+234050635+236668637+237524212
3858+234988493+229874944+226249007+230267187+235379119+237743236+237890230
3844+236276430+233327999+229975616+228515295+230423490+232995119+234680078
3831+235725485+235884987+235474123+234627486+232284672+230201588+231025429
3817+232367452+234614941+237664631+238819807+237178912+234111881+232088124
3804+230617497+229972738+231750819+233718572+235628703+237648587+238628110
3790+238648614+238159963+237442942+237115747+236777323+235959967+236279060
3777+237746736+237962882+236384547+234654670+234410540+234758399+234991335
3763+234962036+233794742+232432020+232367683+231833511+228950465+225507627
3750+226026927+227647674+227768726+229010965+231136016+231108192+228129751
3736+224354956+225161953+229987290+233445889+234011315+233015729+232605257
3723+233637177+235566356+237353854+237900553+236799657+234941497+236810798
3709+244846143+254750133+264552739+275684894+289853094+303793990+314611086
3696+322677756+327279271+327985685+327352546+328303943+329608706+329362231
3682+326301187+319743611+310477931+300287364+294623030+292893580+289410817
3669+286392434+285693927+283973307+280365441+275925417+271269977+266343772
3655+262005879+257604891+250582881+243658026+244626497+248243479+249263672
3642+248156310+246261476+244271940+242069456+239219211+235512857+230793239
3628+228157487+229030332+229164266+227104511+223451124+220790478+220223134
3615+219751255+218954279+217983160+217011188+217017122+217228506+216059382
3601+214118033+212813198+211761715+210562279+209943248+209131862+206500747
3588+203673492+203898185+205192021+205333577+204629456+203952217+203359339
3574+202518068+201147812+198508275+194540645+192202628+193340801+194917128
3561+195296365+195087948+194670066+193677075+192419823+191570378+190544463
3547+189103189+188653662+189617728+190516905+190378529+189665790+189390903
3534+189510676+188817962+186957704+185376029+184954718+185081776+185618507
3520+186345904+186470599+186076686+185674369+185287705+184968008+184937359
3507+185015093+184619741+184029138+183980721+184086759+184058295+184105113
3493+183949574+183481871+183136464+182989808+182804738+182768812+183239322
3480+184097491+184734877+184668887+184094790+183718165+183783942+183896821
3466+183857856+183818429+183945949+184251005+184518215+184590602+184468839
3453+184197275+183803486+183422491+183550490+184272415+184961239+185429635
3439+185721898+185840036+186099820+186431332+186606008+186737969+186714267
3426+186516831+186479145+186915897+187852031+188860214+189781103+190758245
3412+191540474+192068392+192697854+193523827+194571881+195796725+196768270
3399+197377370+198015661+198820687+199821176+201245144+203033566+204805499
3385+206480509+208373424+210647192+213191795+215767315+218210872+220782607
3372+223714887+226633148+229308203+232259104+235724277+239430044+243382642
3358+247517218+251560521+255520688+259591869+263857376+268337964+272939194
3345+277483195+282123906+286802391+291116245+295245704+299280852+302722660
3331+305662740+308611420+311208474+313128466+315072446+316980072+318246777
3318+319503390+321143539+322493113+323409329+324551659+326036695+327117478
3304+327501760+327335382+326574634+325506752+324101031+321791212+318735428
3291+315397988+311953657+308529581+304859243+301021389+297827176+295210364
3277+292414310+289793430+288011777+286605346+285044903+283390309+281724449
3264+280043008+278389373+277110248+276203431+275145711+274105529+273384705
3250+272606509+271503393+270205968+269127051+268474136+267737944+266669546
3237+265811803+265212636+264384815+263336477+262018032+260435948+259329242
3223+258984120+258817884+258274437+257209362+256162054+255667913+255443238
3210+255146817+254760953+254348988+253938391+253380126+252908691+252867186
3196+252887459+252742207+252607313+252239857+251674217+251335349+250965441
3183+250352308+249815648+249512227+249485344+249567964+249496005+249219733
3169+248813062+248463462+248311316+248316451+248191632+247891356+247812964
3156+247912091+247965057+248087139+248198135+248159810+247957754+247558422
3142+247196331+247098253+247166428+247329128+247485414+247534062+247508796
3129+247272964+246910642+246754747+246733710+246798065+246986706+247023450
3115+246857303+246714041+246561166+246357298+246310355+246267766+245864365
3102+245347090+245080679+244981516+244852398+244731185+244713631+244625840
3088+244561716+244749753+244818408+244415931+243812446+243376654+242974444
3075+242379274+241865055+241649656+241333051+240624043+239990868+239840445
3061+239942628+239919708+239560904+239018096+238629443+238342261+237877916
3047+237416148+237311673+237362738+237197817+236831018+236472160+236134714
3034+235682878+235260323+235045403+234837661+234487937+234199885+234200684
3020+234413561+234537065+234396486+234114848+233891613+233769512+233690285
3007+233558839+233340490+233277219+233555285+233877701+234041591+234281492
2993+234697793+235242715+235890317+236405531+236699447+237119798+237743449
2980+238078462+237952150+237773477+237708607+237582064+237412310+237273135
2966+236955588+236488223+236276572+236119256+235508006+234761651+234446414
2953+234499628+234613325+234731587+234887607+234979111+234896722+234724587
2939+234600745+234355762+233793765+233237525+232967738+232650298+232124956
2926+231713826+231400029+230908126+230263313+229519658+228737873+228218004
2912+228110899+228295365+228542320+228530363+228208782+227911917+227917763
2899+228098622+228149349+228095584+228044003+227934856+227836706+227751563
2885+227617593+227642646+227815100+227753908+227411593+227053287+226749279
2872+226366719+225957295+225794364+225823166+225788518+225720912+225726402
2858+225764479+225660981+225276645+224633111+223792852+223054137+222903448
2845+223248606+223587794+223829401+224048354+224249575+224483471+224689595
2831+224830210+224945914+225041470+225108845+225153087+225205058+225232989
2818+225322592+225649734+226007045+226081581+226068007+226287422+226563392
2804+226605075+226475352+226366773+226414550+226553992+226587449+226556338
2791+226562912+226535105+226537237+226695975+226828541+226731813+226571032
2777+226548982+226609570+226648251+226651129+226709781+226856774+226891510
2764+226775060+226815802+227080596+227204207+227004585+226808570+226983068
2750+227339153+227438102+227366516+227391959+227395850+227306425+227354043
2737+227643872+227898094+227897383+227795485+227789035+227886829+228013905
2723+228235239+228561296+228797680+228978787+229173860+229259430+229350810
2710+229517917+229527778+229409959+229425915+229627509+229917551+230163405
2696+230256153+230165946+229953780+229861760+230055838+230313507+230356896
2683+230205657+230040842+230017886+230147467+230244604+230121259+229849962
2669+229728892+229907068+230175913+230241583+230134425+230141728+230306578
2656+230431806+230445878+230373136+230234796+230104380+230093684+230168451
2642+230201837+230230443+230256970+230204164+230157310+230220884+230355155
2629+230428963+230393569+230333176+230350855+230504387+230675936+230727480
2615+230747967+230832240+230942755+231078448+231244436+231357830+231385512
2602+231350048+231309910+231333701+231417494+231655708+231975742+232081887
2588+232033523+231978461+231854334+231712618+231681098+231752276+231814197
2575+231819048+231757518+231633534+231523337+231406336+231224713+231091330
2561+231118462+231227361+231291716+231315898+231361348+231428528+231471988
2548+231464064+231369646+231140298+230919782+230934405+231068072+231106895
2534+231125924+231185802+231242446+231322277+231391873+231443347+231557025
2521+231698262+231809950+231885339+231915189+231955149+232058984+232234726
2507+232435929+232534772+232514978+232559718+232772239+233004020+233155296
2494+233328301+233536149+233652831+233630816+233527496+233443757+233487021
2480+233612302+233703576+233827435+233961813+233909505+233753326+233734119
2467+233803715+233770863+233621399+233489580+233447363+233457082+233531619
2453+233646701+233694070+233734918+233856930+233982566+234003141+233903446
2440+233807944+233787777+233845576+234029971+234243096+234316246+234247112
2426+234163621+234231494+234463879+234664105+234721140+234744611+234855429
2413+235025592+235175712+235294508+235426612+235625967+235861586+236030807
2399+236108257+236203084+236423779+236665546+236798414+236931068+237075450
2386+236916747+236208894+234963760+233291078+231343314+229212346+226992965
2372+224804571+222544342+220273416+218404115+217106885+216269576+215946894
2359+216391481+217703672+219863068+222945238+226256825+228011488+227219540
2345+224991880+223588913+223457431+223730594+224255260+224949361+225577312
2332+226163953+226802867+227581151+228477041+229381797+230434347+231736445
2318+233127773+234433905+235538318+236411448+237203485+238141254+239198938
2305+240147509+240880521+241387544+241734888+242085980+242448071+242752896
2291+243104540+243524500+243884104+244179423+244411044+244474547+244442600
2278+244530906+244766437+245017905+245176323+245241158+245303061+245391385
2264+245480206+245581394+245721565+245877495+246020509+246233598+246534532
2251+246763826+246882284+247007939+247141411+247216711+247277992+247355531
2237+247426727+247514144+247615670+247731232+247899547+248121183+248361812
2224+248567013+248690766+248691530+248591764+248569110+248715961+248863772
2210+248903607+248961424+249100386+249270993+249482199+249697403+249832688
2197+249938744+250133355+250355684+250427928+250371391+250375744+250486206
2183+250572221+250619323+250763758+250988166+251112665+251087488+251082335
2170+251230555+251425788+251558034+251705116+251886046+252003349+252081510
2156+252219122+252398310+252542621+252689223+252876247+253007800+253067856
2143+253157637+253336452+253568944+253758900+253894895+254025134+254135383
2129+254204269+254306168+254528550+254783092+254952917+255037847+255059702
2116+255150122+255418523+255658744+255703271+255770504+256004631+256253025
2102+256475852+256732490+257022764+257391500+257842447+258384207+259125303
2089+260065222+261000805+261804231+262604033+263406162+264025816+264491297
2075+264863018+265092970+265271768+265476293+265688281+266024289+266568980
2062+267158925+267669609+268143299+268559617+268774324+268770539+268743692
2048+268817429+268977179+269157576+269344849+269660726+270059916+270367282
2035+270644336+271010478+271373812+271575495+271600885+271525940+271446500
2021+271373972+271211343+271132134+271398829+271810048+272110769+272322810
2008+272505784+272734047+273019363+273246560+273438400+273749070+274022979
1994+273960437+273933589+274537394+275480511+276307764+277058437+277851131
1981+278677425+279470883+280243713+281145715+282284616+283334074+283999781
1967+284906794+286639158+288590476+290173786+291477394+292606541+293560389
1954+294348748+294993330+295488964+295680128+295332660+294669405+294691597
1940+295575618+296210196+296273592+296201330+296227857+296225974+296081433
1927+295684250+294873237+294295765+294360315+294445672+294803872+295587966
1913+295921486+295644930+295537399+296124360+296929278+297467235+297844677
1900+298095311+297997197+297735458+297703583+297507870+297179147+297642408
1886+298492564+298964336+299248941+299437458+299510377+299585855+299548826
1873+298705742+296595225+294842499+295823248+298021414+299233660+299526759
1859+299738871+300217430+300711021+300942180+300822319+300244437+299074425
1846+297683878+297833803+299796155+301108345+301315803+301402545+301187981
1832+299701417+297937834+297930105+298733673+299668226+301096334+302121645
1819+302415134+302429562+302154764+301355354+300782661+301336875+302324021
1805+302651980+301957328+301087948+301330585+301925062+301398245+300162385
1792+300715036+303460274+305334959+305707018+305524506+305190862+305231266
1778+305721800+305269253+303246811+301659681+303168526+306050719+308179874
1765+308703919+308186875+308388540+308890375+309007998+309121819+308059977
1751+305555245+304332924+305778586+307549223+308289609+308367183+308686791
1738+308640132+306821594+305354077+307713504+310998849+313470000+314604690
1724+314581414+313892697+311558927+307431777+306108926+309981213+313911957
1711+315718342+315187866+313184186+311725731+310862676+309153978+307826152
1697+308917666+312768561+316432147+317197479+316234072+314164829+310492750
1684+309241325+313345732+316680329+317718823+317309346+316779793+315924200
1670+315541019+318673880+321987867+322527476+322907992+325153101+326500756
1657+324751263+320228495+319272550+323711063+323966458+323554777+328151459
1643+332768468+334304355+333195713+330359753+330995166+337340737+341886817
1630+343914980+345683022+347639332+349858180+353452046+356141457+356713404
1616+358970808+363647978+366602628+367677369+368375112+369458026+370462016
1603+371247141+372210407+373031103+373163260+373114186+373683467+374597871
1589+375490883+376415059+377309812+378163273+378665498+377813495+375710849
1576+376261190+379697632+380956732+381242653+383616436+386406946+387877342
1562+386987990+382915743+382985713+391288234+397514369+401971858+405519776
1549+408801602+410542993+409744186+407729953+408546030+419533093+429838227
1535+434703808+440319831+448340127+454055935+457778617+461925915+466204269
1522+472815575+482548478+491617965+501878182+512081399+518756244+521469997
1508+523267605+536412714+554703142+565218185+572225465+579436614+590569765
1495+603458094+612071729+617780536+626211021+638741399+650532919+659835165
1481+668486255+677116166+684297642+690209358+698113630+711952148+727048557
1468+739085344+749709020+760935310+770424615+775451066+777658756+786404584
1454+800772441+812167667+820198304+826651513+833950470+841734845+848338796
1441+853202848+855893894+858650539+864673695+870926411+875482227+880137045
1427+883689832+883527149+881509860+878444765+872338385+866018080+862355276
1414+858402571+853313009+848966143+845665518+841119367+835165933+830271532
1400+825389641+819491358+815256642+813921211+814456663+814338329+810919867
1387+805831798+804487270+806568950+808251991+808363715+807333607+805793632
1373+806111535+808009211+808702512+808676713+808626750+808206576+808992270
1360+810518101+810587182+810044908+810338788+811165277+812117633+813807568
1346+816218237+817934895+817764537+816708203+817668377+821257054+825421339
1333+828072442+828158510+828033353+829933091+832147177+833260580+833748414
1319+833561141+833448280+835117746+838823691+843202469+846610411+849162797
1306+852368044+856650733+861189350+865520794+870153154+874942013+879124705
1292+883155659+886692881+888656440+890114185+891715778+892192027+891565960
1279+891116291+891740866+893403225+893988782+892485054+891166965+890591642
1265+889478807+888289712+888089575+888943142+889494087+888779109+888060933
1252+889022031+891611730+893412678+893051706+892503604+892773604+893496897
1238+894984066+896949686+899214233+900816963+899692472+897072284+896053903
1225+896310328+896072168+895352997+893731077+890786165+887729457+884905223
1211+881773890+878450949+874746283+870532249+866992469+864669786+862086200
1198+858391058+854822067+852831074+852390290+852250137+851499836+850174142
1184+848293026+846359032+845450029+845067452+844860279+845747463+846815523
1171+846626260+845694799+845553936+847154249+849543882+851047112+851432532
1157+851693932+852829937+855306916+858256519+860751480+863655242+867010592
1144+869696023+872090062+875187281+878744615+881345756+882695046+883923230
1130+885833628+888859918+892122093+894836095+898136365+901775431+903965851
1117+904997309+907128668+911270281+914874451+915571377+914638068+914207376
1103+916043646+920204661+923387237+925156203+928124143+930831819+932577403
1090+936610987+942542531+947232104+951219776+956199248+961810687+968180955
1076+973689412+975255825+977120453+984360208+992008552+994842096+996058625
1063+998710866+1001227929+1002508208+1003933971+1006393182+1009122464
1051+1012041934+1015065807+1016843017+1018092238+1019048717+1018346674
1040+1018198917+1020258138+1022893038+1025341162+1027741597+1029619373
1028+1031214072+1034192460+1036619262+1035108001+1033984576+1037510568
1016+1041119572+1041028387+1039805534+1039775541+1041037769+1041272731
1005+1038420495+1036086227+1037290602+1038764409+1037899115+1036901060
993+1037388894+1038403438+1040260959+1042902255+1043501884+1041455953
982+1039940782+1040315968+1040295357+1039491540+1041124618+1045858041
970+1050244850+1052215303+1052768523+1052276922+1050961889+1050905672
959+1052519844+1054407215+1056435450+1057574155+1056298424+1054277297
947+1055042735+1058746619+1061057291+1060146156+1058833824+1058877675
935+1059794708+1060835477+1061671916+1062393859+1063606408+1065382694
924+1065618082+1063540738+1063293978+1066195395+1066870502+1064711070
912+1064873184+1068137775+1069943770+1066676264+1063105994+1065414534
901+1070948292+1073741823+1072061341+1068655530+1065971094+1064960672
889+1066200512+1066226240+1063520980+1062702309+1064218119+1063921254
878+1060619065+1055826297+1050862887+1046129818+1040658958+1033078843
866+1024232022+1016841667+1012562674+1009962670+1007095580+1004616114
854+1002627182+1000583596+998384577+994192362+987261483+979486063+973254029
841+968307605+961767192+955016692+951487004+949444129+946245349+942273526
827+938189766+935414287+934590712+932430925+928937199+928571537+930288123
814+929636968+926401728+923084117+920512116+917088395+913315217+912229175
800+913715704+914393796+912559515+910014450+908841701+908250743+905304195
787+898523561+890743593+886413713+885917066+885687221+883974472+881275253
773+877996874+875886836+875444559+874104366+870631891+866327241+862225357
760+858238112+855551757+855800364+856214213+853444704+850005632+848387480
746+847162138+845464741+844247928+845021753+847252683+848494229+849018380
733+849513961+850003216+852324620+854783618+854035520+852123132+851421516
719+852077149+853066036+852345017+851852706+852952606+851432034+846594491
706+841871160+839197953+839073365+839387145+838144817+835566917+831720038
692+828278123+827033095+826567435+825876622+825004718+822435560+820166749
679+822541954+826186777+826174979+824870464+822883878+819033658+818264168
665+821274112+822436555+821696702+820058223+816505152+811326964+807055576
652+805495062+806550614+807327281+803673503+797158391+793225160+793868356
638+799348811+806218000+807454144+801792457+791850000+781772508+777048040
625+777372694+777751504+776945626+777535945+781293203+786003599+785540641
611+779931973+774610505+770703144+768163907+766591311+763946816+763717896
##END=
