##TITLE=Sample description
##JCAMP-DX=4.24
##DATA TYPE=INFRARED SPECTRUM
##DATE=25/8/2023
##SAMPLING PROCEDURE=Instrument type and / or accessory
##ORIGIN=Default
##XUNITS=1/CM
##YUNITS=ABSORBANCE
##RESOLUTION=4
##FIRSTX=4397.6552
##LASTX=599.8556
##DELTAX=-1.9287962
##MAXY=2.0811868
##MINY=1.2874463
##XFACTOR=1
##YFACTOR=1.9382562e-009
##NPOINTS=1970
##FIRSTY=1.3605447
##XYDATA=(X++(Y..Y))
4398+701942635+708644165+713775023+714362318+710642348+707759439+710007695
4384+713284841+712711445+712405281+715326630+715386472+712579274+714302106
4371+718513181+719764467+718052828+714441473+711787480+711717673+712113816
4357+711294961+708857459+706326165+706103953+707203080+708300731+711492509
4344+715406338+715543244+712829224+710341597+708297102+707668414+710697332
4330+715086274+715595645+711242252+705468992+702751712+704739931+710722549
4317+717081013+718690802+718083518+717818869+714198535+708343537+705033303
4303+706766529+712793490+717232127+716186877+713305690+710840697+708980343
4290+708472017+708180368+710713446+717346892+720556507+717085503+713986902
4276+715262174+715850269+714398913+715277796+716500729+716073342+717053214
4263+719329822+720337432+720176908+719405410+716733642+713762291+712724422
4249+711768045+710865360+712869877+715745775+714968188+712797734+712994975
4236+714555685+716203852+716452818+714163601+711538760+711590177+714604949
4222+717449357+718833552+719892824+718765160+715074896+712527857+711936318
4209+711269498+710870895+711392320+712002188+713225428+715178529+716584558
4195+716521517+714485325+712725714+713778282+715565632+715616433+715475652
4182+716340205+716037731+714583669+715191015+716553683+715963251+715999538
4168+718172329+720950990+723244389+723723808+721847340+718508199+716404661
4155+717297382+718390051+716817102+714745115+716191674+720397459+722369811
4141+719538442+714976798+714491537+719075936+723706218+724900121+724406188
4128+723850566+721794631+718762700+717190551+716956776+716326613+715521103
4114+716741638+719124955+720451336+722060818+723473304+721194113+716901300
4101+715165368+715815274+716776633+718236292+720055070+720948468+720563949
4087+719721845+720011772+722142310+724787447+726323063+725414535+722033142
4074+717801710+714469765+713856637+715514891+717397386+718869039+719255957
4060+718770449+719831751+723372623+725542278+723848598+722721733+724847044
4047+726327860+723764154+720223835+720969871+726690423+732172403+730852233
4033+724576060+720379070+719977268+721384588+722852735+723140079+722948127
4020+722719765+721027807+720697165+724274509+727006427+726260084+723957397
4006+722701376+724827609+727295247+726777142+725378740+724083971+722690120
3993+723503195+725487601+724353418+722025638+722612626+724128315+723812865
3979+723934211+725960009+727749019+728577961+729126018+728835537+727139397
3966+725632134+725474440+725222706+725185189+727262220+730522021+731573606
3952+729606236+727186263+725829314+726324662+728085627+728609635+727242415
3939+726095624+726735259+727164737+724887390+722440601+723083312+724942989
3925+725622355+725792535+725088198+722242991+720176416+721622299+723816616
3912+725414351+728425248+732106471+733238071+730860536+728573348+729173437
3898+730009944+728556865+725542278+723406143+724829208+726961345+724273340
3885+719794050+721233413+724837449+727554299+730501356+730534137+727790410
3871+725895799+724775146+725178178+726968295+728185816+729210154+730893686
3858+732066309+731084838+725329907+723425393+728472606+731530430+731105565
3844+728612649+725829068+724650171+723235778+723051453+725648802+726546689
3831+726249874+728156540+729847514+729045694+725567064+721302666+724713335
3817+730840793+731302622+731142713+732390801+731320027+728398556+729402906
3804+732469033+730374721+727180051+728296030+731900066+736544616+739733811
3790+741768035+744543805+745429761+742232386+738129434+735055988+734279939
3777+736579550+740018756+742056609+740080813+736538158+734435419+732099644
3763+731693783+733069491+733225279+734253861+736676786+736132605+729444544
3750+725212866+728712592+729438455+725706861+726674247+731164731+736087277
3736+738081277+735032555+733332971+734466540+735130715+733600511+731672626
3723+732047735+734374715+737561020+740606175+741696568+738169227+731991583
3709+731584861+736045946+739562032+738536894+734799950+734100164+736445595
3696+738778541+739560987+738140813+734920127+734511560+737288437+738922090
3682+738003599+736474010+735714505+731022905+725335688+726557637+728218966
3669+729832322+734754376+738972400+740131000+739949319+739327828+736052958
3655+733042491+735782220+740040836+735441184+725747392+722510346+723486774
3642+725851701+727247705+726132280+723263578+719930464+716489474+710287228
3628+703305119+703870950+707209661+708355161+707155722+706154201+708553940
3615+711272942+709374702+704390961+698818572+694877374+694618322+694776632
3601+694100340+694922149+695905341+694801479+692813690+690786846+687659462
3588+684459072+684789161+687657370+689768966+689652970+688392582+687457423
3574+687171924+687465234+686896820+683761747+680876685+682547424+684676487
3561+682919458+679864401+679002555+678756664+677118030+674958585+674085483
3547+675017813+675342797+673834427+673516147+674565025+674561396+674120479
3534+674402779+673340924+670757967+670034010+670397188+669200578+668589050
3520+669960145+671488196+671391574+670063593+669087412+667732370+666612393
3507+668043638+668711073+665919250+664229138+665025176+665213499+665119030
3493+666377943+667712012+668264681+669272353+670374124+669787443+668720114
3480+669540999+670784905+670286666+668533267+667615206+669079663+670941616
3466+670210341+668039825+668140814+670823222+672446911+672360191+672960464
3453+674336540+674367722+672380118+671041928+672073339+674226265+675668826
3439+675623006+676313627+678084555+677479916+675636537+675991227+676445306
3426+675428901+674978020+675363093+676655955+678438999+679110370+680381768
3412+682640049+682787718+681789149+681726416+680920968+680018898+681435628
3399+683155508+683877681+685188318+686130365+686981079+689814970+693526145
3385+696488885+698198126+698372365+698116449+699197678+701744410+705182325
3372+709081700+711593806+712814217+714434892+715609976+716564200+718237769
3358+719908323+722011062+725117289+729058733+734312351+739149345+740749970
3345+741385915+743974161+746088893+746723669+749526931+753756395+754775445
3331+754296887+755766571+759006200+762395528+762241031+759667853+760964713
3318+766506105+771765812+774624366+775257358+773966956+772742978+772933330
3304+772197504+769739522+768471568+769466324+771059876+772455572+772648078
3291+770466676+768846432+770091690+771029309+769353465+767180982+766760360
3277+766215502+762001660+757127641+756734204+759381370+761825699+761973368
3264+758267175+754553786+755496756+758054374+757278816+754148848+751616447
3250+751590062+753562844+753854124+752506831+752445205+752927883+753477662
3237+754365156+754673533+755533412+756752163+755585321+753222423+752891781
3223+754563996+755023057+751436673+745654495+742474340+744650083+749448207
3210+751368650+749808555+748281304+748763552+749809232+749501285+750122346
3196+753428459+755237212+752831139+748846520+745054529+743565902+746787079
3183+751522654+754052780+754048536+751265201+748597493+749296970+750295539
3169+748764659+747547322+747805760+748236099+749029861+749898227+751122513
3156+753726013+756515498+757858178+757052976+753990354+751616754+752878927
3142+754833135+754778274+756028022+760167260+763219058+762004366+759574737
3129+760131650+761610806+761119394+760623984+759936684+757495739+756223480
3115+758022576+760396545+761211895+761352984+761767517+761913895+761840152
3102+762317172+763198885+762824575+760758062+759485619+760957886+762912955
3088+762283222+761340191+761974906+761843904+761227210+762185002+764382209
3075+766680160+768038646+767832856+767011232+765759946+762975258+760001078
3061+759437400+761593339+764077522+764853571+764855047+765528079+766651253
3047+766646087+765234523+764081150+764760209+767362478+769347438+769327265
3034+768408958+767392184+767970931+770528057+772305627+772412889+772375802
3020+771500732+769475242+769240115+771504238+773431016+773126943+771445379
3007+771039273+772349909+773250442+774275641+775764208+775269966+774439056
2993+776050690+777912705+778679713+780588409+783747468+784728139+783128068
2980+783290190+786383625+788398537+787345907+785014130+782855116+782452945
2966+784821932+788244779+790745567+791636751+791145893+789226311+785716744
2953+783535466+785250487+788814915+791526107+793468875+794969680+794475624
2939+792674375+792543741+792646575+790861932+789122309+787739590+786795944
2926+788268888+790534795+790668381+789254295+788360344+788779551+789347227
2912+789478229+789438129+788856307+787950608+787089561+786552944+786348138
2899+786445436+787498866+788573391+789224712+791282799+793752775+794093565
2885+793259764+793152317+793632843+794180777+794356553+793117260+791080330
2872+789901311+790356620+793306014+797066269+798916475+798806076+796460092
2858+794295111+795816151+798667940+800322565+800430503+797372125+792819031
2845+791069321+792151780+792663427+791553045+790540515+790946745+793115600
2831+795837431+796898180+797193027+798877543+800330130+800310387+800007544
2818+798958174+796917246+796394590+799540918+803030497+801659709+798141348
2804+797483938+798313557+798393880+798356486+798238707+798108505+799154431
2791+801314614+803300865+804224215+804167140+803151474+801141359+800776644
2777+803923587+807444901+808698770+808655103+808089395+807288498+807252949
2764+807811953+807507265+807006566+808152313+809895626+810400076+810793390
2750+811855861+812137362+811791529+811676948+811340893+811050351+811247285
2737+812113929+813390001+813430655+812255879+811935939+812562658+812745753
2723+812341430+812114606+812613890+813723780+814428978+814063340+813301990
2710+813187225+813828766+813983755+813748074+815644530+819257361+820451080
2696+817688287+813775320+812628712+815374038+818914295+820416269+819880452
2683+817997649+816876627+818005337+818958147+818345082+818423560+820787504
2669+824439451+826781068+826359278+824507658+823021921+821905635+821500512
2656+823048798+824743093+824773045+824719783+824242701+822339480+821548546
2642+822635741+823020629+822540842+822557940+823203233+824503230+825609183
2629+826145739+826801980+827496414+827575323+826562301+825895481+825768415
2615+823476677+820413748+821093975+825242562+828005600+827932904+828068764
2602+828797764+829124531+829771670+830417209+830799760+831425126+831813028
2588+832308130+832998198+832168210+830373849+829417595+829153561+829783540
2575+831873609+834724721+836572897+836179091+835046875+835174556+836033205
2561+836186225+835345351+834225190+833515749+833473312+833923947+834400413
2548+835218900+836065002+835466451+834231771+833845714+834431534+835882153
2534+837024332+837494832+838379558+839498920+839266683+837181719+835663754
2521+836268394+837284614+837344211+836927464+837011477+838031511+839323758
2507+839567496+838535469+837919267+838437126+838430483+838050761+839077929
2494+840416489+840933363+841391194+841268372+840388812+840293851+841538248
2480+842534726+841936421+840681568+840061799+840649156+842603917+844064007
2467+842916108+841091980+840911222+840685750+839932519+840728680+842194305
2453+842662899+843009163+843232666+842621077+842291849+843090348+844174344
2440+844847130+845139947+844704319+843618907+843428678+844875729+846338217
2426+846098600+844417898+843011008+843355673+844884585+845556325+844971797
2413+845319353+847571114+849167126+848704314+848082945+848131840+847718784
2399+846410853+844987788+844184677+844574731+846209614+848366230+850088201
2386+849996561+848212533+846090728+843779370+841745453+840586545+839489018
2372+837965395+836707712+834891333+830962437+828137648+829263283+829990376
2359+826563408+821826049+820425864+823709098+829740180+836055162+839740936
2345+837947067+832928699+831068099+833830892+835794572+833920441+832549285
2332+833326442+834401151+835616643+837170402+839320252+841385597+842454710
2318+842410243+842352246+844116470+846550712+847250005+846366448+845999580
2305+847353146+849086496+850042996+850729558+852355215+854878760+856028258
2291+855801741+856396909+856969875+856305638+856123096+857170253+857795926
2278+856896932+855123236+853952827+854374863+856319107+858308372+858402534
2264+856843547+855770313+856108212+856685114+856554727+856378151+857064344
2251+858269256+859118556+860422674+862306030+862317593+860572311+859603264
2237+859919822+861205489+862982075+863871229+863326432+862513358+862148766
2224+861584780+860827796+860703252+861631645+863237560+864269771+863921354
2210+862910055+862076991+861417429+861507778+862788708+864027448+864172719
2197+863418564+862902613+863738505+865323693+866446129+866756598+866888646
2183+868064406+869243303+867904805+865654827+865572781+866847377+867958682
2170+868898576+869599899+869899543+869756364+869599161+869748307+869869653
2156+869832874+869491223+868726059+868426538+869306466+870125199+869405917
2143+868475556+869530216+871319226+871185640+869738036+869023551+869113776
2129+869185797+869503462+870281110+870416049+869567425+869271287+870215548
2116+870705053+869798432+869282603+870306204+871740954+872361892+872189806
2102+872450211+873671422+874350296+873703404+872648560+871324515+869452045
2089+868293260+869059100+870657696+871932968+872609197+871909535+870457748
2075+869743263+870134179+871539039+873148705+873608504+872570696+871420829
2062+870961153+870470110+870249559+870366908+870041063+869775307+869987924
2048+870572759+872067168+874125625+875168414+875197136+875333735+875093319
2035+874604059+875278321+876388334+876526901+876365393+876264589+875377526
2021+874199490+874154470+875105004+875707368+875824409+876443441+877698232
2008+878666849+878474712+877598228+877403324+877593062+877184741+876760982
1994+876174855+875227334+875965436+878134045+879284158+879507969+879438101
1981+878559402+877110322+876335256+877074158+878675090+879519224+878737393
1967+877782369+878662482+880233709+880560292+880107196+879891196+880364526
1954+881583954+882519297+882334848+881463223+880554818+879539397+878879897
1940+880387406+883210902+884553951+884495646+884386662+884109528+884018688
1927+884593252+884762079+883949988+882888809+881483211+880835396+882635907
1913+884559610+884613733+884962518+887089920+888718775+888637222+888335179
1900+888195996+886939790+884854764+884557457+886793720+888461876+888264511
1886+888114997+887901272+887673648+888252887+888546812+888114935+888050418
1873+888181605+886390012+882407976+881220223+884252892+887348296+888366607
1859+888712194+890456368+892904141+894574572+895051285+893379747+889962988
1846+886558531+884810297+887003323+890838120+892357191+892008713+892110378
1832+891838349+890228252+889303549+889667895+889592615+889566599+890688236
1819+892459472+894315828+895221157+893812054+891429106+890519163+890606375
1805+890949810+891649042+892334804+893122724+893828291+893279065+890399109
1792+887102036+888966019+894060650+896747671+896470906+895729790+894967271
1778+894784606+895170909+893621393+888949536+886889726+890219396+894643579
1765+897019085+896237501+894339384+893758607+893424398+894201186+895345640
1751+893043262+889122114+889233743+891661342+893567639+894100135+893407300
1738+893629389+893491621+889214492+887294603+891599900+895921988+897201074
1724+897101438+897917896+898226274+894308816+888040823+888428356+894347379
1711+900403554+902499466+899087136+894199217+892824802+890679011+884910425
1697+883891499+887707291+892162472+895649098+896927753+895911594+891296689
1684+884027052+884559056+888542568+890103831+888893814+886832467+885739306
1670+885044994+886535775+889530620+889918460+887800776+887280888+888039040
1657+886870968+881259154+873431436+875440936+878131093+875087599+874561868
1643+879161705+881628605+880610663+876295771+869683113+869455735+873361076
1630+875218539+875548936+877027046+878854926+882143388+886732401+886923246
1616+883394982+886191786+892424476+895427747+895209964+895720811+899200364
1603+904360927+907771289+908553796+908600047+909241220+910976476+912497270
1589+912885479+913454016+914561261+915716356+917285368+918306386+916195160
1576+913154987+915646119+919403729+919662351+918087003+918028022+919981799
1562+922168674+916556676+902072879+904251082+912365283+917157380+919420827
1549+921759923+923927917+921608809+914589737+909026511+912523716+919688244
1535+923147931+923851407+924930483+925776647+924712023+923360118+922631057
1522+920227874+919421749+923262450+929294332+934466950+936511568+934961314
1508+928202770+920969113+926481967+933857820+936798543+935604701+933033737
1495+933574843+936398832+936403383+932162296+931122151+934383121+937856339
1481+940636291+941471569+938447325+932859990+926086316+920637917+920763507
1468+922718884+922817842+922625583+923642787+922998724+918058281+914824065
1454+919554105+925044203+927358267+926279191+924711716+925566305+928717307
1441+931963086+931791430+928836009+930580429+935941247+939493251+941983769
1427+944507067+944216218+940658679+936615078+933006491+933019160+936534816
1414+938151002+936212661+932643006+929949466+928871804+929665751+930346778
1400+927306420+921223798+917323131+918545634+921993021+923086428+919896186
1387+913907849+910085476+910354492+913899177+917486546+916848325+913011130
1373+911164614+911923812+911833956+911865937+913198346+913281314+912960636
1360+914881079+917262243+918116463+917069492+915565365+915049475+914390774
1346+914461134+917672901+918893128+913042927+907912193+909114154+911445500
1333+913311759+915490516+916617134+916322103+914770127+913674013+915534429
1319+918597297+920346514+922519121+926846928+930950126+932119366+932762753
1306+936091930+941210733+945568616+947975857+949456797+950285248+949967460
1292+950944871+954542080+958618278+962773138+967141046+968526593+966400668
1279+965783420+968918247+972717187+973711574+971308329+968905393+969333518
1265+971081443+972695169+974261475+975675130+976890621+977057541+977459343
1252+980091687+982550530+983275778+984122680+985224820+984809426+982554282
1238+981195796+983177988+986762466+988134175+986934860+986009787+986688908
1225+988801794+991358428+993290618+995135657+996741264+996348934+993808230
1211+991654751+991263959+992199118+994162428+995769573+997450706+1000591252
1198+1001905272+999147461+996803383+998532120+1002094395+1004797714+1005472959
1184+1003360073+1001034200+1000931182+1002691715+1005840934+1009749166
1173+1011801964+1009148401+1004752816+1003724849+1006244089+1008894084
1161+1008043431+1005369941+1005338821+1007942566+1011529873+1015342651
1150+1018334237+1019758101+1020211688+1020815406+1020649777+1019108564
1138+1017593859+1016450942+1015946983+1017993754+1022314735+1023829686
1126+1020281679+1017609112+1018974733+1020131365+1018905726+1017766622
1115+1017751861+1017388991+1017658253+1020555923+1023455561+1024632858
1103+1027038747+1031327500+1034231812+1033535348+1029234909+1024180931
1092+1024049130+1029703811+1034713261+1034797643+1033207781+1034780545
1080+1037911928+1037500593+1035278476+1037029354+1042522835+1045865298
1069+1042692339+1036983104+1038309855+1045178674+1046934103+1045967762
1057+1048514617+1051216829+1052087101+1052361530+1053659743+1055582461
1045+1053744002+1049507404+1049062612+1052069389+1053847943+1055053532
1034+1058440523+1059383123+1054125077+1048285086+1046590668+1048472302
1022+1052268905+1055209259+1053921993+1048643159+1044439157+1045038938
1011+1047699451+1048698881+1047468198+1046591652+1049442088+1051281899
999+1046423871+1039675844+1036386275+1036451346+1036954074+1037883636
988+1041968444+1045498368+1045093799+1045119508+1046666071+1046001097
976+1042488517+1039483585+1039665266+1040277101+1039195626+1040699507
964+1046503949+1052818377+1054369246+1049355737+1044546788+1045610551
953+1051193088+1057483530+1058975602+1054603696+1049459185+1045925694
941+1043852538+1043505290+1044316643+1047487264+1052609880+1055512839
930+1056191713+1056016921+1055135824+1056422228+1057806054+1055860333
918+1054938644+1057252154+1061613481+1067297992+1068950833+1065031593
907+1062413640+1062668141+1060535696+1057586487+1060726972+1066369906
895+1066580494+1063825635+1065533214+1072576703+1073741823+1064849543
883+1058395748+1058697853+1058926399+1054982680+1049856989+1049274429
872+1052203589+1052258081+1048644266+1044170142+1041177019+1044040124
860+1051176114+1054446371+1053232417+1049833126+1043188794+1037279181
849+1035161251+1032310693+1025701725+1018735054+1015659332+1014657934
837+1012294667+1011832715+1014987838+1015286191+1007694215+999119784+997915364
824+1000309997+999857333+997262444+996408593+997343198+996794711+997892300
810+1003331966+1005167964+996907631+986465958+983501803+986047304+989348805
797+990197982+985676070+980586728+978498504+975639151+971592659+967800792
783+962244393+958356888+960981422+964854350+962392124+953856318+946499838
770+945931424+948063930+948397525+948796128+948451463+942397625+931874706
756+926412161+929178337+931348913+927081994+921071393+918700007+920054804
743+922775590+926331530+929329450+926464254+918274281+913406412+913592091
729+912155003+907451164+903954267+903518700+903991292+904129798+907443538
716+915338233+920336735+918536470+916074306+914568580+910557884+903747862
702+896741582+894078548+896366842+897386261+896115601+898636993+904463023
689+906212548+901280223+895438818+893686833+894223019+896010984+898481267
675+895372148+889179989+889160615+894319703+899295940+904002732+906002145
662+899782432+890177328+886169153+885657752+885746440+887763136+889972644
648+890166441+893018599+897232810+886904426+871221927+873556165+880768481
635+879595611+876084199+859002315+845512166+867477479+902202958+916790512
621+933012703+952963289+920900905+863944295+851427437+879149097+891539197
608+885609349+887114706+880077798+867519179+868529494
##END=
