##TITLE=Sample description
##JCAMP-DX=4.24
##DATA TYPE=INFRARED SPECTRUM
##DATE=25/8/2023
##SAMPLING PROCEDURE=Instrument type and / or accessory
##ORIGIN=Default
##XUNITS=1/CM
##YUNITS=ABSORBANCE
##RESOLUTION=4
##FIRSTX=4397.6552
##LASTX=599.8556
##DELTAX=-1.9287962
##MAXY=3.4884861
##MINY=1.2733123
##XFACTOR=1
##YFACTOR=3.2489058e-009
##NPOINTS=1970
##FIRSTY=1.6385369
##XYDATA=(X++(Y..Y))
4398+504335005+505813771+506355934+506076927+506525379+507308976+507957766
4384+507848644+506046253+504187759+504883919+507222309+507703306+505222074
4371+502753427+502394908+502132560+501464506+502106875+503105305+503857017
4357+505215066+506051096+504772632+501877036+499634339+500472241+503971276
4344+506161906+505258399+503592393+502625812+502115204+501618686+501200506
4330+501598506+502754308+504479902+507504508+510213048+509879480+507642067
4317+505483799+504040441+503318816+501811100+499419507+498780109+500974959
4303+504228158+506431117+507310444+508736153+510320373+509587998+508451275
4290+508703057+508292876+506451591+504049357+503157591+505261078+507846442
4276+508152051+506736395+505135187+504999353+506690273+507361226+505536195
4263+504176238+505608919+507576755+506856855+504451062+502873777+503207089
4249+504473078+504119879+502507920+502166903+503614372+505205563+505520344
4236+505045768+504141344+503177662+503028215+502955564+502782818+504322310
4222+507465358+509364616+508501250+506198158+504878049+505160945+504703064
4209+503596796+504356910+505665462+505954266+506279835+506079789+505047016
4195+505375631+507987890+509773733+507999338+505928655+506481091+507170573
4182+506079422+503848687+502146980+503086298+505378089+506781270+508124422
4168+509533363+509571633+507673439+505274544+504432202+505264490+506587755
4155+506976252+506325810+506011799+506246665+506029558+504570018+503068172
4141+503859108+505975804+506418311+506099750+507412338+508518312+507273385
4128+505686303+506092448+507822482+508390844+507295253+506457902+506301043
4114+506229200+506522920+506888154+507263991+508107177+508585715+508348794
4101+508742648+510821294+513075732+513093124+511898648+510726775+508479198
4087+506167117+505180759+504315999+503329677+502829710+502424372+502926174
4074+504525401+505548451+506461204+508201622+509055301+508818380+509942591
4060+511836528+511722269+510436650+509738766+509242395+508441479+507180260
4047+505812304+505363889+506319132+507834517+508381267+507628785+506921434
4033+506388077+505428944+506049335+508847881+511060416+511586288+510451180
4020+508147648+506864010+507125552+507629665+507283328+506412404+506680880
4006+508127834+509587191+510278947+509360250+507534082+506653287+506995442
3993+507606989+508045094+508302195+508746941+509519971+509652539+508972671
3979+508814197+509487755+509903624+509963322+510053071+509271675+507997467
3966+507906984+508445221+507808943+506812385+507268725+507814043+507584754
3952+508558490+510457014+511425283+511854104+511366576+508865310+506973243
3939+507950795+510201160+512094548+513268182+513313020+512484732+511754155
3925+512199157+513747785+513910111+511798222+510032083+509482361+508953738
3912+508680271+508726246+508618665+508015300+507745796+508839038+509729079
3898+510674892+512512948+513476594+512398542+511261233+512191305+514053100
3885+514667914+514221884+512968664+511186050+511184656+512767848+513845606
3871+513285574+512943860+515083269+516697319+514560369+511871203+511775840
3858+515017039+522247995+525376366+515300780+509353425+509326199+510548708
3844+511410900+512740880+514386008+513027408+509211170+508081199+509475096
3831+510872846+511752907+512554960+514177744+516093440+514552847+511755512
3817+510886166+509560259+509518136+512363611+516225642+517134579+515655372
3804+515725528+514001658+511444436+511839721+512028135+511866579+512902985
3790+514158920+514784228+514444495+513486427+513185001+512883832+512107867
3777+512573967+513948821+514785585+514465153+514079519+514823342+515233083
3763+514820113+514135804+512729505+511854031+513653706+517595689+519358710
3750+516793196+516930864+519406446+518357968+516881660+519149785+522524140
3736+523066010+519495168+516186528+516125839+518150474+519947545+519858860
3723+518447460+517128121+515834760+514440386+514549985+516563980+516936552
3709+515131152+515268637+516955925+517102620+515864408+517214678+520411627
3696+522084605+521025230+518636462+517390947+517352824+517046775+516885880
3682+517016981+517127938+517815805+518264036+516397728+514882636+512878438
3669+510341177+510860151+512365372+512284136+511726929+512522231+513326963
3655+512826299+513141668+513955132+510955330+505574172+503755636+504362047
3642+505464169+505511392+503939464+502881336+504314237+506948035+506352779
3628+500055014+496504023+497431343+498997217+498823443+497556684+498030893
3615+498807885+497404374+495245152+493511596+492069852+491134679+489717079
3601+488178211+487880674+487628856+486991624+487563104+489342122+490453490
3588+487915458+483154103+480998220+481409282+481973314+480845104+479394884
3574+479789104+480985195+481731072+482198567+480710958+478399023+478656748
3561+480377976+480790249+479279341+477711449+477710825+478312796+477581082
3547+475503683+474077313+474126224+474359035+474443170+474689155+474988049
3534+475008450+474766575+475067304+476124367+476258697+474544294+472998308
3520+473119502+474099879+474675065+473801719+472268318+471968836+472670427
3507+472676407+471675483+471241451+472227809+472980145+472825781+473518052
3493+475518433+477239148+477863244+477670574+477085004+475638490+473555698
3480+473046044+474481330+475773004+475167583+473077819+471702195+472174606
3466+473481947+474048803+473849639+474168310+475630491+477345555+478055034
3453+477913109+476758995+474278459+473063069+474700713+476663191+477651494
3439+478760881+479336874+478121410+476289445+475721965+476608116+477982567
3426+479224559+479847995+479924242+479960200+479237401+478181218+478520474
3412+479468048+479795342+480215100+480105317+478882735+478760220+480665239
3399+483009169+484602599+485602166+486742117+487392632+487054551+486820712
3385+486740760+486683740+487635314+489354891+490934083+492842038+494990252
3372+496524937+498105121+499660611+500294174+500978188+502859357+505602572
3358+507643315+508629012+510258070+512503922+514476087+516887458+519165672
3345+520119264+520998995+522490860+523913414+525260970+526168440+526795985
3331+527912160+529976313+533262020+536028093+536699412+535529704+533239381
3318+532722389+535441129+537774602+537835584+538658479+541287911+542988958
3304+541969651+539224712+536910025+536462014+537489101+539108471+541466638
3291+542565714+540401942+538528479+538086559+536063501+534495243+535639413
3277+536303835+534886307+533554163+531769384+528045206+525905687+527498750
3264+529213116+528898261+528283594+528906700+529375259+527334883+524420206
3250+524051597+525755763+526056272+524985962+524617170+524235755+524009107
3237+524676611+525176798+524431581+522977912+522679972+523319736+523632463
3223+523624978+523543264+523928972+524430223+524569250+524726402+524753004
3210+524923989+525539463+525280490+524203869+524472933+525290654+524948279
3196+525301588+526483295+525692689+523231895+522267956+523090336+523345273
3183+523738320+525326098+525829404+524552738+523202908+523311663+525000969
3169+526218928+525743251+524041066+521823137+520646824+521110319+521739405
3156+522138946+523310966+525283499+527293934+528148787+527898107+527946907
3142+528208779+528255341+528844691+530199327+530264236+527992259+526228761
3129+526074214+526625954+527687714+527852645+527792103+529474768+530845219
3115+530082390+528509398+527267846+526841116+526992141+527423751+528267780
3102+528871879+529377901+530455805+531140848+530907302+530220535+528772994
3088+526981354+526662646+528221842+530051788+530980320+530753159+530015426
3075+530158526+530522255+529683986+529198329+530432029+531586804+530905468
3061+529567929+529471759+530416068+531469426+532332792+532282523+530900954
3047+529765149+530167625+531092487+531932921+532507189+532133700+531511181
3034+531228615+531096413+531253676+531207004+530889176+531514777+532767593
3020+532442941+530558433+529480345+529954334+530787943+531419561+532578739
3007+534522762+536086544+535806766+534117827+533183205+533832142+535266988
2993+536888010+538170143+538489035+538002020+537796250+538730395+540508900
2980+542194904+542687055+542083836+541753901+541603096+541525345+542816652
2966+544478292+544320222+542706208+541069336+540541629+541443045+542708777
2953+543463607+543681265+543425264+542873121+542490202+542546708+542610002
2939+542568246+542952303+543412826+543911141+545722375+547985913+548080615
2926+546712953+546176954+546459080+546621259+545624884+543615293+542710061
2912+543372171+544278283+544733669+544054865+542595765+542306484+543772078
2899+545081510+544730477+543900574+543666295+543443097+543246023+543443464
2885+543882852+544890675+546610985+547838007+547526234+546443302+545828672
2872+545595861+544744970+543703244+544173087+546183485+548284000+549582975
2858+550277190+550651964+550086868+548732561+548001471+548113088+547770017
2845+546737500+546239661+546298001+546369331+547016287+548105566+548874046
2831+549166409+549207908+549832702+550732136+550387597+549186443+548228705
2818+547781685+548289284+549487539+550529559+550956178+550580304+550186671
2804+550339200+550369948+550582028+551713100+552928380+553321573+553083771
2791+552756661+552493542+551923566+551222526+550975625+551055761+551468033
2777+552362771+552922766+552751708+552606333+552789134+553160128+553943762
2764+555140219+556058109+556202676+556103754+556324604+556722971+557269133
2750+557832174+557747966+557159607+557091507+557509834+557394400+556918210
2737+557192814+557832321+557579842+556952627+557449475+559264231+561170791
2723+561624013+560611530+559600515+559300703+559679513+560311535+560300381
2710+559616806+558984417+559118857+560053479+560869035+561444295+562086957
2696+562225764+561341630+559874128+559659846+561480913+562915062+562507082
2683+562380421+563737039+564836813+564528782+563718620+563165046+562702064
2669+562304321+562403904+563077168+563760742+563796517+563620065+564402818
2656+565465422+565594395+565609329+565928734+565699335+564773592+563727353
2642+563271746+563668572+564017404+563516153+562999858+563292991+564048519
2629+565033703+565783983+565425831+564478110+564431621+565433170+566185726
2615+566230563+566425142+566729613+566757095+567380385+568262904+568113090
2602+567756553+568165523+568961706+569516748+569265553+568714107+568777071
2588+569271607+569550504+569061839+568161744+568214470+569291935+570208835
2575+570385140+569785921+569220679+569534727+570057993+569938377+569396874
2561+569249225+569901281+570849589+571482382+571646616+571178608+569975473
2548+569035053+569467323+570640224+571318295+571544282+571953399+572299516
2534+572144271+571902397+571874658+571631279+571154758+571188588+571551730
2521+571505498+571794118+572803409+573273288+573104688+573261143+573567229
2507+573544076+573353607+573438183+573953671+574670048+575646939+576468916
2494+576155272+575095933+574202663+573464675+573304880+574065949+574759980
2480+574710666+574238145+573991060+574777739+576147567+576460954+575499657
2467+574611304+574996645+576866806+578560001+578134813+576515846+575954750
2453+576439966+576182901+575087274+574811056+575588599+576440076+576786707
2440+576347062+575547247+575372115+576233500+577208446+577249652+577279886
2426+577924897+578130043+578037982+578351003+578621167+578607481+578902742
2413+579503650+579214992+578151104+577816252+578281251+578722951+579030248
2399+579474149+580053334+580899822+582050964+582417409+581655386+581133881
2386+581309636+581394028+580977096+580252683+579736424+580157320+581593780
2372+582425077+581332899+579880368+579413093+578448494+576811144+576894215
2359+578495350+579112548+578338931+577149776+576748217+577735309+578952240
2345+578763899+577704597+577750866+578581760+578708714+578097827+578574825
2332+581648598+584987986+585410056+584320299+583455502+582058266+580543468
2318+580334176+581072825+581315214+581280429+582064357+583364873+584444135
2305+584374237+583137051+582685665+583453778+584032706+584036963+583831523
2291+583921383+584632072+585213533+585096045+584944983+584834063+584620221
2278+584984354+585794002+586421291+586257864+585376776+585380298+586208990
2264+586351906+586185654+586377114+586482383+586241500+586296097+587352354
2251+588512816+588214766+587049387+587111103+588163837+588247605+588114046
2237+588922007+589117062+588494984+588760488+589490918+589403848+589400949
2224+590055977+590106943+589576301+589574393+590331462+591278522+591236693
2210+589963219+588596548+587981551+588300956+589430303+590906134+591919277
2197+592161335+592098885+592032582+592211457+592313938+591411605+590388738
2183+590775730+592005137+592921596+593341611+593312331+592695059+592038196
2170+592267742+592806310+592699022+592488152+592797467+593243900+593373717
2156+593481702+593770432+593880142+593883701+593793144+593303451+593003053
2143+593477445+594299569+594814690+594763872+594878388+595522078+595621073
2129+595142351+594831862+594613140+594878755+595604048+595705318+595213974
2116+594953386+595239182+596093007+596822264+596912820+597019741+597118406
2102+596639097+595794077+594862720+594299312+594311201+594305990+594370422
2089+595119859+595844015+595669140+595373255+595163632+594516200+594671334
2075+595892191+596139276+595427192+595609442+596510454+596752659+596508729
2062+596562300+596821933+597414952+598274538+598442882+597901599+597661156
2048+597936824+597918074+597252993+596793167+596943054+597313461+597663211
2035+597543154+597385561+598259568+599515760+599919997+599538032+599166157
2021+599339197+599811792+599857914+599408252+599295057+599454924+599185017
2008+598744455+598337062+597935136+597913524+598487940+599738738+601015111
1994+601051803+600080122+599667922+600092670+600626064+601166979+601695603
1981+602066781+602225364+601991121+601501868+601206423+601292833+601279110
1967+600514630+599812159+600290257+601450573+602527340+603090601+603061908
1954+602898334+602601348+602260882+602389965+602732376+602526276+601961731
1940+602170729+602983240+603520706+603880876+604383008+605035504+605642356
1927+605980474+605660849+604341913+603196898+603143291+603562792+604425168
1913+605281855+604842724+603308993+601906619+601735524+602901857+603836442
1900+604311679+605348415+606610441+607780370+608702626+609068043+609014326
1886+608390046+607366703+606445400+605781052+605797930+606346037+606700777
1873+607068836+607143358+606176850+606010671+607651654+608873428+608740970
1859+608588367+608922706+609061769+608973561+608353171+607120608+606702942
1846+607490795+608256047+608813180+609266805+609290618+609255834+609477014
1832+609347748+608639626+608695215+609557810+609884994+610003583+610334436
1819+610698312+611239888+611567035+611237246+610733499+610647713+610731518
1805+611123390+612206212+613153456+613225959+612665340+611758971+610548204
1792+609181275+609254329+610557120+611402911+611495485+611257353+611216478
1778+611887357+612953594+613085208+610713796+608868805+610129290+611808396
1765+612718691+613073834+613316589+614148033+614723402+614641175+614764718
1751+614206116+612384499+612065791+612906298+613173783+613754950+614977202
1738+616303035+617501400+616219304+612462323+611276249+613263532+615466601
1724+615451594+615026699+616020873+616205801+613650267+612208230+612806899
1711+613859119+614808308+615115714+615217975+616724554+617959245+615338069
1697+612399176+612391140+613819968+614659631+614395888+615098469+617105859
1684+614841257+610256538+610050439+612400753+614082537+612846012+611292908
1670+612364098+614331787+614530402+613400761+611480441+610565229+611584867
1657+614052707+616799186+614146565+609645431+609352444+608816005+606805900
1643+606199673+606537754+606720040+606417330+604802986+603258064+603911257
1630+605495404+606639978+607518755+608021510+608329431+610324822+613972571
1616+616830595+617294237+617371730+617791195+618308994+618998513+620210234
1603+621626037+622395397+622556256+622682036+623660542+625927749+627635841
1589+627451060+627157082+628387370+629735219+629667632+630022371+631759010
1576+631696780+630886471+631930949+632011672+630492177+629904076+630681142
1562+634474815+642423505+643780894+634810621+632080727+633557365+635471814
1549+636538527+637155762+638489742+641991933+642746470+634791688+631748883
1535+634179223+637158111+638274506+638304006+637773952+637878891+640185285
1522+643214661+644423447+644619603+644857588+645479740+646552985+648472571
1508+651198503+648985600+644883420+644672440+645947345+647803820+648341800
1495+647097056+647424130+648860260+648161935+645736071+644620777+644980287
1481+645979267+647087516+647422002+646111212+642844511+639368518+639509710
1468+642050713+643321949+641589273+640412116+642387254+645981762+645374947
1454+643445602+644277192+645861412+647554900+650049525+651756810+651359214
1441+651002420+651715715+649822915+646307882+647000115+650298371+653033697
1427+654431447+655171380+656234131+657658593+656878152+654100117+654185096
1414+656449881+657410922+655565087+652691432+650298738+648824742+647884469
1400+645368563+642119695+641469510+641917521+640801786+639071899+637624321
1387+636559662+636141518+636631799+637572365+637690073+637369237+637546240
1373+636740848+635070035+634699371+635981688+637373347+637122079+635362178
1360+634232427+634587973+635452073+636256805+637996526+640255661+640960810
1346+640259110+639843021+639744099+638346202+635463961+634245122+635474969
1333+636304725+635588862+635457137+637605902+641151096+644495437+646482316
1319+646431314+645739887+645823032+645652046+644696143+644365620+645505204
1306+647762064+650534815+652958991+654505345+655190020+655718167+657393896
1292+660339174+663813112+666970617+669365513+671836728+674496247+675539184
1279+674134976+672936391+673825662+674447447+673117797+671680713+672101351
1265+674099679+675449068+674937653+674459482+675441730+676216741+676318525
1252+677296664+678179037+678237964+679852932+683169020+685472406+685732186
1238+684896486+684420809+684966421+686509692+688816967+690059363+689228359
1225+688381138+688919118+689452548+688763030+688170232+689194529+691349678
1211+692866018+692411475+690840318+690499742+691820438+692615190+691651948
1198+690060537+689219773+689664702+691025980+692255020+693578138+696565906
1184+700239596+702785149+704095939+703854578+703691738+705114879+706995572
1171+707763538+705498459+702392470+702087338+702082495+700281131+700040137
1157+702740605+705784144+708254258+710864904+712900804+714299728+715215857
1144+716025066+718017742+720553315+721509219+720146033+718024200+717343707
1130+718472137+718862835+715870592+712923846+714530595+718799064+722368989
1117+725176304+727496568+727837511+724469393+718711664+714916303+715799042
1103+719899241+723765271+725689333+727317657+729828867+733573152+740044251
1090+745335843+743327830+738932699+738498484+739049527+737940177+738402791
1076+740651065+743448400+746116505+746168975+745988963+749707051+753769017
1063+755883952+759911133+762815389+759113080+755028584+753608159+749740441
1049+744321966+742318869+743199994+746342015+753211076+760356282+763839026
1036+765591810+767642900+769115209+766452901+759710721+752991217+749496585
1022+748575612+746357059+742337142+740383579+741918852+745168821+748720546
1009+752470262+755177041+754888494+750773104+745098078+739560868+734269202
995+732130197+733877624+734821492+733192508+731041395+730141557+732227065
982+736023306+737141609+737354350+740594192+744650214+746943693+747768385
968+746301067+743955265+743219221+742036340+739197690+738062068+738816678
955+739396708+740729146+744085963+748495843+751714771+751850385+750028841
941+748910244+749627649+751468567+750608063+745960784+743009122+744832941
928+749895208+754347652+753451777+749114033+748846914+754114583+758496285
914+759446024+760539963+760591993+758165835+755351916+753006921+754323875
901+760744779+766615447+766423327+760535193+755538605+756300260+763151196
887+769877084+768804133+763711118+762395705+762994080+761246287+758071757
874+756202439+756976717+760576435+763341261+762679849+761533293+763531840
860+767621032+766080402+756500673+747963734+743076415+738684293+739124379
847+746897828+754395939+756493848+755497657+751960388+747594538+746406226
833+745664238+742960688+742645576+744374656+744137258+743625183+744152155
820+743752578+743403929+743451042+740040435+733559209+728814182+728304455
806+733388591+741836588+742387924+732076627+723814512+721049099+717232163
793+713581002+712915481+709408813+702089906+698932695+702074643+704889443
779+702970958+699922282+697238399+695011480+696374886+696937157+689308935
766+678626461+673322833+674325996+678240459+681861019+683014913+681598817
752+681607036+687496270+692320112+685768878+674976400+667783641+663192134
739+661262935+661738245+664978234+673203216+680768694+680105154+678227617
725+682799604+689351571+688093472+680169658+673723878+668946855+664153835
712+659936148+654227218+648839272+647154443+650378360+654777674+658546103
698+666606558+680349523+693384037+709555582+726878232+730558967+714687270
685+691952163+666913817+651926548+648414671+646643028+641970871+641651356
671+653223615+705335839+815585797+940309628+1073741823+991778933+820477519
658+722580189+657846971+625460805+595559724+579105577+577517174+595715592
644+625951893+636784952+628655075+616778492+610884121+617036144+604631120
631+541579393+503303296+480214183+459383544+432033888+409984190+397849000
617+391920358+393021379+399467013+412033886+434847771+457151562+465829362
604+472022407+480939366+485570941
##END=
