##TITLE=Sample description
##JCAMP-DX=4.24
##DATA TYPE=INFRARED SPECTRUM
##DATE=25/8/2023
##SAMPLING PROCEDURE=Instrument type and / or accessory
##ORIGIN=Default
##XUNITS=1/CM
##YUNITS=ABSORBANCE
##RESOLUTION=4
##FIRSTX=4397.6552
##LASTX=599.8556
##DELTAX=-1.9287962
##MAXY=1.9406458
##MINY=0.61657363
##XFACTOR=1
##YFACTOR=1.8073673e-009
##NPOINTS=1970
##FIRSTY=0.73013681
##XYDATA=(X++(Y..Y))
4398+403978112+403681567+404032757+404559724+404666740+404601112+404524239
4384+404411023+404233070+403854244+403564690+403858300+404052775+403280810
4371+402065445+401073742+400990141+402211376+403559249+404061218+404008848
4357+403900645+404100661+404497230+404761290+404657308+403923037+403215281
4344+403542694+404093735+403593910+402620411+402245344+402851262+404090734
4330+404519160+403417276+402246795+402136778+402698406+403618380+404346055
4317+404142313+403820935+404128890+403952520+402847436+401953318+401795547
4303+401985538+402442062+403376712+404539014+405529991+405839331+405020206
4290+403821298+403033107+402479427+402392429+403143256+404028767+404461711
4276+404825302+404948543+404426820+403827762+403489070+402992444+402150926
4263+401748619+402263614+402518177+402235352+402676871+403609476+403850055
4249+403316229+402736001+402735012+403128679+403294430+403211587+403185303
4236+403241136+403480826+403764706+403680380+403471592+403317218+402937633
4222+402668263+402966819+403784757+404858907+405221409+404384508+403689812
4209+403859850+404277130+404419598+404093339+404063823+404542377+404490403
4195+403904371+403263925+402444140+401467871+400953370+401690148+403155787
4182+403892103+403717514+403308215+402934830+403149620+404148941+404844298
4168+404652757+404308723+404038990+403299245+402523750+402308564+402127049
4155+401923505+401717982+401202557+401534356+402980539+403638431+403040164
4141+402240068+402063038+402592445+402709816+402328253+402661305+403237245
4128+402904127+402301606+402551453+403220591+403197341+402469434+401752807
4114+401564466+401813191+401973896+402142846+402539844+402543703+401967466
4101+401738527+402224172+402623082+402780951+403156480+403280348+402754832
4087+402273937+402448196+402703781+402347941+401654300+401037565+400920029
4074+401560541+402541295+403309007+403301421+402616783+402130248+401894319
4060+401632171+401789183+402389560+402778313+402725151+402577440+402364496
4047+401886305+401725039+402172857+402348666+402061785+402050440+402293229
4033+402345533+402145452+401591310+401090265+401264326+401580691+401423053
4020+401424009+402226909+402897168+402427057+401690840+401689917+402203659
4006+402873424+403507209+403783240+403690471+403576002+403474659+403258582
3993+402984397+402805949+403125546+403958951+404547126+404580270+404366700
3979+404011882+403911890+404622878+405374265+404654208+403004019+402370202
3966+402981198+403775853+403910340+403289681+402978428+403334499+403273258
3952+402772014+402665889+402697087+402694316+402741245+402519265+402219126
3939+401984087+401900090+402220280+402458024+401854942+400852158+400424886
3925+400718760+401228314+401442972+401412368+401623498+401853161+401925121
3912+402621829+403902096+404277031+402649795+400040750+398965413+399864842
3898+401609251+402896410+402420791+400453644+399976508+401124629+401540061
3885+401672834+401889603+401252784+401472521+402760010+402986706+401704856
3871+400258410+400230741+400641622+399569715+398708575+399858213+401229105
3858+401280387+399093503+395452059+396603643+400628299+403156381+403669992
3844+402555212+400330963+397602700+396089835+397445589+399745657+401278672
3831+402187730+402712488+402767859+402118640+400077060+397941193+398464071
3817+399493501+400741977+403192427+404822301+403947277+401333780+400206369
3804+399888784+398645784+399235146+401421602+403337434+404778835+405573622
3790+405844608+405797712+405563003+405655541+405586648+404291245+403422222
3777+404553425+405710055+405451535+404267962+403625075+403885540+404799018
3763+406137063+406361483+405247297+405007905+405559012+404708590+402289404
3750+402729604+406117144+408863809+411278675+414748201+417931537+419058782
3736+417436526+416177597+418829943+423032618+425289747+424494597+421911243
3723+419518340+418009169+417338250+417308338+417426567+417133683+418138148
3709+422422611+427826568+432737494+437630315+444477224+453066067+461294520
3696+468799947+474847682+478086456+479236094+480641745+481761933+480536873
3682+476582495+470798259+463426264+453321916+444973190+441460727+437970623
3669+436144393+436930969+436386226+434023302+431567937+429155677+425684008
3655+422721926+421334016+419112109+415930520+416147949+418686156+420379184
3642+420862718+420981672+420911031+420453848+419806080+418284376+413663333
3628+408376515+407715787+407477977+404704864+399793608+395066307+392560750
3615+390880088+389630360+389146002+388119275+387051128+387380783+387769239
3601+387127803+386228441+385218732+383700194+382121800+380241189+377121666
3588+373688846+372271619+371937611+371180650+369820180+368184369+367025135
3574+366475380+365703084+364360158+362224028+359468129+357948239+357561234
3561+357137523+356601520+356060801+354964292+353228194+352172974+352396108
3547+352744462+352137687+350988411+350052212+349634207+349624412+349256435
3534+348435793+347284671+345988311+345982738+347195068+347376319+346190503
3520+345516583+345612585+345386087+344982065+344824525+344619661+344065553
3507+343454589+343229939+343268985+343298567+343001957+342468130+342373514
3493+342419948+341836687+341150004+341352592+342349803+343134993+343091329
3480+342440890+341679906+341442163+341670012+341747446+342064174+342676292
3466+342661188+341890244+341144629+341234100+341928335+342286088+342362005
3453+342669399+342955556+342859225+342431491+342001943+342071067+342802139
3439+343702260+344148594+344065157+343848850+343819697+344104171+344666821
3426+345151014+345320987+345600646+346392003+347230718+347636224+348048953
3412+348787115+349348545+349674540+350205134+350921135+351808328+353064718
3399+354525741+355642763+356164354+356513005+357128520+358229976+360078301
3385+362427506+364549456+366372882+368063700+369402438+370779629+372800894
3372+375496475+378453710+380856769+382925788+385919826+389766166+393329351
3358+396356105+399296717+402428046+406087760+410148890+413668609+416642696
3345+420293538+424683104+428408148+431222650+434377229+438064579+441188092
3331+443632935+446049484+448126450+449620188+451348602+453502145+455030148
3318+455681675+456491731+457472716+458082261+459011074+460353637+461391378
3304+462126408+462298260+461717439+460634583+458793810+456499382+454584737
3291+453018677+451061522+448202169+445205492+443269939+441813104+439776801
3277+437857440+436458746+434671399+432444149+430627055+429499084+428589828
3264+427290928+425394026+423593652+422791741+423045546+423865100+424010602
3250+422837945+421451651+420395937+419557222+419018086+418442113+417835800
3237+417215140+416265683+415433696+414990495+414378608+413639555+413339086
3223+413204071+412680040+411873149+410924814+409992110+409099871+408439142
3210+408884618+409784377+409696192+408961855+408436636+408493194+408806921
3196+408770908+408672763+408846066+408819255+408306798+407541033+406871070
3183+406774904+407024026+407207189+407801367+408691561+408811900+408236422
3169+408355739+409046082+408977454+408674049+409420589+410757084+411260075
3156+410632622+410184178+411182740+412492061+412217513+411229042+411546132
3142+413321838+414277627+412838832+411249027+412352792+415094081+415768859
3129+413793236+412674103+414734580+417281065+416520180+413955096+413857610
3115+416829784+418424239+416231748+414184265+415869905+419334979+419543041
3102+416329629+414918338+417781418+421355584+420545199+416677917+415416514
3088+418867077+422300029+420309269+416236563+415664778+418403297+420279522
3075+418799141+416878988+417797247+420398311+420592985+417650591+415403257
3061+416079485+418709702+420106351+418658256+416649423+416220370+417079861
3047+417433657+416775039+415972403+415711641+416497457+417575466+417678986
3034+416998701+416730023+417296598+417735148+417507826+417424258+419490276
3020+428082285+443878066+455486705+452998296+443193692+434982421+429849516
3007+426714164+424451923+422775351+422414135+423081163+423350071+423178483
2993+423621321+425386474+427693994+428103952+426697344+426432327+428488781
2980+431065045+431493010+430010815+429002029+429395663+431039816+432242616
2966+431360930+429832268+429720569+431824017+434005526+433050792+430851310
2953+430615347+432313553+434579191+434966592+432824459+430920532+431647515
2939+434477385+435893096+434275918+432555221+432686443+434232716+435502364
2926+434141893+431537993+430777042+432075315+434187733+434687097+432573953
2912+430422422+430185041+431587329+432750884+432065487+430892467+431084634
2899+432431617+433697835+433738893+432741023+432083527+432458396+433727449
2885+435032516+434963558+433969085+433781633+434406382+434918904+435052072
2872+434911055+434807107+435086502+435654198+436023328+436031144+435882377
2858+435713889+435785486+436039356+435777274+434734685+433711752+433843864
2845+434960161+435684736+435683648+435721309+436219651+437042008+437831518
2831+438335829+438372534+437979923+437784886+438392321+439453642+440078853
2818+440091055+440022228+440105302+440214428+440560639+441338211+441994586
2804+442137351+442297990+442720909+442962247+443120809+443632935+444291355
2791+444597794+444446586+444369746+444826204+445561069+446316908+446904457
2777+447067306+447123633+447290110+447279029+447220756+447384957+447695385
2764+447999152+448193595+448504980+449116141+449695610+449950601+449826733
2750+449549514+449676252+450276728+450884163+451209630+451222887+451358825
2737+451930643+452334204+452300500+452371964+452720681+453222881+453765348
2723+454056121+454127718+454365462+454902652+455597151+456178763+456430259
2710+456444934+456631792+457273261+457961460+458211769+458166522+458082426
2696+458045523+458131598+458431539+458833022+459014306+459000191+459148562
2683+459543021+459868850+459925376+459839103+459833860+460055938+460258362
2669+460294770+460464940+460693219+460836775+461113269+461494602+461841208
2656+462194080+462570433+462870474+463011293+463133083+463422999+463735143
2642+463842224+463922660+464216302+464638924+465042155+465404360+465748658
2629+465969648+466011960+466099551+466385048+466730236+466997661+467298690
2615+467860944+468607648+469015958+468899180+468833190+469109255+469350956
2602+469414571+469582961+469903514+470170246+470456303+470822730+471150769
2588+471581306+472064180+472070611+471626553+471431088+471616923+471917293
2575+472310300+472530763+472444095+472506820+472981978+473556764+473723867
2561+473379371+473005327+473009053+473293033+473579387+473805324+474030998
2548+474190944+474344955+474608653+474744525+474683514+474846066+475339923
2534+475814948+476203503+476532169+476664051+476744090+476941963+477270793
2521+477569251+477494884+477241244+477249390+477571130+478130449+478638420
2507+478870162+479135278+479598563+480004630+480307836+480566818+480700612
2494+480918371+481563665+482291670+482412867+481996676+481748808+482107550
2480+482641179+482743775+482664363+482864610+483282054+483498625+483386465
2467+483328917+483416673+483459414+483480487+483585095+483871746+484282265
2453+484514403+484407321+484329161+484739482+485514977+486230978+486683215
2440+486867632+486864960+486711675+486467435+486325956+486265803+486163833
2426+486177750+486404017+486668605+486926268+487362213+487896699+488244856
2413+488535959+489013556+489383380+489384369+489394559+489706703+490063335
2399+490286436+490869170+492529219+495877680+502298932+513513376+529879919
2386+550401121+573613781+597675709+620893052+643163181+665816786+689282855
2372+712266511+734003704+754841039+774222167+790995667+803877020+809995561
2359+807670825+797005378+779450150+759977144+741776984+729979113+732052815
2345+744955208+750121521+741977297+732811853+726984185+724905998+728062852
2332+732618202+732204781+728210993+726157804+726978512+726655915+721493691
2318+711181511+699745285+695390710+699988932+703746395+698048135+683670208
2305+666354009+652837486+644761791+638288795+630846621+621559024+609782920
2291+597264530+586113834+576373440+567756432+560371839+554005298+548626173
2278+544219393+540176005+536411947+533509062+531396577+529526091+527604289
2264+525737859+524157024+522745008+521402312+520364769+519589572+518662837
2251+517663846+517044571+516615980+516073612+515666721+515433990+515116438
2237+514671291+514264070+514129847+514305096+514646096+514992306+515073665
2224+514941651+515021558+515343068+515731953+516246552+516771607+516933301
2210+516619542+516435290+517037613+518010782+518677611+519123088+519486711
2197+519804890+520216926+520740001+521346809+521840303+522136122+522465051
2183+522727298+522688449+522645148+522913991+523178744+523127033+523074465
2170+523375264+523834756+524078040+524076095+523949192+523663663+523274184
2156+523095736+523290146+523657397+523940420+524033519+523954898+523821433
2143+524010071+524579548+524973742+525131842+525518320+526117246+526444758
2129+526486575+526772302+527364171+527920687+528280847+528595365+529050603
2116+529421284+529586310+529684026+529707737+529888461+530354021+530668737
2102+530667220+530671936+530996842+531595274+532081479+532414333+532730401
2089+532968112+533272538+533799736+534230636+534285611+534365816+534709816
2075+535046661+535370611+535867765+536491129+536882058+536988975+537296073
2062+538105173+539251678+540295553+541027548+541576743+542081350+542671010
2048+543411612+544147895+544672224+545104410+545662574+546405915+547134118
2035+547540316+547885834+548535878+549277074+549735742+549756321+549508255
2021+549339536+549332050+549219658+549047444+549166761+549459414+549696695
2008+549899778+549918774+549753287+549572893+549284626+549210985+549645513
1994+549933120+549771326+549693694+549888335+550208393+550558363+550811244
1981+550979337+551194951+551437411+551617574+551797341+551950395+551921934
1967+552045604+552759428+553581390+554068485+554416081+554636775+554798436
1954+555206053+555775464+556185455+556357274+556516693+556875106+557419189
1940+557929501+558376824+559068850+559893581+560464773+560805575+561023234
1927+561081607+560914273+560837498+561241949+561896115+562779153+563744308
1913+564188531+564235888+564397814+564711705+565139439+565719271+566147664
1900+566173849+566072869+566224571+566548422+566527843+566322452+566930051
1886+568107523+568874608+569388087+569933357+570209059+570318746+570634088
1873+570794431+570103131+569037127+569438016+571123558+572489339+573045030
1859+572959088+572778430+572962913+573276541+573599402+573815017+573366770
1846+572440135+572447192+573668592+574663493+575198078+575733059+575980663
1832+575101912+573484241+573258468+574324142+575083049+575631485+576395469
1819+577284114+578102118+578461388+577993816+577362405+577862824+578963390
1805+579410449+579121160+578430256+578141033+578764001+579102032+578297352
1792+578005556+579645983+581338187+582154410+582517506+582689061+583073659
1778+583802686+583724395+581814597+579493754+580353443+583238948+585151186
1765+585490339+584958260+584984181+585676273+586031717+586232690+586042534
1751+584610533+582923935+583246995+584910177+585948743+585728247+585390017
1738+585571071+584790728+583242708+584488775+587435885+589745846+590777552
1724+590665556+589979203+588236542+584666926+582940623+586266262+589663135
1711+590912896+590303186+588416144+587314391+587671419+586572832+583872073
1697+583612069+586201953+589188572+590364395+589957701+588702663+585599234
1684+582504578+584701092+587772070+588811625+588094668+587033215+586150770
1670+585188913+586163302+588038076+588054895+587118630+587532513+588257846
1657+587322438+583393882+578780754+580179381+581163861+580386157+582861408
1643+587092972+589530759+589451808+586806387+585376694+589728037+594163344
1630+595976646+596698814+597861247+599714255+603342837+607093572+608355074
1616+609372071+613453978+617653817+620074850+621407388+622749160+624048324
1603+625209372+626786414+628670554+630176824+631281083+632466404+633996418
1589+635782479+637463668+638764085+639735308+640632263+641043903+640058367
1576+639960618+643257632+645912682+646339954+647056252+649130283+651052876
1562+651359908+647792205+644215993+650562351+657650993+662552421+666077780
1549+669044413+671092457+671040482+668240721+665166644+671451793+681139751
1535+686060175+689136957+693471547+696761503+698287692+699660398+700747772
1522+703019280+709228974+716021071+722110920+728484980+733840525+735922735
1508+733959578+736732098+748410718+757159245+761907783+765241206+770549064
1495+776785140+780720952+782904670+785895312+791920984+799364213+806266724
1481+812502339+817778867+820988421+821633089+821573265+826187911+834712776
1468+841825493+846649157+850887119+855365760+858336945+856835886+856695132
1454+865940912+876101851+881801364+883436779+886805224+893775671+899277312
1441+900956324+900264496+898905312+900854288+905756771+908614311+909997042
1427+912584024+913395564+912217829+911423371+909582302+908491168+909257725
1414+907773156+904111199+900918728+898530740+895620236+892219801+889082800
1400+884591100+878683029+874061063+871886314+872382842+872614484+869431181
1387+864490706+861858873+862056548+863648430+864947989+864624798+863135017
1373+863111998+864995940+866530967+867439531+867127684+863921890+860513276
1360+860862982+863335990+866034704+868606252+869728122+868613837+866962329
1346+866772372+867963760+868015999+865601561+864372972+866665389+869983904
1333+872198821+872264580+871514842+872215508+873386648+873474833+874146939
1319+877221940+880981579+882701024+882659207+883354002+886652929+892019554
1306+897224321+901192715+904297793+906717375+909253504+912532314+915650781
1292+917651401+918964482+920699558+922972319+925571437+928146085+929712640
1279+930665790+932493075+935010670+936829314+938168316+939629075+939944615
1265+938603964+937503267+938221279+939666143+940961942+943337663+946278968
1252+947726404+948120433+949415969+950987603+951289424+951183298+951086143
1238+950635192+951169843+952804994+953369853+952705794+952710608+953471493
1225+953528283+952410568+951461771+951978679+953051411+953773446+954571004
1211+954841033+953800753+951788458+949738897+949076486+950011499+951350303
1198+952043713+951375894+949503627+947565138+946799900+947403806+948337961
1184+948977154+949606982+949751099+948445142+946999685+947707144+950964781
1171+954823555+955198852+952478372+953159185+957518905+959288279+958597902
1157+959623079+961789846+962957556+963230752+963692652+964025209+963352971
1144+963644898+965599876+966993227+968288235+970852660+974607484+978082319
1130+977784323+974671529+975005537+980359565+984959238+984227309+981065969
1117+980358642+981751992+981425569+979529029+979221140+979962370+980488644
1103+982324041+985586955+987665669+987019484+986385897+988841426+992979661
1090+996772279+1000931158+1005312248+1006597758+1004663029+1005233693
1078+1009489398+1012736416+1013096609+1013253918+1017525782+1024498142
1067+1027577364+1026654092+1025868275+1027319405+1033201290+1040691547
1055+1041658681+1037252329+1034969740+1035807729+1036831059+1036128282
1043+1035559598+1036603176+1037479552+1039475820+1042556097+1043099191
1032+1042012674+1042165497+1043190080+1045273016+1051221122+1057818513
1020+1056442708+1049182642+1045651347+1047897000+1050929788+1050622888
1009+1046782319+1042873023+1044319535+1050622690+1053204660+1049616510
997+1046891083+1047245143+1046926172+1044480669+1041441021+1039802243
986+1040810600+1043401210+1045169924+1046373581+1049040965+1052094003
974+1052724556+1050399359+1047821281+1048527157+1051156220+1051894943
962+1051308120+1050711733+1049860289+1049770323+1050983214+1052345762
951+1053943647+1055999803+1056093001+1055494174+1058485673+1061790206
939+1060980512+1058954630+1058095205+1058122313+1059036747+1060263225
928+1062825803+1067174376+1068548533+1065627609+1062553993+1058388056
916+1052952307+1051894481+1056214297+1060631268+1062736431+1065916172
905+1071159260+1073741823+1072493909+1071184126+1070834881+1070508128
893+1070199448+1069463627+1068465823+1067166989+1065293534+1064772537
881+1063765301+1059201904+1055126593+1054142047+1053342181+1052502675
870+1053464664+1053199383+1048890055+1042765380+1037685867+1036225504
858+1036606210+1035582023+1036085278+1039151243+1038985888+1032903228
847+1025949469+1020156824+1014981870+1012315278+1009509845+1005045253
835+1000973701+995649749+989090020+984440021+983032886+983470579+982484911
822+978115694+974214840+976101288+982963037+988206916+983388000+969978724
808+958750000+953186887+951234218+952946077+955875641+954842418+951321875
795+948673948+944051124+938918515+937954745+938586881+937976775+936859193
781+935609695+935330497+935322582+933944996+931261122+926064600+919862294
768+916199612+914840626+913944396+910560912+904355176+901104794+903057859
754+905713437+906177975+904501074+902211428+901591560+901076564+899741850
741+900252030+901767534+899771399+893099278+887030865+885574327+887377999
727+889808266+890660172+891164153+892987546+893382169+892125548+892416816
714+893393514+892833601+892233125+892153250+890162325+887231969+886726141
700+886944988+884743857+880945501+877797221+878580729+882235562+882854968
687+882100679+883387904+881775905+876865836+876241879+878198506+875308977
673+872772650+874031118+869036624+859926519+862866241+871606391+878443934
660+880390403+874981103+870351353+873085091+873461708+867400682+863822953
646+864507723+864256821+861621031+860681401+860325429+854262623+850045239
633+859730097+874345801+877202549+871626574+865146125+867346531+887199848
619+892214129+854338342+822507420+829707663+857531934+866577204+853994110
606+849325577+855342412+851169615+835054238
##END=
