##TITLE=Sample description
##JCAMP-DX=4.24
##DATA TYPE=INFRARED SPECTRUM
##DATE=25/8/2023
##SAMPLING PROCEDURE=Instrument type and / or accessory
##ORIGIN=Default
##XUNITS=1/CM
##YUNITS=ABSORBANCE
##RESOLUTION=4
##FIRSTX=4397.6552
##LASTX=599.8556
##DELTAX=-1.9287962
##MAXY=1.9923971
##MINY=1.0787405
##XFACTOR=1
##YFACTOR=1.8555644e-009
##NPOINTS=1970
##FIRSTY=1.1474319
##XYDATA=(X++(Y..Y))
4398+618373509+617934528+618319672+618495765+618896842+620689384+622287395
4384+620927730+617103465+614724308+615871453+618104454+618383852+616092196
4371+613325840+612503643+613415718+615577407+618920163+622299537+624299588
4357+623563285+620934412+618382953+616043178+615037114+616676369+619103644
4344+620471275+621459159+622099224+621909125+622381128+624090281+625301220
4330+624404692+621918890+620383967+620501020+621628314+623598556+623738929
4317+620742579+618327638+618478098+619622352+620977584+622019947+621720633
4303+621660950+623672436+625173053+624074605+622570776+622160320+622525549
4290+622198867+619410282+616515437+617326392+621327330+625024520+625297365
4276+623126039+622307182+622876193+624082700+626973369+628536752+626487040
4263+624503885+624153369+623488569+622901955+623569710+623723125+622648191
4249+623141329+625100457+626240535+627580605+629376488+629245109+626262828
4236+622786444+621829527+622911978+624538577+626372942+627212807+626571907
4222+625599185+625542971+626233532+625956190+624167567+622962217+623895749
4209+625675250+627215698+627941208+627414405+628172551+631115579+632759782
4195+631831003+629323230+625431829+622431238+623107537+626853296+630263572
4182+630846075+630276935+630578755+631116286+631498860+631534516+630868046
4168+630824617+631973946+631645144+629163069+628089355+629711650+631045810
4155+630316253+629669699+630218601+629826840+628074194+627578228+628929927
4141+630211663+631380265+632811498+634183948+635574642+635464592+633313824
4128+631435708+631563233+632476143+631939447+631212138+632456163+633941940
4114+633859578+633595342+633727235+633380317+632608165+631790336+631111789
4101+630120629+629645157+631323024+633234097+633362714+633571636+635026189
4087+636082172+635399255+633632539+632902018+633627850+633812359+633325002
4074+633173514+634122594+636568822+637568269+635112212+632147213+631281008
4060+632727788+635786198+637704852+636159329+633646737+633251186+633989031
4047+634245815+634811999+635943661+635947259+634427497+633067062+633246046
4033+634354130+634985972+634621836+633776382+633862020+634558363+634720708
4020+635195280+636367737+638218228+639938110+639507545+637849530+637061125
4006+637311228+638025110+638743681+639657812+640214167+639380598+637963435
3993+637164430+637077572+637399692+638114345+639335435+640290489+639814183
3979+639099273+639498744+638512530+635765191+635012826+636913941+639624405
3966+641459734+640862327+638529555+638243090+641680349+644209194+642360053
3952+640153328+640688803+640918027+638878658+636589444+636124508+637942620
3939+639200265+638526857+637807964+637265679+637970309+640936593+642870987
3925+643314336+644103769+643307462+640352613+638592515+639919736+642125690
3912+643113123+643663504+643583006+639948132+633808183+631487939+634700535
3898+640107779+643309518+642019044+637851008+636825991+639510629+640535966
3885+639890248+641153610+642554970+643201138+643649627+642467019+642176186
3871+644269198+644507223+642921226+640543804+638976631+640996405+643650012
3858+644042095+640884748+634838982+635570466+641754615+646648997+647665790
3844+643954659+639375909+638100725+638603565+640190461+643531739+646030903
3831+646440075+645713730+644709721+644689869+643558786+639989055+640688739
3817+644260397+646462367+648816790+650745401+650132190+647327994+646339790
3804+646992254+644885365+642422948+643928318+648530325+652996133+654899947
3790+654726487+653512785+652734916+653576580+654010550+651691590+649555020
3777+651155729+653519467+652755153+648830602+646771061+649647532+653598680
3763+654234120+651199030+647543983+646578778+646573767+644656848+641329768
3750+641967649+646732707+649009073+647435346+648012452+648725370+646028783
3736+641086925+638259858+640805856+646033152+649877205+650817355+650238579
3723+650412680+651736690+653015985+653179679+652970564+651760910+649644577
3709+651471811+655946999+659739721+661411291+660539626+659531891+660336228
3696+661997648+661412126+657322661+651802604+649709977+653533536+659065221
3682+661588091+660200416+655544894+646864922+642180811+644399742+644984558
3669+646089623+651032830+654786106+654824203+652815928+649728608+644853307
3655+642739993+645406771+645089982+636337735+631654203+635680838+640549779
3642+642125690+639563759+635935052+634505169+634587465+632879661+627009153
3628+621955702+623407493+625642293+625224063+621220748+616464106+616000520
3615+617561397+618619885+618590204+615347285+611695129+611692559+611849958
3601+609958222+609204124+609442919+607276347+604953083+605453674+605878264
3588+603256972+600439606+600816141+602825122+603160541+601559575+601109737
3574+602130192+602266133+599825624+593913099+589200593+591037271+593877315
3561+593521402+591856128+591081343+590628356+589696751+589415361+590002104
3547+589417931+587649480+587423983+588779087+589546163+589287580+589288158
3534+589523227+588054476+585114275+583772213+584355486+584732343+584422236
3520+584233487+585340864+587339952+587712568+586148350+585404852+586017163
3507+585251051+582761523+581526235+582792810+584833656+586333116+586575831
3493+585602852+585145369+586082564+586327270+584066901+581354382+581805312
3480+584620622+585405237+584049941+583025438+582644085+583446174+585586727
3466+587186087+586946392+585448216+583968800+583068418+582989911+583869864
3453+585358403+586952688+587428095+585805222+583817184+584510379+587644469
3439+589944348+590580109+590628999+590144084+589511085+588657151+587483345
3426+587865726+589859353+590980929+591320460+591821821+592084002+592706079
3412+593461719+593382571+593310489+593978950+594740051+595613580+597291510
3399+599454677+601120145+601411171+601027954+601731300+603339076+605039942
3385+606924289+608410450+609147332+610440761+612526321+613914638+615589228
3372+619389210+623703531+626539528+628805550+631942531+635561022+637917115
3358+638526985+639837503+644379377+650486304+654050253+656022807+659681066
3345+662981549+664766446+667207341+670289779+673392261+675909863+676958907
3331+676889009+677176181+679438670+682693732+684449655+685493109+687875092
3318+690327230+691714520+693195092+694127790+693789737+693405492+692384459
3304+690474349+690583629+692596015+693242826+692575714+691123088+688019128
3291+684604098+682189029+680129873+679733936+682274217+683691188+681211232
3277+677763052+675445185+674647014+673996991+671661907+670075781+670781954
3264+671447395+671468403+671118465+669801522+668261010+667632830+667828775
3250+668182632+668838694+670148955+670389164+667433223+663673459+662994976
3237+664235082+664553476+664235981+663494988+661180076+658650974+658785630
3223+660828725+661688634+660655137+659075885+657753546+657214859+658077916
3210+660208896+662913193+664173150+662436051+660027535+660387046+662927391
3196+663740016+662488089+662385812+664111926+666089748+666747224+666064693
3183+666377755+668883794+671526030+672384333+671351286+669015173+667455709
3169+668288828+670165402+670582861+669361642+668869788+669461285+669513451
3156+669447216+670832514+673140616+674050186+673673393+674083271+675157306
3142+676177697+676740284+676156754+675701840+676608712+678085237+678699026
3129+677469841+676418485+677290022+678095387+678281117+678919512+679903220
3115+681576589+683770722+684860689+683799696+680984321+678781901+680075073
3102+683300775+684507989+684208289+684334465+684320267+683919576+684188374
3088+685133599+685447946+684962002+684136978+683072516+683091660+685183260
3075+688296406+690200219+688980993+686404606+686140306+688008463+688806377
3061+687648696+687236633+688883406+690414667+690641641+690788182+691866714
3047+693091595+692942741+691639675+690396421+689241824+688484770+689597352
3034+691490372+691926269+691833629+691323851+689634292+689351296+691657150
3020+693656302+693937691+693816719+693454318+692043772+691240783+693166632
3007+696223436+698465046+699786228+699690247+698874667+698725235+699150210
2993+699803253+701385074+703938589+705622045+706198765+706533606+706635176
2980+707516543+708966342+709864155+710694062+711336825+711203647+710638876
2966+710353054+711003719+711610313+710344381+708878135+710317141+713278093
2953+714492630+714398641+714698983+714459352+712886268+711732763+712274663
2939+713357692+713780097+714452092+716457989+718792624+719753911+719371979
2926+718562951+717658393+717138400+716593609+715512571+714938678+714947929
2912+715108347+715392563+714810575+713961009+715034402+716934103+716645839
2899+715206126+715352089+716961857+718553764+719168003+719019599+718741807
2885+718617816+718764228+718575800+718085938+718432150+719904371+721414624
2872+721716829+721230050+721346975+722032204+721643911+720110338+720079243
2858+722150092+723965762+724212909+723383709+722500737+721913416+721624510
2845+722167309+724000133+726249323+726675519+725452052+725065751+726163235
2831+727988799+729245031+729109797+728898176+729705919+730951100+731602986
2818+731213088+731006029+732101265+733285286+733630084+733648266+733350686
2804+732871617+732555086+732663980+733857959+735390697+735742948+735669903
2791+736607290+737612263+737470476+737023850+736678409+736324230+736883605
2777+738523503+740238759+740813552+740336860+740110913+739951716+739330346
2764+738750542+738556396+739192992+740897455+742818743+743873697+743849863
2750+743082851+742530672+743249372+744904110+746491200+747442464+748032418
2737+748603614+748358329+746797644+745375213+746089930+748099232+748921237
2723+748729147+748904534+749531686+750244475+751024722+751929344+752126895
2710+750876060+749561624+750128386+752243306+753968649+754532328+754725446
2696+754740479+754418808+754241751+754102662+754048761+754852200+756110872
2683+756293840+755232718+754538174+754799648+755651012+757078005+758020853
2669+757803579+757953140+759225689+760430782+761292940+762231355+762315579
2656+761299107+760801150+761540601+762213816+761442950+759675463+758677429
2642+759078377+760033046+761075216+762271636+763570462+764250423+763843371
2629+764142171+766018616+767040613+766194774+765262719+765080329+765232845
2615+765779628+766745797+767495655+767876431+768415504+769297320+770096197
2602+770201493+769362078+768009802+767106913+767400895+768933505+770526505
2588+770777700+770622164+771567839+773035113+774063792+774331947+773719057
2575+773176001+773950465+775309423+775656406+775282248+775621457+776238266
2561+775728167+774980171+774950362+775328953+776432540+777709266+778077128
2548+778112013+778729336+779274448+779079852+779172749+779697882+779678801
2534+779551148+780052381+780990154+781579466+780891925+779654645+779182514
2521+778564228+777804797+778925409+780870339+780992788+780258605+780566849
2507+781242056+781559294+782236942+783635860+784743687+784573247+783955732
2494+783712631+783770194+784542988+785688591+786432282+787051661+787559961
2480+787614569+787282747+786812158+787182333+788395971+788427065+787253837
2467+786769372+787089115+787577307+788395007+789764887+791137465+791744894
2453+791786331+791587752+790808342+789679828+789051969+788987789+789352824
2440+790556183+792077101+792352323+791104572+789879691+789806774+790965097
2426+792780896+793357681+792179570+791583063+792375965+793110983+792863771
2413+791923300+791511109+792404553+794010209+795010942+794936483+794767263
2399+794965971+794987428+794812620+795054563+795671886+795783800+795283787
2386+794986272+795217101+795100691+793283543+790206502+787690441+785586443
2372+782127084+777785909+775407652+775656149+775968954+774162728+770875415
2359+769834852+772620995+775999020+778849151+783065371+787883045+789898965
2345+786893170+782194990+780689812+781563084+781965189+781903193+782580006
2332+783686677+784392849+784864081+786735001+789916118+791536100+791515349
2318+791912764+792907329+794550118+796488687+797676242+799442636+802869423
2305+804827330+803616841+802936109+804755120+806792561+807955317+808270307
2291+807597348+807411811+808287139+809144349+809860544+810568836+810954173
2278+810924749+810820031+811025356+811141060+810864424+810767030+810673297
2264+809802852+809130986+809917143+811139839+811661631+811892781+812240086
2251+812767274+813568977+814356290+814530264+814067769+813962859+814659908
2237+815227570+815539412+816143436+816249696+815495340+815300616+816073281
2224+816300899+815884339+816059212+816425083+816489263+816727801+816958310
2210+816930235+817128814+817829526+818637075+819466982+820100302+819985883
2197+819962755+820610337+820890120+820715055+820916653+820948583+820278258
2183+820215556+820994903+820971646+820163454+819796619+820070300+820925904
2170+821896442+821798919+820887422+820424864+820480049+820840717+821283937
2156+821230293+821257983+822201216+823369690+824061344+824269752+823807065
2143+823358319+823944483+825297402+826602074+826582994+824852575+823430979
2129+823822484+825422165+826981179+827512543+826738336+825533436+825069914
2116+825348734+826079512+827020625+827341654+827244902+827728789+828639130
2102+829258958+829410703+829056460+828546747+828576942+828754577+828774364
2089+829268595+829890864+830070363+830191142+830217096+829905127+830110001
2075+831381330+832331438+831776304+831190653+832004692+833090355+833250130
2062+832695189+832544600+833600197+834570285+834364960+834007763+834542146
2048+835626910+836166176+835819514+835275365+835050318+834946628+835073960
2035+835540630+835448182+834778308+834861633+835719229+835980317+835491419
2021+835256863+835579176+836041863+836082209+835233414+833979881+834045538
2008+835672716+837105233+837655614+837737332+838125753+839306690+840498228
1994+840660445+840136597+840280890+840929178+841553439+842141981+841877487
1981+840653313+839546964+839652067+840938237+842409943+843307563+843383757
1967+843475948+844114407+844330203+844169335+844688043+845356440+845320849
1954+845417151+845872064+845629799+844924719+844870882+844744899+844152182
1940+845141543+847262117+848076926+847597407+847408593+847690690+847706494
1927+847486072+846662204+845218829+844484389+844478864+845036118+846581642
1913+848215115+849085817+849042195+848815478+849722863+850655946+849952857
1900+849107146+849395282+849979069+850224096+850180282+849984016+850064642
1886+850796769+851810415+852780053+853543146+854192398+855077747+855132034
1873+853008377+849522871+847423048+849273539+852881494+854836575+855080703
1859+854950737+854907243+855280888+856034729+856979119+857778639+857253314
1846+855072736+853333003+854538417+856857505+857858623+857772343+857566440
1832+856172597+853536850+853711530+855919796+856632458+857825409+859605166
1819+860139871+860718262+861885194+862190546+861433557+860752761+860920310
1805+861364237+861007553+860322581+860915106+862120713+861305325+857568946
1792+855123297+857778253+860965666+861320037+860214844+860228335+861570975
1778+862973812+863105962+860705798+857039380+857605179+861156279+863578029
1765+864724017+864126289+863152796+863902269+864879167+865415285+864025426
1751+858920580+854382111+855809875+859637481+860915106+859442114+859168755
1738+861512063+861344257+856333079+855575319+860305171+864970201+867573698
1724+867535794+865676566+863311544+859918100+856086189+857469560+862326359
1711+865187861+864418857+861395974+859740914+860362349+857789624+850839363
1697+848011847+852136454+859052473+862392145+860937013+857493009+852097651
1684+847577748+852696278+859445712+861307767+858311994+855391645+854603818
1670+853246145+854419630+857809861+857870444+854908528+854887327+858023216
1657+859200685+852766754+839467108+838870793+841215579+839015278+842155151
1643+849668962+852663193+849745027+842307217+836319976+840795229+847822005
1630+851196047+851674410+851270763+850293159+851493819+855150151+856258235
1616+855472914+859384295+865015622+868045572+869378897+871284252+873497401
1603+876176578+879864068+883588948+886005366+886276348+886227522+887888749
1589+889968078+890936367+891167646+891433553+891361728+890213619+887035072
1576+884457208+887839474+891171308+890222742+889943729+892191313+894037949
1562+893931946+886738842+876832768+885184389+895972664+900400440+899288244
1549+897316011+896223152+892460111+885330287+879368038+885227047+896729461
1535+902154885+902647831+904547983+907042843+906179786+903870913+901835977
1522+899434271+900124511+902281960+904953621+909297494+912205123+911211329
1508+905209762+903654024+915139285+923979740+925437377+922045603+921307501
1495+925213807+926267348+920394912+914336104+918944920+926577583+929397776
1481+929269995+928334727+926029452+923548147+921726759+920518261+920500787
1468+919678718+917889323+917836258+918653701+915968357+908014601+905175456
1454+913054496+920443995+922892985+922190089+923254937+926178627+928810456
1441+930785644+930211558+927541953+930286402+935859781+936362492+934574383
1427+934744245+934179731+934216414+935820078+933808463+930538946+930823163
1414+930772346+929504100+928665264+927661126+924603230+921103976+919339187
1400+916818179+913305370+910756801+909585565+910470593+910788088+907975797
1387+904390263+904295888+906778671+908573012+909090692+909111635+908748527
1373+909547083+911135200+910830168+909261324+907209557+904370604+904455856
1360+908652482+911698236+911757405+910980178+910448558+910250750+910349750
1346+909922911+909136369+908804676+908812514+909148447+910174235+911834241
1333+913743708+915028592+915073499+914718357+915072921+915893962+916090935
1319+915342104+915525264+918793368+923633720+926888654+929145489+932553067
1306+936745324+940476821+943215938+944931066+947222079+951854408+956451532
1292+958509018+959934790+961804297+963726869+965768037+967626172+969570074
1279+970646871+969999868+969740193+969939992+968385732+966579827+967207171
1265+969831419+973350011+976685764+977362384+975519731+975774203+979605150
1252+982601372+982714891+982966279+984466510+984502744+982305591+981432834
1238+984566667+989553496+992200487+992104570+991523417+991716021+992736990
1225+992273147+990192855+990261981+992082984+992499222+992404205+993948379
1211+996002717+996410025+995413276+994333909+993758280+994138670+996185941
1198+998734445+998606149+996197698+994934721+994617161+993548395+993216059
1184+995041495+999071213+1004200922+1006589650+1005010784+1002647239+1001720260
1171+1002946682+1005277526+1006999207+1008400695+1009833148+1010738478
1159+1010921831+1009541094+1006857356+1006501636+1009548547+1012452771
1148+1013617711+1014061896+1014649024+1015909046+1017472108+1018596960
1136+1018543316+1016519559+1014211264+1013975423+1013909187+1013917860
1124+1018235779+1022820182+1019976155+1015403572+1015937185+1017809711
1113+1019218266+1023406539+1030767321+1037295690+1037401244+1032211210
1101+1028314155+1027327557+1026398136+1024852934+1024974998+1027950662
1090+1031367234+1031241957+1027980535+1026131586+1029574049+1036307678
1078+1037627062+1032656358+1030612878+1034282444+1039122346+1042653145
1067+1044706775+1044539740+1043159967+1043319164+1046400703+1049946598
1055+1050121086+1048901473+1050892594+1053540227+1050357247+1043759109
1043+1041287634+1043871279+1047559155+1047990490+1045287929+1045589041
1032+1050540922+1052526518+1050007759+1051378538+1055079133+1053622974
1020+1050499998+1049281542+1048602352+1050233513+1053705528+1054989127
1009+1055145433+1056170257+1056026543+1053865817+1050540922+1046283393
997+1041390553+1038360795+1039900087+1043170118+1044255460+1044411380
986+1045377742+1046481072+1046794391+1045677506+1043799583+1042590249
974+1040878077+1037838683+1037415120+1042080536+1047705760+1050144984
962+1051165311+1053393237+1055260431+1054467914+1051700016+1050201391
951+1053274256+1058035074+1058268795+1056073120+1057268320+1061476509
939+1063950490+1061115007+1055161173+1051321168+1051248764+1053079982
928+1055763977+1058601965+1059087909+1059152860+1063323787+1064930664
916+1057333078+1052004020+1057443385+1064520529+1064482624+1062073338
905+1063595990+1067445504+1071061104+1073741823+1071528481+1063706233
893+1055466590+1050878268+1051226600+1052734091+1051018577+1051191780
881+1056951788+1060384293+1057143429+1052970895+1051879257+1051293992
870+1048519477+1046496427+1044891092+1040674165+1038665441+1040331166
858+1037980213+1031352457+1028590727+1031389398+1033699170+1030760190
847+1026858510+1026682866+1024466954+1017532433+1012938971+1013874303
835+1016080514+1015708797+1015062885+1013944650+1008076583+999532230+991733624
822+986207657+986805835+992480142+994981426+993979666+995191055+993748387
808+986589011+980148399+974973077+971586379+974837715+979668816+977304371
795+976618629+987360905+992880769+979612988+964752143+958775567+955824894
781+953168781+954602070+959596801+959633227+952475008+945199799+940217017
768+934245710+929454632+931419285+936926621+939081051+936469845+930458834
754+923416960+916685065+911303070+909815752+912715158+916245378+914380818
741+906964850+901544822+900734574+901684682+904063710+906787601+908835128
727+910367674+909087479+905155476+901634571+901450448+904191620+906220324
714+907577612+907112227+902096487+897505531+896594676+896242104+896030484
700+895812953+892412121+886916734+885806915+887857912+884981570+882011045
687+886650185+891817605+889455152+881955474+877487738+881159874+888155620
673+887837932+875355665+859025619+859801754+874391295+877484269+870942087
660+868148877+868965806+866372910+863170785+865943822+871584851+871422891
646+862401396+850972799+847506116+852217016+858760997+870991362+891498632
633+887844035+847266164+822698017+840853370+870298488+878084888+861067236
619+838779631+840191333+865908874+896119398+920280301+926835974+924403045
606+920174555+894658356+859756590+840648302
##END=
