##TITLE=Sample description
##JCAMP-DX=4.24
##DATA TYPE=INFRARED SPECTRUM
##DATE=25/8/2023
##SAMPLING PROCEDURE=Instrument type and / or accessory
##ORIGIN=Default
##XUNITS=1/CM
##YUNITS=ABSORBANCE
##RESOLUTION=4
##FIRSTX=4397.6552
##LASTX=599.8556
##DELTAX=-1.9287962
##MAXY=1.8689228
##MINY=0.15592237
##XFACTOR=1
##YFACTOR=1.74057e-009
##NPOINTS=1970
##FIRSTY=0.1736815
##XYDATA=(X++(Y..Y))
4398+99784263+99692968+99669416+99590646+99716990+100180025+100591496+100498129
4382+100057088+99801480+99778031+99740542+99598205+99590911+99893486+100182910
4367+100318338+100481752+100731795+100836326+100743798+101048821+101669199
4353+101640006+101064941+100743909+100560985+100242247+100046498+100064904
4340+100135739+100122614+100037252+99984344+99965356+99959543+100026354
4326+100234379+100387374+100211513+99918184+99887270+100081204+100128564
4313+99762167+99282284+99219660+99466271+99604104+99620327+99687095+99953704
4297+100293211+100249096+99888024+99720911+99790770+99974148+100216709
4284+100269411+100224885+100515748+101010142+101194470+101207363+101368997
4270+101349332+101109613+101057339+101056200+100829871+100576857+100503959
4257+100532750+100633634+100806499+100816122+100501639+100169332+100240826
4243+100540001+100572157+100494568+100769370+101170773+101198126+100825924
4230+100478122+100531569+100745296+100849990+101025012+101256658+101350779
4216+101210086+100980760+100991145+101085642+100937535+100826798+101056560
4203+101401323+101685534+101966509+102070175+101751531+101224169+100986736
4189+101230102+101780519+102254923+102349583+102232099+102124161+102015016
4176+101959240+101940928+101887430+101931870+102199233+102482673+102454165
4162+102177882+102036992+102182727+102363195+102375360+102372492+102433858
4149+102368503+102115249+101885709+101790733+101744220+101893294+102235053
4135+102371328+102274177+102186691+102226543+102395581+102592580+102805075
4122+102940965+102894187+102838284+102933483+103083353+103067892+102876577
4108+102701554+102614343+102701195+103036824+103257100+103147047+103139651
4095+103243351+103060966+102874488+103025591+103244952+103292124+103292843
4081+103395413+103483755+103403606+103360955+103612128+104003738+104302271
4068+104466396+104483740+104395630+104351112+104503790+104754664+104796126
4054+104651084+104585600+104591704+104570404+104516153+104457175+104569274
4041+104846542+104975960+104861481+104638439+104458305+104474691+104527256
4027+104325497+104077440+104072047+104165482+104282187+104436089+104388695
4014+104078365+103828912+103858790+104109698+104459530+104673522+104499947
4000+104036141+103682466+103702439+103814641+103654728+103612642+104019987
3987+104313657+104200206+104065643+103996367+103823125+103541696+103295094
3973+103330828+103595348+103750373+103700590+103503248+103207360+103052225
3960+103197378+103529514+103803194+103607197+102788458+101885041+101824823
3946+102288157+102048096+101787736+102744899+103902683+103851445+102343650
3933+100456856+100111665+101161699+101466473+100825505+100788726+101021331
3919+100551662+100442242+101731721+103384275+104320797+104093261+102106337
3906+98545073+95620128+95272531+96864139+99484446+101342988+100886152+99327504
3890+99512184+100167183+99227297+98205300+97962268+98258918+99962873+100875339
3875+99503212+97299170+95684644+96049663+97274831+96987683+97242504+99378922
3860+100390559+98689215+94196822+89581210+92832349+99071733+102509067+102555674
3844+100032971+96691265+93737495+92605206+94612266+97438989+99441212+100629978
3829+100768608+100323714+99601022+97262948+94831986+95810860+97722926+100221820
3813+103381458+104762926+103411645+100808862+99380009+97996958+96647620
3800+97888369+99968309+102333111+105072606+106667698+106859038+106113916
3786+104997499+104605274+104593108+103945779+104289301+106173792+107045438
3773+105764487+103536337+102624804+103211838+104251427+104796691+103655790
3759+101988579+101857415+101422589+98197279+93441427+93077024+95527523+96740790
3744+98208168+100277185+100684076+98214478+94064631+93798587+98545689+102933594
3728+104319445+103417809+102566760+103268392+105006900+106746734+107488534
3715+106076033+102299338+100220733+103215031+106832062+108228255+107884630
3701+107974804+109382331+110536605+110533266+108810947+105198856+102720654
3688+105587675+110221343+112912219+113232446+111416119+107917727+104562648
3674+105593171+107810619+108735627+112609568+118011336+121354977+122841755
3661+123339128+122979271+122507624+123162641+122856112+118999696+115366279
3647+120246369+127932790+133006754+135845823+137674624+138986747+139743974
3634+140061162+139496242+137835889+139173361+144547794+148641086+149498838
3620+148179473+148372251+150811166+153014600+155189611+157474684+159445393
3607+162470862+165987498+167949526+168590580+169447270+170701554+172174026
3593+174264796+175600530+174664821+173684372+176199138+179874718+182136316
3580+183080655+183489703+183975819+184636460+184922486+183606220+180423895
3566+179001317+181539832+184679163+186641671+187849691+188472390+188220694
3553+187918214+188074659+187634859+186816865+187318972+188992510+190329048
3539+190781091+190725067+190889183+190997772+190323655+189409691+189244222
3526+189613410+189976332+190614766+191571227+192528972+193283871+193380235
3512+192687078+192095593+192375421+192638314+192097870+191882559+192745961
3499+193473397+193576523+193943999+194500538+194430679+193955231+193831661
3485+194111214+194106968+193689393+193719990+194352996+194763175+194758706
3472+194693744+194585002+194536666+194595172+194388867+193900492+193648231
3458+193825137+194163608+194404243+194307040+193687954+192789914+192258237
3445+192264726+192455381+192770943+193237522+193722627+193902067+193611264
3431+193469202+193844605+194087226+193966241+194045174+194511804+195105515
3418+195610893+196090810+196798880+197787668+198914837+200037742+201119760
3404+202293433+203733544+205285154+206618611+207866457+209146818+210342014
3391+211740603+213513449+215348072+217137920+219076491+221085366+222867389
3377+224476325+226110378+227751212+229385848+230886057+232084369+233318843
3364+235102801+237319436+239524805+241673961+243877772+246277940+248966992
3350+251551583+253664646+255557723+257678885+259994178+262401400+264905328
3337+266945365+268404756+269845740+271404541+273031746+274400064+275237783
3323+276058088+277191644+278266659+279036660+279716718+280630784+281884469
3310+283396698+284999607+286349775+287270399+287918816+288445356+288945255
3296+289471522+289967448+290291913+290430397+290580456+290688668+290276195
3283+289259584+288395497+287944602+287311801+286706310+286792297+287236241
3269+287448744+287529423+287817589+288012303+287557298+287026751+287214581
3256+287570482+287494734+287249168+287111060+287289199+287800501+288094010
3242+287539388+286419085+285797380+285799554+285715365+285531233+285310648
3229+284830269+284254964+283549719+282442703+281466106+281225283+281119399
3215+280547982+279990638+279947456+280170866+280200607+280026064+279661036
3202+278984043+278555544+278859685+279274606+279090012+278345866+277590231
3188+277305695+277222036+276769994+276012886+275179396+274290208+273716393
3175+273722762+273999131+274171842+274035995+273761527+273711633+273733669
3161+273415865+272969661+273036951+273568338+273774232+273402972+273198756
3148+273613198+273908058+273446582+272723376+272245565+271925826+271794293
3134+271816963+271548796+271033333+270796910+270708851+270392228+270025745
3121+269810160+269700082+269468881+268840361+268059025+267577550+267338833
3107+267028511+266629427+266314996+266047274+265864495+265905468+265867388
3094+265582938+265361874+265184043+264892983+264675754+264577815+264318894
3080+263961452+264056360+264722258+265744759+267231408+268808976+269365669
3067+268456704+266730277+264690907+262357568+260056674+258255440+256850190
3053+255563648+254473257+253553814+252774037+252359920+252296962+252360125
3040+252428956+252582405+252856240+252839580+252248694+251598960+251421386
3026+251363889+250947667+250496155+250452323+250747611+251368581+252403890
3013+253649082+255022998+256665116+258663050+261063612+263679193+266381259
2999+269452940+273282141+278212193+284477860+292189425+301165274+310144889
2986+316886569+320042560+320128103+318492559+316395677+314416458+312427616
2972+310332788+308205188+306337605+305032109+304000498+303113742+302816877
2959+303019501+303129665+303168532+303583916+304381980+305404105+306630051
2945+307828123+308681389+308926305+308493765+307726041+306858221+305780758
2932+304456051+302996010+301427003+299639312+297507603+294780317+291284485
2918+287378406+283476522+279546677+275714395+272440603+269657054+266969901
2905+264404162+262095085+260221150+258986573+258264635+257851032+257562061
2891+257263844+257225473+257784255+258751366+259639630+260234231+260607546
2878+260817035+260974251+261231511+261408520+261273153+260975758+260644838
2864+260065561+258944401+257344250+255505997+253188085+250034388+246255458
2851+242144821+237883389+233915841+230414667+227221059+224428930+221940087
2837+219447477+217075475+215017135+213147275+211428706+209917230+208545402
2824+207428849+206698418+206060771+205285582+204651497+204347031+204140606
2810+203940996+203739879+203383259+202998524+202771672+202574151+202252837
2797+201781121+201223264+200654466+200018703+199245979+198448669+197752739
2783+197070866+196236794+195319285+194585995+194070618+193561267+192951359
2770+192317719+191835302+191491609+191080643+190697278+190560643+190526501
2756+190396767+190173939+189908391+189636457+189345072+189035058+188696587
2743+188270828+187823545+187514233+187383317+187260483+186970536+186586777
2729+186324928+186277174+186297704+186248478+186161137+186023920+185830680
2716+185649750+185473049+185357201+185400588+185488185+185489178+185425398
2702+185353964+185316518+185276624+185229914+185259912+185285852+185152574
2689+184915123+184651356+184349801+184132367+184028110+183832181+183507065
2675+183146370+182748297+182372054+182136744+181957064+181598475+181056267
2662+180589192+180398794+180393760+180337085+180147200+179857767+179523372
2648+179211919+178985736+178892043+178891649+178895570+178860093+178845180
2635+178895194+178877712+178739399+178614151+178557339+178556004+178631187
2621+178785612+178966371+179096020+179226970+179486867+179817068+180051659
2608+180177986+180367135+180699424+181019558+181265243+181519764+181769388
2594+182004476+182264219+182540502+182799578+182983059+183036668+182983350
2581+182904999+182866166+182868289+182845122+182729325+182537728+182284098
2567+181904037+181447834+181067328+180759198+180498667+180376072+180300564
2554+180056984+179768253+179659424+179593333+179412865+179204095+179057443
2540+178968425+178912915+178945345+179073641+179160074+179153756+179180535
2527+179358674+179614102+179755360+179751096+179738135+179828660+180055974
2513+180373812+180696017+180999319+181259593+181410816+181516528+181690130
2500+181922546+182225899+182588804+182853872+182970542+183042216+183084627
2486+183047078+182989377+183024665+183117759+183162139+183163441+183164554
2473+183132090+183064269+183059817+183077744+182953009+182683438+182366370
2459+182078067+181862858+181730110+181663231+181582329+181447098+181300703
2446+181131211+180898589+180665523+180510105+180432250+180434442+180428072
2432+180285393+180089482+179972263+179939509+179886995+179701802+179537532
2419+179619615+179812308+179873451+179855507+179923328+180074842+180209474
2405+180283287+180317498+180319330+180314501+180380986+180510824+180640148
2392+180743891+180791936+180770721+180570238+179982485+178947810+177528297
2378+175750983+173646720+171332917+168937663+166620709+164603702+162894122
2365+161508631+160639989+160292889+160531486+161660864+163785947+166708289
2351+169687391+171292697+170664125+168603473+167087597+166787685+167016385
2338+167464438+167990294+168374447+168753446+169506427+170585911+171597814
2324+172558162+173729797+175017281+176256977+177409675+178375091+179123809
2311+179790238+180553835+181394892+182087381+182555587+182920460+183260557
2297+183633923+184074391+184460033+184719742+184989759+185316553+185579480
2284+185737946+185857373+185984488+186057822+186040255+186039091+186078746
2270+186126705+186248032+186400300+186471579+186511902+186541267+186481972
2257+186454457+186602410+186772518+186822584+186886912+187039693+187153367
2243+187230194+187342618+187431208+187459562+187473072+187537588+187673932
2230+187848355+188011256+188113834+188172204+188221036+188309267+188509716
2216+188718606+188782558+188803001+188890770+189015607+189193849+189365653
2203+189452154+189566359+189755935+189930034+190099817+190288914+190424539
2189+190526416+190688511+190883635+191010117+191037906+191058744+191171236
2176+191336722+191431219+191435054+191464522+191547907+191637267+191773303
2162+191908380+191938617+191983460+192154767+192352905+192515805+192664854
2149+192825956+192996972+193089586+193109756+193156089+193214646+193308647
2135+193500056+193675198+193747368+193842944+194038051+194232662+194357585
2122+194432392+194516016+194672564+194864898+195014117+195106868+195185202
2108+195314337+195466125+195581392+195721742+195927448+196156662+196406885
2095+196655276+196813845+196899901+197050781+197289087+197535475+197793729
2081+198073094+198325971+198548508+198805803+199129566+199437919+199648658
2068+199742642+199811610+200031887+200375734+200735231+201095550+201378767
2054+201556821+201688131+201807112+201941470+202082163+202171027+202253658
2041+202494208+202836908+203098260+203324393+203603535+203883860+204098297
2027+204238973+204326981+204436340+204581382+204628177+204678122+205025737
2014+205599363+206136982+206537589+206829899+207122705+207498194+207893819
2000+208201435+208500611+208741862+208601666+208380858+208751690+209534430
1987+210307564+210990464+211561728+212077225+212591352+213057520+213471294
1973+213934158+214250507+214150085+214209054+215049718+216119031+216902833
1960+217479267+217795462+217979166+218325085+218699221+218814950+218619278
1946+218065376+217257912+217212812+218387512+219502508+219935664+220108786
1933+220303859+220511328+220692412+220554134+219744718+219057828+219170321
1919+219449669+220157396+221411577+222019620+221732070+221593158+222306108
1906+223269075+223898554+224366794+224704409+224622257+224371212+224483002
1892+224479081+224265790+224934942+226126353+226909024+227473628+227996744
1879+228440396+228790716+228940278+228303094+226305776+224562877+225828667
1865+228580712+230273940+230889208+231272145+231787026+232291427+232608855
1852+232640702+232172463+231047280+229666411+229924871+232363734+234304874
1838+235019125+235598761+235978873+234918806+233280198+233655208+235205448
1825+236774934+238777046+240405432+241229984+241775804+242020891+241568574
1811+241213016+242057258+243388677+243979649+243410833+242468121+242618608
1798+243464323+243345855+242157029+242539572+245645224+248120507+248832926
1784+248908469+248987676+249509302+250369862+249947202+247598863+245712994
1771+247528799+251132073+253943018+254956496+254632390+254995141+256001273
1757+256882551+257854953+257348256+254812618+253435449+255270910+257797491
1744+259459813+260654255+262244202+263376713+262228740+261034452+264246176
1730+268928420+272936906+275575363+276909762+277448802+276037148+272303951
1717+271654559+277424985+283432193+286960351+287878442+287268036+287467270
1703+288312180+288053978+288172463+291327359+298365218+305318083+308507599
1690+309603931+309605781+308215598+310307344+318503244+325578224+330002899
1676+333285936+337358306+340978992+344792612+352435637+359658895+362986142
1663+364805748+367297468+368405923+366139051+360334433+356229874+359061605
1649+359844122+360920250+368780556+377252738+382599887+385407065+386876318
1636+393820040+407685670+418741518+427390059+437016721+447659446+459472369
1622+473935151+486270847+495067152+505810111+517676694+525733938+530894763
1609+535137395+539048131+541745317+543019103+543559924+543226384+541454514
1595+538869787+536568055+534348577+531492429+528078339+524337763+520260668
1582+515823254+510684277+504103236+498636746+497529764+496093866+492961811
1568+492129229+493594509+494529962+493331410+488375400+486398681+495389597
1555+503838768+510446484+516260554+522076028+526590902+528747199+530108514
1541+536621305+557269708+575668533+587111753+600527789+616346338+628411093
1528+638538578+648955634+657448363+665454481+674874272+682791218+689821783
1514+695580720+697281224+694166429+686969094+685736298+696259511+703915446
1501+706674100+707219886+709998813+715644401+719116638+719093900+720865017
1487+729521913+739295449+746000351+751124603+756004214+758533089+756896347
1474+754947708+759550351+767132798+771591820+773926872+778496092+784226400
1460+786137096+783181400+784431181+792895488+799508957+802396370+803927708
1447+808286873+814946710+821239789+826838188+830648006+832380221+835921975
1433+840988491+843471410+844284028+845992546+846671748+845301290+842917542
1420+839516807+838876575+842926720+846731333+848371978+848821880+848361705
1406+846386698+843556131+840978834+836154425+828273162+822698597+823093914
1393+826330824+826931333+823728256+819394636+817918775+819752832+822350812
1379+822774483+819448126+814338804+811928209+813008207+814544544+815379215
1366+815061428+812998687+811718429+812675215+812895475+811390984+809875947
1352+808993334+807936965+807130648+807190370+807329060+806448159+804796966
1339+804685603+806411997+807844094+808749240+809869852+811505429+813691176
1325+816115537+818047191+818869260+819306286+820482373+821735715+822682023
1312+824383350+827034408+830394872+834688357+839146420+842443738+844942478
1298+847668669+850461225+852921611+854562325+855256183+855838611+856511717
1285+856337140+854719506+852677723+851814012+852260969+852509789+851421778
1271+849937697+849394035+849374241+848409784+845768656+841886377+838174566
1258+836178191+835789038+836213668+836805821+836633640+835436390+833934160
1244+833557404+834700343+835837391+835997107+835456594+834671030+834265234
1231+834609732+835077373+835538027+836903143+838553925+839101081+838958625
1217+839588926+841785631+844329230+844604486+843051849+843319776+845775505
1204+847749074+849252195+851659091+854048523+855344671+856195026+856779166
1190+856683076+856697390+858457548+861447557+862973484+863357089+864997256
1177+867912132+871544154+875992081+880257006+883401594+886087856+888645085
1163+890827818+893202251+896230682+899648540+903214196+906112361+907159142
1150+907573361+909056414+911695625+915468048+919031033+920869063+922002824
1136+924576764+928273781+930850119+932812593+936225725+941148072+945480938
1123+947824072+949727988+951818809+952300490+951452327+952068724+953718479
1109+953106875+951331444+952154130+955453570+959358588+963753847+967320804
1096+967884877+966878367+966922954+969074045+975141523+983569394+986465916
1082+982582267+979722044+981478709+985757880+990415108+994963645+998555874
1069+999934482+999333084+998734150+1001157553+1006967308+1012346817+1014033624
1055+1013468250+1013434759+1014197312+1015573181+1017028975+1016514146
1043+1014822408+1016308338+1021701545+1027781351+1031952994+1031005111
1032+1026301653+1025763059+1030026135+1031931694+1031400154+1032883481
1020+1035144702+1035741855+1035391946+1034102237+1031082161+1029016954
1009+1030190918+1031372348+1029329537+1025778743+1024720114+1027255015
997+1031488847+1035667271+1036525160+1033353861+1031317420+1032897658
986+1036045739+1038455718+1039216832+1039414148+1038503591+1035675832
974+1034596245+1036307982+1036343117+1033632199+1031623975+1031245781
962+1031993745+1036294901+1041869397+1043050484+1043217870+1045830849
951+1048529645+1050812577+1052371310+1051978390+1049817505+1047849621
939+1048026732+1049577452+1051237823+1052335490+1052139750+1052705329
928+1056071341+1058469197+1057192294+1056216947+1057672605+1058934166
916+1059254419+1060464887+1062733437+1066446960+1071328283+1073741823
905+1071932216+1067913370+1065147593+1063941645+1062532423+1063231623
893+1064799808+1062486261+1059076280+1058756027+1060077379+1060293734
881+1060143265+1061521667+1062022730+1059038406+1055705406+1053985724
870+1049615943+1041464561+1035491392+1033819995+1032413033+1029326318
858+1026117830+1023933590+1021918791+1019037336+1016693792+1016356691
847+1015604274+1012299629+1007551447+999833804+989965480+984261403+982117571
833+977486711+970519840+964520714+960165521+956668080+952685670+948379446
820+945643736+944469087+944068565+944702976+946103295+946998852+945818176
806+942495518+939314768+938238674+936686653+931248244+925705663+923697986
793+921500391+916435039+910716716+907562129+908767118+910865474+909622473
779+906004629+901690049+899266647+898852222+894462579+886860956+882804852
766+881139825+877457601+873215072+871407588+871536483+871564564+870469362
752+868362034+865976849+864324902+862955883+859845882+855807175+855170162
739+859036551+861811917+859915672+857445355+856799507+856265364+854935040
725+851915718+848332597+848078025+851822300+854387336+852115636+847607303
712+843867343+843353747+845895634+845923989+842686325+840690292+840897127
698+841652694+840705496+838461945+836733497+835014843+834277083+835471388
685+837337567+838103201+834714178+829692864+828369389+829212690+830955246
671+832204274+829397541+827931130+831337893+831509251+826235625+818698518
658+814297848+816518387+820459772+818214577+813474272+814920752+818459355
644+813067518+802770387+802200219+811103195+812564195+799111792+786442008
631+792054036+806513291+806451172+795460251+791155808+791483663+790804803
617+788838700+783924434+786653227+798408276+800025088+796664761+802893118
604+807176467+800875511+793972198
##END=
