##TITLE=Sample description
##JCAMP-DX=4.24
##DATA TYPE=INFRARED SPECTRUM
##DATE=25/8/2023
##SAMPLING PROCEDURE=Instrument type and / or accessory
##ORIGIN=Default
##XUNITS=1/CM
##YUNITS=ABSORBANCE
##RESOLUTION=4
##FIRSTX=4397.6552
##LASTX=599.8556
##DELTAX=-1.9287962
##MAXY=2.0939431
##MINY=1.3022854
##XFACTOR=1
##YFACTOR=1.9501365e-009
##NPOINTS=1970
##FIRSTY=1.3781637
##XYDATA=(X++(Y..Y))
4398+706701144+707043098+708017490+709263598+709354619+709782581+711776721
4384+712384401+710352544+708957893+710664301+712487403+711273937+709599989
4371+709098673+708246111+708120002+709490447+709730560+708706593+708670100
4357+709539350+711455367+714031147+714148086+711558002+708150811+705422760
4344+705598811+708008137+710982231+713630570+713144414+711370154+714001010
4330+719657187+721856353+719154342+714670981+711555007+711995623+714256589
4317+715064283+714474574+713399871+711345152+708929591+709848600+715713408
4303+721997743+722723035+718344754+715801067+717929140+721540012+723977029
4290+723688685+720850236+718320975+716907924+715554046+716877115+719749124
4276+717681324+713254874+711969521+712206822+711793042+710556592+709479199
4263+709397103+710071536+711616319+713698607+715522442+717271212+718846804
4249+719308937+718519399+716073640+712564792+711566255+712965490+712502807
4236+711004482+711852704+714399631+717232823+718201835+716116858+714561255
4222+714438997+714342231+715706868+718475325+720189068+718302575+714302497
4209+712760465+713075155+711890603+710190370+710966277+714640539+718768743
4195+719668129+716515172+713485145+713434775+715253537+717379104+717250245
4182+713723242+711916950+715269370+718710059+718245053+716885062+717469758
4168+719129952+719468605+718361442+717799853+717666470+717287289+717415048
4155+717288267+716840255+717678207+717629609+715221200+714792321+717355936
4141+719686529+721809467+723112975+721609270+719163450+717494148+716210323
4128+716279277+719628029+724834665+727562043+727244663+725668399+722852628
4114+719940763+719438407+721091938+721140291+718633220+717468107+719858912
4101+723025744+724092868+724396311+724862050+724181810+721636045+718065518
4087+716289669+717699052+720172135+720855248+719658348+718208865+716524403
4074+715425370+716783222+720368908+724370698+726102657+724687589+722404616
4060+720329908+719367926+721364144+723480236+722974335+723873049+726951551
4047+726807104+723589596+722661784+724373632+724719559+722842420+721546125
4033+721251484+720939239+721667771+722972929+723178688+722264631+720658842
4020+719944614+722057222+725678546+727447305+726722013+725649694+725810279
4006+725815230+723695409+722032464+723417702+725912302+727685768+728681738
3993+728134453+725873363+724612279+726437826+729278598+729333553+726568030
3979+724634590+724359083+724457929+724199782+723310910+723031491+723129724
3966+722879708+724122577+726910412+728269791+728252309+729565964+731114965
3952+730401410+728443703+728341434+731219067+733197314+730941543+727581849
3939+726179435+725575972+723954228+721718813+721425701+722930506+724185417
3925+725215496+725468447+723675420+721429063+721631827+725051060+729454038
3912+731436563+729552760+726650737+726118856+726345277+724115791+723915839
3898+727220517+728832359+728396450+729127305+732394572+734786415+730952974
3885+722680918+718409428+718335218+721966934+727766397+731192476+730217290
3871+726007541+721676268+720102571+719412183+719802551+722284192+725180959
3858+728890676+732539508+728575924+721691427+723292877+727645423+730951690
3844+732311009+732847047+732622460+728344491+724248746+725507875+728577697
3831+731631258+734618128+735814906+735588546+733061792+727430128+726880459
3817+729506669+728776854+728359223+730567008+732350621+730857247+729988119
3804+731416391+729574644+727270154+728273398+730526785+733991376+736106428
3790+734501495+731948516+731572758+733044981+734405889+733873275+732482169
3777+733074506+734526374+734811906+734580473+735070114+734759886+733476366
3763+734486701+738186943+741151868+740153820+736821390+733554917+729168261
3750+725577195+727876551+730795568+728528182+727823185+731124196+733594345
3736+732627411+730844165+731232088+733816364+737338783+739928377+739826476
3723+737161632+735399108+737602125+741194903+741230357+735691670+730329400
3709+732977862+737998056+740096542+739780752+739111331+739686002+741086766
3696+742335014+742733267+740929237+736610801+735533102+740640038+746355876
3682+747167298+743678011+740770975+737617163+732116620+727825691+724838210
3669+726651470+731983910+734619840+734495198+734911362+735706647+734063446
3655+732385892+732582971+727956079+717113011+715508505+720476984+722529318
3642+722085035+722016877+722510674+721444101+719312727+717505824+710992134
3628+702101761+704460228+711499624+714895201+711912182+705848888+703574229
3615+702134220+698607095+696973981+697403104+696128265+694626394+695130400
3601+695430237+694039559+692862098+692076166+691272508+692216946+693772182
3588+691549848+688849061+690171030+690974016+688876446+686427753+684982304
3574+683972581+683650371+683597801+681025689+677228741+678047010+681033146
3561+681874705+679979655+677788863+677502292+678113396+678191335+677032702
3547+674077679+672033169+672806936+673475256+673004443+673040081+672650447
3534+671220708+670715418+669888958+667791939+667959248+670711567+672478492
3520+672448355+672638343+673820756+675144803+676108986+676030435+674518356
3507+673070095+672111903+670415460+668914506+669085055+669771713+669935844
3493+670004064+670493093+672370355+674308868+673716898+672553313+672071375
3480+670426402+669129129+669705572+670108899+669614307+669971849+671631187
3466+673454656+674414254+674456249+674529421+674758775+673629178+671079256
3453+669872881+671327072+673707484+674618363+672775149+670207194+670214896
3439+673660782+678031911+679348256+677529861+676008796+676288582+677500519
3426+677721744+675753645+673920029+675502528+679060035+681598037+683168127
3412+684353229+685252187+685111469+683516194+683674700+687474338+691027382
3399+691347696+690215898+689091986+688012026+687872041+688573554+687819592
3385+685982003+687384906+692861731+697997642+699802527+699932059+700479466
3372+701031947+702773320+707407731+711618092+712200404+711525787+713035177
3358+717817763+724129301+728987809+732224145+735827682+739465817+741760527
3345+743383921+744382030+744480814+745789641+749294087+752525839+753970493
3331+756548718+760767820+762005248+760137950+759399088+762038074+766494295
3318+768715039+769440759+770982547+770687968+768995559+770532884+773701551
3304+773958169+773749415+775690434+776318715+773714204+770828563+770717676
3291+772536499+772496399+770239955+768780263+767413854+765254238+764841008
3277+765593686+764906722+762461085+760839830+762247196+762931837+760200240
3264+756013536+751519477+750469103+756328960+763413042+763481262+758555023
3250+754940667+752492402+748921630+746871313+749312915+753054663+754725799
3237+754761193+752830443+749225134+747136122+748423126+749893943+749053240
3223+748389811+748723145+749058925+750433954+753224051+754597551+752940353
3210+752246603+754284328+755140924+752742051+748837884+746966674+749215782
3196+753518691+756635399+756436975+752685568+748385532+745876138+744564683
3183+744466694+746166805+748584078+749858550+749528149+749389632+750874386
3169+752483477+752117927+751226121+751754334+751842298+751166154+752162979
3156+753912421+753799089+751991513+751347828+754012122+757782967+759124009
3142+758972287+760562428+762231608+759672761+755605013+755641935+759104509
3129+762234603+763383578+763264866+761927187+758961345+757993923+761063316
3115+764086925+764181735+762948525+762556079+762343473+760626919+758560952
3102+758219060+760186059+762503569+762726078+761847597+760755839+759293335
3088+759405445+760913673+761574841+761830970+762027499+761077498+760347072
3075+762305757+765404431+766799388+767585931+768520283+768532203+767814797
3061+766928247+766755070+766443252+763953420+761424159+761031896+761870154
3047+764225014+767323444+768979359+770258844+771698058+771457394+769922270
3034+769024045+769176133+768748232+766523514+765307970+768218307+772109210
3020+772461800+770762483+769273816+767658307+767137124+768722986+770473100
3007+771781743+773518715+774209591+772686264+770755881+770001553+770466437
2993+773344804+778285652+780973787+780523085+779664471+778242801+777222135
2980+779928180+784800932+787573301+787834259+786404031+784636557+785010114
2966+787400918+790006529+791157460+789503684+786279879+783587405+782210053
2953+782695904+783615646+783332315+783058153+784333053+787961957+791954944
2939+792818815+791618492+790720389+789857252+788967524+789341326+790634015
2926+790767825+789869234+789118573+788709867+788013794+785804665+783714736
2912+784684726+786682839+786314050+785369123+786598237+789334052+790406738
2899+788476905+787160744+788779187+791249580+792205939+791014357+789323415
2885+789056589+789886350+790911111+792107827+792903601+792690750+791841917
2872+790298051+788184832+787649345+790085568+792824928+793437010+793114189
2858+793771200+796621937+799933828+799693653+795628412+791747902+790244197
2845+789945706+790859518+792853475+794517337+796056496+797413553+797815596
2831+796713752+794933256+794956302+796465814+797710272+799231887+800947036
2818+801499150+800575007+799700744+800788896+802692199+802974063+802501355
2804+803099010+803989594+803624411+802888239+803144062+803287837+803267909
2791+804237043+804515240+803506861+803094976+803427027+804602898+805960077
2777+805397082+803616526+802213806+802047597+803143267+804425319+806565557
2764+809171351+809577245+807431873+805214246+805082942+806596121+809196353
2750+811667235+811000505+808747912+808948353+810867428+811704707+811108458
2737+810488063+810570709+810538066+809957833+809914248+811089569+812557391
2723+813198692+813181454+812889442+812411905+812864563+815127303+817380017
2710+817165517+815284587+814244543+815033592+816735293+817539196+816583388
2696+814818419+814630082+816748191+818578384+818164787+816863296+817250547
2683+819232339+820525944+820678888+820953845+821737087+822074334+821918272
2669+821393421+819817279+818568909+819408206+821650834+823213772+823048358
2656+822405957+822057034+821527782+821323918+821550094+820681333+819100851
2642+819291511+821181977+822964367+824315434+825344168+826180653+826713696
2629+825875316+824422531+824328149+824749142+824588373+824853305+825983513
2615+827363860+828070508+827846594+827816090+828341858+829056392+830871791
2602+833113075+832815195+830696719+829741950+829739505+829923563+830567187
2588+830790857+830014217+829568956+830352748+831101452+830771663+830216736
2575+830785111+832182635+832206720+831191128+832283864+835143709+836397886
2561+834917288+833054880+833502831+834847724+834540002+834335954+835297998
2548+835136740+834024381+833922663+834142237+833687195+833638537+834061548
2534+833511084+832258801+831252012+830686816+831027670+832420670+834480890
2521+836322942+837192498+837757144+838396672+838766134+839143726+839681964
2507+840285059+840597855+840184075+839716868+839548764+838919261+837905564
2494+837070791+836742530+837834349+839958938+840779407+839811190+838971648
2480+839485496+840932657+842065555+841594742+839945062+839647059+840577132
2467+840336835+840008697+840799641+841631847+842824101+844296080+844414486
2453+843132801+842337639+842806373+843296259+843499389+843994165+844435209
2440+844637606+844572809+844333552+844467423+844438571+843803321+843645548
2426+844157562+844741891+845218512+844968923+843763649+842026249+840760029
2413+841457569+843597134+845419564+846663349+847371036+847866179+848872601
2399+849086735+847450687+845774171+845117649+844442544+843948930+845587056
2386+849101223+850796932+848783842+845803635+843756558+840697862+836220796
2372+833504787+833580648+833313088+830064098+824849209+820799862+819545868
2359+818548492+817341689+819010869+823004101+828311477+833572824+835224399
2345+832855479+831788844+835076895+837793515+835854758+831972536+829681432
2332+830485030+833714764+836408889+836892234+836501805+836977997+837753537
2318+838131985+839701953+843341494+847191868+848737140+848376542+849146947
2305+851348680+852530053+852949335+854307859+855857349+856299859+856182125
2291+855936877+855161643+854658615+855108706+855855576+855486787+853540266
2278+852916937+854615214+855364162+854463126+853735572+853803914+854287075
2264+854753365+855365141+856027714+857014270+858532218+859042581+857712605
2251+856106509+856396137+858469806+860018195+860193574+859223094+857831744
2237+857872762+858887315+859403180+860167716+861034338+860929074+860346579
2224+860122786+860310818+860563585+861399459+863108678+863888130+863207829
2210+863304474+864616784+864933492+864057946+863856588+864593617+865597778
2197+866199895+866103129+865786910+864424718+862084895+861435036+862788181
2183+863800044+863802245+863938500+864737452+865596983+865993892+865511647
2170+864139981+863339989+864000852+864950486+865344216+865900854+866620033
2156+866133509+864926279+864622653+864687694+864534689+864345312+863730846
2143+863706700+865179596+866821207+867798044+867998362+867479013+867118476
2129+866655671+865611470+865348006+866463176+867746145+868510560+868496194
2116+867615208+867418862+868958694+870735338+871007300+869916764+868894815
2102+868452549+868490265+869237869+869373819+867695409+866046890+866528095
2089+868346551+869143975+868994332+869956192+871009562+870080161+869129977
2075+869762598+870386783+870763702+871536736+871615469+871165990+871563693
2062+871751053+870822141+869829778+869085231+869178085+870576037+871588756
2048+871394245+871350965+872374137+873695312+873868856+872895198+871828931
2035+870895007+869955764+869611610+870910655+873375976+874563706+873859320
2021+873371880+873973570+874484239+874004929+873241248+873303844+873898442
2008+874249627+874537726+874857490+875517803+877136918+878340298+877763059
1994+876406125+875374578+874898202+874588463+874744402+875731692+876919850
1981+878597405+880108017+879872855+878744603+878195423+878681457+879586773
1967+880040103+880386458+880334010+879125434+878084291+878551558+879579193
1954+880495940+881322950+881178442+880340428+879783240+878842164+877910502
1940+878668436+879902013+880534451+881627371+882777324+883015114+882503956
1927+880720649+877983551+877716357+881153379+883374062+882176184+881435243
1913+882537332+883730320+884247102+884457323+884515701+885280299+887000460
1900+887389728+885698786+884207368+884421869+884997701+884825685+885118430
1886+885428291+884211403+882472597+882585624+885092878+887684796+888861279
1873+888910487+887547807+885750501+886135367+887608813+887750815+887420353
1859+888554474+890619951+891496047+891058305+891061728+891307221+890193884
1846+887419864+884776048+885030466+886657773+887738528+889464986+891725463
1832+891225553+887831138+886658262+887838412+888900707+891410162+894050371
1819+893795525+892316578+892961913+894422828+894313102+894096401+894743387
1805+894788194+893295859+891348727+891515731+892878656+892456685+889645132
1792+887298218+889316015+892742584+894363411+895264509+896404437+896687096
1778+895984727+894675901+892232037+888760233+887106213+887828020+889640486
1765+892695270+895466050+895641001+893871508+892204407+892762878+894472403
1751+892749063+888168507+887990378+891633648+894405529+894744487+893822483
1738+893641664+891766909+885251263+883583550+889311125+894659641+896369593
1724+895471857+894434687+893213580+889145894+884964141+887509784+892201045
1711+894802621+894703775+891510168+887977419+886982366+884203639+879571246
1697+880339389+885126132+890012026+892001643+890672889+888604660+884631357
1684+879455835+883524194+889807795+891099934+888334594+886247477+886675989
1670+886605080+886461061+887136166+885649455+883078994+884704589+888349387
1657+889435522+885244294+875676798+874300058+875629729+873883649+875039532
1643+878385227+879103061+877262171+873294735+870130409+874549585+881197758
1630+883997697+882234806+878748087+876662009+879208997+883774210+884738026
1616+883885892+887200901+891308505+893219999+895023417+897468198+897927703
1603+898052222+901558258+906651195+909942058+910429314+908793633+907307717
1589+907946939+910549371+913056503+914313187+914824345+914710829+913046234
1576+911490936+913803068+915987441+915489670+916278963+918917828+920205626
1562+919773690+914331464+904270538+907478266+914628733+919890385+924736362
1549+928768655+929654104+925472596+917970822+910986808+912825926+921831466
1535+926428343+925273439+924613677+925538248+924957342+923386396+920645813
1522+916965744+918724172+923404429+926437696+929480376+931144605+928336108
1508+919688416+915827100+925113648+932321149+934711281+932838420+929336113
1495+929617182+931138981+929830399+927305907+929319730+935169440+939623643
1481+939998423+937798341+934434551+930058776+925945793+925465505+928360621
1468+930211292+928912919+926307797+925984060+925776039+921704134+919088377
1454+922982702+926477001+927929419+929558438+933505089+937206493+938109119
1441+938180945+937739474+935340417+935290597+936941316+936311018+936547953
1427+937770466+936632433+936706643+938377474+934993634+931085310+933857068
1414+937289261+937320498+934924864+933706019+934854505+934532601+931213375
1400+928691755+927334882+922526682+917651791+918963858+920427584+916220585
1387+910491910+908913812+910112546+912296429+913225891+910418617+906808295
1373+907952869+912221852+914489421+914442963+912606657+909386214+909048234
1360+912735578+914987008+913963531+913473707+915127115+915858948+914143555
1346+911676584+910018774+908789782+907250867+907088204+909466660+911605553
1333+912484767+913955339+916751549+920029331+921342008+920471719+920227693
1319+920982205+922431810+924491480+926827452+930334650+934018815+936669660
1306+939606344+942915301+945446273+946845509+946801191+947341629+951309859
1292+956557757+959507767+961017218+963573619+967042122+968970244+968473023
1279+968299967+970460378+973147106+973841589+971653732+968577492+968094575
1265+970843532+974856020+976572391+974560890+973037808+973396633+973465342
1252+974865311+978888801+982833619+984073676+982371425+979982455+979442811
1238+982031978+987038417+990036413+988576415+985800928+984038588+984483238
1225+987971119+991311863+991214363+990090084+991885311+994543064+993557364
1211+991507903+992688787+996143291+999856615+1001560944+998910709+994796871
1198+994857999+998941946+1002398345+1002477752+1000611921+1000983155+1004014955
1184+1006438402+1006742517+1004781447+1002325541+1001650742+1002946731
1173+1004874791+1005452274+1004637061+1004267661+1004764209+1005023089
1161+1004586508+1004066792+1004622574+1005752843+1007131051+1010808492
1150+1014686863+1016038846+1016883767+1017074244+1017177184+1019669462
1138+1022459987+1023538786+1023844796+1022617638+1019923268+1018649591
1126+1019209408+1019883290+1021172311+1022763552+1022017904+1019987087
1115+1017896730+1013814556+1009581333+1007275926+1008305089+1015133774
1103+1022075732+1021907078+1019430204+1020660419+1022570508+1022694354
1092+1025333402+1031590413+1037397638+1041935954+1047153166+1051226537
1080+1050129766+1043889872+1037169995+1036026155+1040639415+1043259268
1069+1041433721+1040640882+1041589477+1042504573+1045176019+1048837139
1057+1050028293+1050639946+1053730491+1055134617+1053053307+1053612145
1045+1056571630+1055238902+1050796191+1048105673+1046530876+1045755764
1034+1047784503+1052461948+1057672435+1059056756+1055254184+1051296957
1022+1049818743+1050641291+1052694971+1051941865+1049471166+1050854997
1011+1054197147+1054676885+1053284007+1053001347+1053763622+1051673999
999+1045750140+1042056622+1042697496+1042463984+1040269219+1039909171
988+1042547486+1046591638+1048920641+1047619333+1044502748+1042926361
976+1045012928+1047799785+1046318270+1042735640+1042887117+1048469633
964+1056243491+1059171800+1053137298+1044791520+1044074603+1050133801
953+1053412621+1052899018+1054001046+1054319527+1050959160+1046454709
941+1042189761+1039654387+1040078009+1041973121+1045144966+1049762383
930+1052504004+1051760924+1052117549+1056429689+1060408189+1062393282
918+1065105317+1065101894+1060548907+1056949283+1055450041+1055684530
907+1059160430+1061897895+1061873810+1063751317+1067931908+1072060784
895+1073741823+1068601511+1062595129+1064540733+1067490925+1063379654
883+1056897812+1053215176+1055515571+1064173471+1070393316+1069071224
872+1066223972+1062736214+1057440024+1055138162+1055560561+1054076112
860+1051734394+1050061302+1044679777+1036156481+1032032495+1033661942
849+1035887148+1034762992+1031319979+1027718888+1023408154+1021172739
837+1023428326+1025790033+1023291520+1016915554+1013622184+1015157492
826+1014718038+1011428276+1008694662+1005550508+1002711936+1003070822
814+1004245960+1001471879+996411829+992808782+993264619+998106561+997989867
800+990305623+985766451+984140734+975397070+960662182+954174778+963561088
787+977270481+979479671+971235673+963717088+963415785+967603834+968554935
773+962266688+953707755+949011604+946826926+944360139+940718152+937253745
760+938977574+943562409+942402798+936227578+932009698+931877599+930175226
746+923257353+917668907+918551117+921053603+918145895+911586236+907860381
733+909138704+914859677+920893018+919998216+914350536+911655067+913515152
719+919278915+923230029+919208311+913413739+910416416+907699307+906017535
706+906247806+907483217+908590502+907448068+905374889+904138989+901398834
692+899078267+900266914+900914634+898562096+895942671+895336030+896623461
679+898987552+904102434+910244278+909554746+899537099+890569153+897648895
665+909038331+904771365+888903946+879269148+884596941+892496724+893427897
652+891859152+892526799+895958136+892115464+876258866+867168235+875117960
638+890273840+906732373+907946267+884570473+869892863+864494466+842820189
625+818850468+824961442+876116558+946025284+961793858+925824086+907695395
611+927625793+945187088+928014327+909711602+913741878+943492539+978462490
##END=
