##TITLE=Sample description
##JCAMP-DX=4.24
##DATA TYPE=INFRARED SPECTRUM
##DATE=25/8/2023
##SAMPLING PROCEDURE=Instrument type and / or accessory
##ORIGIN=Default
##XUNITS=1/CM
##YUNITS=ABSORBANCE
##RESOLUTION=4
##FIRSTX=4397.6552
##LASTX=599.8556
##DELTAX=-1.9287962
##MAXY=1.802756
##MINY=0.7460916
##XFACTOR=1
##YFACTOR=1.6789473e-009
##NPOINTS=1970
##FIRSTY=0.81089616
##XYDATA=(X++(Y..Y))
4398+482978918+481169031+480352397+481106904+482217488+483497129+484778616
4384+485947173+485504225+483065967+481215218+481366134+482765236+483785434
4371+483411216+482478529+481631151+480810718+480697256+481319592+481487442
4357+481472034+482333116+482731333+481612796+480950806+482104808+483891867
4344+484465779+483529293+482956055+483780003+485346387+487388416+488629822
4330+487558466+485809819+485065182+484266582+482901490+482639669+484641475
4317+487403894+488390579+487251275+486005040+485508379+484656101+483942030
4303+484604625+485498048+485650703+485723019+485495385+484927330+485102067
4290+486015336+487115305+488138378+488457392+487690673+486216131+485129297
4276+485516437+487219181+488554914+488401407+487491369+486805841+486919054
4263+487322561+486867223+485817665+485282129+485989988+487415716+488422956
4249+488965663+489127548+488978834+489228052+489660386+489414469+488688789
4236+488016325+487851174+488829267+490855640+492933916+493641810+492564917
4222+491041915+490039681+489681190+489901226+489997967+489909924+489963176
4209+489560628+489188717+489802639+490437010+489999884+489203557+489636920
4195+491382052+492653102+492415741+491644335+491762590+492628925+493092322
4182+492762197+492150014+491837249+491702166+491341616+490674194+490045254
4168+489982524+490437614+491317014+492621861+493335435+492866215+492771250
4155+493789744+494164175+493398556+492635990+491656157+490203945+489387985
4141+490071880+492089201+494347609+495303834+494490147+493755769+494999198
4128+496748023+496707587+495295420+493821730+493151787+493405585+493757579
4114+493785590+493750302+494017448+494607514+495390670+496351617+496981159
4101+496955137+497017832+497501181+497317391+496401176+496028662+495773906
4087+494648624+493675146+494382614+496178513+496931635+496527845+496349913
4074+496303158+496446263+497513003+498399823+498223524+498524361+499443274
4060+498972954+497434403+497082089+498063982+498897550+499485450+500467271
4047+501102174+500602246+499384981+498097069+497577686+498093483+498621812
4033+498713547+498899573+499223522+499251603+499111196+499199381+499083221
4020+498624403+498888426+499795375+499803966+499337303+500017222+501067454
4006+500970181+500172007+499788239+499936705+500148896+500470359+501270734
3993+502668239+504020515+504140402+503148499+502392501+502401589+502684072
3979+502799380+502604159+502068907+501610516+501768603+502184251+502610407
3966+503566384+504485439+504251060+503591163+503628085+503316171+501864101
3952+501052082+501775774+502467160+502269560+501761822+501639343+502492756
3939+503935064+504763910+504514372+503522824+502888027+503766149+504504148
3925+503535817+502768494+503124749+502969111+502500638+503214247+504557790
3912+505649487+506489552+506185023+503462543+500009625+499221747+500641937
3898+503284007+506130067+506920466+505131276+504119847+505767742+507493136
3885+507116326+505424374+504131740+505107065+507217149+507342504+504600108
3871+501159757+501127735+504585091+506520367+506442904+507519336+508712141
3858+508199645+505641819+501292177+501100896+505435699+509287579+510568747
3844+509828831+508494163+506449188+504903749+506312259+509053804+511077621
3831+512289774+513124656+513312812+512212417+509022563+505358520+506165497
3817+509370901+512214547+514737759+515857751+514308195+511402670+510742632
3804+510619585+508471371+508621967+511252961+513249265+515137964+517269421
3790+518789866+519321887+519149600+518843615+518227030+517006037+516947744
3777+518692806+520135397+520027012+518050873+516155677+516439190+517341701
3763+517420230+516046724+513820018+514184189+516676480+516584709+512049821
3750+509570098+511283563+512921234+514799602+517280178+518440747+516643357
3736+512005303+509941583+513072895+517287562+519576537+519262529+518531240
3723+519734198+521909676+523266284+523326920+521856921+518184003+515918103
3709+519696531+525104216+529193564+532295943+535091165+538554627+542790630
3696+546372843+547616876+546182557+543495542+543044996+544730061+545075487
3682+542538501+538148955+533209957+527214940+524212568+525469701+525335152
3669+524892842+526833941+528679081+528872562+527467247+525201951+522724819
3655+521311765+520455121+516304569+508538362+507114090+511245968+514153622
3642+514312348+512736734+510653027+508035665+505121940+502547038+498183443
3628+492999416+492851837+494577941+494820130+492456957+488802854+487139162
3615+486112396+484445260+483320156+482270740+480542684+478881334+477906968
3601+477476587+476777604+475214628+472850532+470984057+470316456+468616588
3588+465356655+464933552+466940044+467960881+467623868+466086346+463767302
3574+462248667+461343351+459113591+454709738+451047293+451548925+453567842
3561+454257134+454032695+454213822+454012743+452756143+451605229+450737971
3547+449816572+449685680+450482930+450902199+450327293+449641481+449600335
3534+449728210+449292930+448407210+447746142+447231659+446374944+445707948
3520+446022772+446957199+448071475+449048326+448620963+446637724+445048477
3507+444598571+444401752+444380593+445048548+446030618+446368589+446021139
3493+445866993+445872283+445745685+446087597+446796556+446792190+446150967
3480+446024618+446539350+447121392+447570589+447858362+447829002+447522414
3466+447051668+446215828+445730526+446358898+447223245+447594588+447509385
3453+447680643+448876962+449919455+449742765+449532066+449779616+449691040
3439+449579744+450055283+450487723+450800559+451756500+452833535+453365947
3426+453661920+453686807+453770838+455088110+457435414+459296777+459981454
3412+459868311+460286764+462272098+464636193+465761546+465735204+465566112
3399+466138391+467453640+468764096+469638171+470583461+472410566+474635355
3385+476325603+478381903+481951300+485957611+488352557+489129892+490783786
3372+494415559+498241701+501153687+504061235+507681825+511394789+514798644
3358+518762424+523607202+528325276+532159512+535392535+538644977+542214801
3345+546419030+551229514+555264261+558154627+562173717+567408795+571263338
3331+574192365+577024366+578166689+578702615+580809682+583181624+583919836
3318+583625744+584551615+587060875+589050895+590352440+591311611+590881337
3304+590637231+592349383+594737797+596153904+595198709+591754276+588043051
3291+585198553+582674418+580824060+579459465+577161401+574378711+572449291
3277+570782332+569220564+569011888+569275413+567978093+565080875+561588871
3264+559127004+558774975+559372921+559466751+558522987+557026469+556240366
3250+556527642+557336324+557636096+556696060+555491859+554841619+553748644
3237+552061662+551217586+550832966+549670230+548412423+547441500+546743653
3223+547116771+548272264+549368079+550057726+549865167+548994429+548521482
3210+548982678+549717873+550030319+549867368+549469932+549530355+550272544
3196+550870739+550714676+550737538+551646156+551597697+550288590+549949731
3183+550070435+549487683+549607216+550987715+551966057+551464106+550709812
3169+551396334+552924448+553676789+554151121+555201530+556093711+556866252
3156+557724956+557610038+557032824+558109185+560585607+561794387+561318458
3142+561312920+561926629+561860952+561537997+561528057+561817853+563188697
3129+565249754+566032094+565285824+564698030+565462655+567030921+567670617
3115+566949729+566570470+567552256+568740552+569366829+570419581+571886633
3102+572319925+571975421+572082812+572243917+572284885+573066977+573867990
3088+573517132+572864975+573153067+574431288+575701237+576053799+575956561
3075+575960822+575864649+575736205+575808131+575883109+575803303+575955248
3061+576631404+577417649+577607403+577473102+577927943+578944981+580139526
3047+581006075+581372837+582091772+583192736+583695717+583273536+582946570
3034+583732141+584635291+584277049+583303215+582949588+583141365+583577995
3020+584274812+584772148+585062016+585852166+587383723+588682819+589003288
3007+589221585+589946803+590762763+591363514+591753140+591955142+592666160
2993+594637222+596373586+596673784+596915050+597605122+598023681+598376918
2980+599161992+600538657+602485188+604295749+605089485+605288150+605747749
2966+606188176+606204791+605982127+605799296+606156438+607019544+607829326
2953+608389890+608555325+608925674+610213942+611426094+611642084+611356938
2939+611004624+611246600+612569020+613556593+613795516+614725718+615619141
2926+615228131+614557584+614538556+614675874+614194549+612963225+611366310
2912+610577687+611485737+612774785+613489992+614305455+614879580+615223800
2899+616546078+618284926+618839952+618313256+617956682+618297707+618843857
2885+618931261+618632838+618606070+619093218+620274698+621983015+622989900
2872+622947867+622952766+623682600+624734784+625450844+626011976+626961562
2858+628074524+628879976+629145099+628256929+626451551+625513965+625656893
2845+625498628+625225127+625569560+626211208+626916049+628021060+629502596
2831+630806058+631704522+632282837+632691455+633169089+633410923+633083673
2818+632915397+633758408+635396931+636941375+637912546+638667017+639280904
2804+639199748+638677100+638701241+639652389+640997032+642133284+642875188
2791+643092171+643195196+643767120+644755473+645915368+646665225+646751919
2777+646716347+646925520+647517893+648224935+648380217+648149104+648501773
2764+649570288+650756880+651781303+652514048+653130845+653320990+652738841
2750+652770650+654112312+655595623+656395465+656385240+656312392+656893121
2737+657151285+656677486+656819633+657994155+659636653+661346675+662585454
2723+663423921+663930595+663414052+662402055+662353418+663207435+663684358
2710+663635793+664279571+665548455+666476812+667428812+668404243+669226593
2696+670418510+671163680+671034669+670971690+671260740+671673619+671838771
2683+672150684+673181213+674098919+674236948+674098635+674305607+674650750
2669+674803831+675181990+675897552+676797863+678043316+679409260+680025632
2656+679495954+678804177+678733388+678831584+678786995+679119570+680290116
2642+681649741+682101245+681797497+681732245+681890297+681678781+681509582
2629+682165431+683865441+686171528+687899514+688324037+688077588+687966611
2615+688361384+689337383+690259421+690692038+690973492+691243869+691734353
2602+692420379+692779793+693186140+693835954+694035754+694065362+694690538
2588+695554070+696201967+696869034+697389411+697944933+699104758+699562794
2575+698478729+697960057+699028998+700025943+700125133+700207283+701034532
2561+702287298+703077271+703505628+704162614+704760454+705078403+705357300
2548+705558876+705604530+705613761+705584721+705550498+705456987+705098496
2534+705271884+706629166+708030753+708928792+709902519+710346710+709866875
2521+709668495+710136259+710589325+711047432+711492901+711699660+712391437
2507+714078738+715532725+715505247+714549342+714006954+714819080+716357205
2494+717035065+717108623+717766816+719082774+720564381+721343490+721168115
2480+720935724+720917831+720935795+721120543+721239046+721217958+721317220
2467+721660942+722389640+723392052+724412427+725113008+725214328+725443382
2453+726413346+727360447+727709921+727574306+727274676+727518285+728283833
2440+728796470+728899921+729025169+729489525+730112003+730349790+729836017
2426+729091485+729041784+729612430+730171858+730532479+730868533+731374000
2413+732031269+732807325+733469990+733697482+734339983+736039070+736821162
2399+735426036+734239514+735002222+736322299+736936541+737206634+737355384
2386+737245472+736980065+736456777+735232696+733144018+731037022+729284257
2372+726576083+723078292+721053588+720670814+719670958+717099535+714353162
2359+713912237+716839098+720440127+723655116+728678393+733448122+734060517
2345+731214102+728896442+728622870+730086868+731843325+731884081+730763095
2332+729885221+731030632+735005417+738456986+738729919+738261161+739740283
2318+742111196+743647048+744991763+746852168+748364235+749463494+750818646
2305+752485924+754712986+757086454+757952754+756758139+755555216+756313806
2291+757930104+758839929+759253021+759448278+759683864+760235978+761024602
2278+761857034+762133304+761770766+761787594+762578916+763095032+762793698
2264+762859872+763996549+765042202+765132446+765006275+765631806+767120016
2251+768626119+769334581+769756690+770456490+770678869+770474808+771036792
2237+772033737+772599129+772903020+773267901+774149183+775175167+775254122
2224+774577469+773852748+773510871+774035295+775173037+776299064+777240698
2210+777808788+778088893+778368145+778377873+778079308+777823983+777780600
2197+777927788+778054173+778486435+779680412+780969389+781551680+781720027
2183+781699933+781264475+781344637+782763194+784336607+784804939+784241322
2170+783505169+783430687+783837815+784250836+784885101+785969023+787146740
2156+787726901+787630053+787540874+787847321+788486626+789351933+790392615
2143+791137430+790864639+790445583+791031139+791482502+791252596+791766085
2129+792716736+792798602+792889982+793748117+794117969+793600929+793615627
2116+794644807+795523319+795748326+795914613+795872012+795276657+795243570
2102+796517850+797705507+797626410+797239092+797776083+799133507+800771746
2089+801888968+801760241+801134639+800498031+799753003+799998743+801036585
2075+801356663+801601338+802659629+803478215+803451518+803205353+803309158
2062+804194203+805388748+805658841+805504198+806203003+806779117+806093234
2048+805447325+806040408+807139951+807824769+808406066+809389662+810120774
2035+810167493+810522434+811608203+812015189+811026196+810045369+810297286
2021+811614167+812832639+813100176+813052818+813295362+813831856+814728688
2008+815379354+814739480+813339384+813028464+813854364+814597688+815088102
1994+815345627+815549688+816194319+816959512+817567506+817985639+817673015
1981+816960861+817098890+818407464+820271064+821612157+821709289+821034766
1967+820833758+821971642+823336948+824089928+824961198+825475185+825181661
1954+825094683+825404608+825722060+826044056+826101568+825864065+826512672
1940+828509188+830021966+830068401+829969637+831023951+832645362+833248883
1927+832183918+830388338+829509967+830051645+830720558+831462959+833112061
1913+834224811+833857231+833371007+833710753+834463805+835124553+835647273
1900+836077121+836317677+836396703+836261941+835707412+834767198+834872992
1886+836669849+838333578+839386969+840651309+841426442+841185176+840909048
1873+840537705+838653798+835893793+835889888+838776349+841295585+842277690
1859+842641577+843389800+844878011+846520083+847264259+846256451+843471666
1846+839905003+838434046+841458677+845183818+846932252+848314953+850016171
1832+849984006+847602870+846122257+846684383+847469101+848838170+850861170
1819+852408383+853078788+853381329+853118833+852150148+852167117+853037110
1805+852846610+851917331+851429899+851378707+851733861+852144964+851382612
1792+850994655+853889706+857142184+858355544+858729159+858726958+857893887
1778+857710204+857771337+855720219+852235919+851885380+854252103+856424918
1765+858210842+859242293+859374855+859136429+859029570+860507698+861723685
1751+858483775+852869544+852027171+854827506+857259906+857740806+857285325
1738+857926619+856265021+850405264+850861383+857122446+861705083+863260958
1724+862848292+862409355+861510607+856678468+850850307+853326941+859332253
1711+863149271+863566340+861146649+859322171+859512245+857071466+851401924
1697+849391775+853041938+859407019+862661343+861537872+859095034+854517510
1684+848890995+852337594+858450120+861068830+859896368+857087371+854513676
1670+852037538+853227822+857025740+857301088+854164841+853868477+855974692
1657+855816996+849813175+837950875+837676095+841556874+840757813+842541819
1643+848189989+850605561+848404771+842433966+836816327+839206268+844391573
1630+847728686+849795424+851293504+851331490+852664276+856739246+859224401
1616+859674698+862934986+867442432+870350548+872253483+874562197+876744811
1603+878856423+882188991+885776032+887761757+888809823+890160715+891129187
1589+891549167+892629113+894331467+895767348+896844526+897324147+895821452
1576+893637347+895617959+898112273+896950887+895520331+897226732+899592461
1562+898986100+889817347+878500061+886069485+895654099+901519182+905155854
1549+907326894+908066668+905171403+897277924+888679818+892553709+903705772
1535+909819291+911320779+913250766+915911794+916867558+916113370+913471158
1522+909791316+909670825+911203057+913235714+918146240+922691671+922910998
1508+917017089+913326739+921949057+929235395+931615892+931122070+930912045
1495+934194486+936691712+932922549+927141747+928590835+933625473+937902658
1481+940337898+939566244+936081659+931329042+925961474+924795118+928299299
1468+929616749+927958416+928443150+931890032+932724950+927425827+925166531
1454+931823006+936348557+935741984+932084437+930635420+934600336+941353800
1441+948052025+952234350+951539521+950316859+951653551+951070337+950013608
1427+952927902+956888132+959144801+959264511+954258203+948668397+949723918
1414+951378700+949315016+945220591+940798846+936840888+935972954+937429427
1400+935898686+930766632+926471200+924227737+923140691+921778794+917940759
1387+913277392+912740330+914912648+915885310+915856696+916160445+916057917
1373+916151072+917535193+918641056+919241523+919165976+916909946+915173227
1360+917077299+919473630+919637574+919353068+920586237+921027375+919689193
1346+919422579+920165335+919291295+917691895+918625080+920497058+920766299
1333+920977745+921529788+922427259+924558396+926375205+926558675+926235401
1319+926750737+928787512+931965295+934451373+935554182+937916503+942503329
1306+946730670+949193956+950862726+953459710+957480079+961526434+964484962
1292+966356657+967553970+968609634+970391936+973812761+977564528+978035912
1279+975578093+975761706+979589374+982128065+982172583+982372526+982992093
1265+982871460+982202546+982764175+984975545+986331833+986796331+988566207
1252+990915180+992144089+992625344+993479006+994044327+993778281+994447336
1238+995634425+995821091+996103680+997475234+999429362+1000122913+999448248
1225+999355661+999732755+999929432+999832868+999879730+1001425310+1004055097
1211+1005716908+1005204200+1003466771+1002445686+1002222454+1002201579
1200+1003864385+1007072628+1008336755+1007207036+1006524703+1007418481
1188+1008808637+1009728686+1011590085+1014760555+1015559971+1012215900
1177+1009000343+1009639152+1011804938+1012514252+1013115571+1015008566
1165+1016496493+1016067212+1015461562+1017211061+1020087297+1021228590
1153+1021665751+1022464102+1022280348+1022286454+1023123076+1022457499
1142+1020580977+1021010754+1025382940+1030865532+1033623337+1034438586
1130+1036447670+1038051401+1035795868+1031406855+1028670706+1028973603
1119+1030983467+1032252209+1032151528+1031357224+1029701590+1026490223
1107+1022328701+1020255857+1021705939+1024010961+1026463668+1029861417
1096+1030947185+1029958903+1032413243+1036621271+1037169836+1038058431
1084+1042880630+1046172585+1046668963+1047961135+1048226471+1046859391
1072+1047429540+1048673716+1046891697+1044953119+1048174711+1055048879
1061+1059483050+1061739222+1065122132+1064760090+1058429587+1055566203
1049+1059349920+1061613051+1059587565+1057196844+1056847725+1059624629
1038+1063236876+1064916225+1065806737+1066393714+1065625468+1064843021
1026+1066078960+1068181696+1069789616+1071468823+1071317872+1068154857
1015+1065688092+1065815328+1066402518+1066025708+1064589188+1062468275
1003+1060334724+1058772742+1057459056+1054955582+1051940891+1051343122
991+1052933789+1054195785+1054562584+1053840134+1051895875+1050722916
980+1051763882+1053201468+1053315710+1053305486+1054115339+1056391747
968+1060472326+1062945553+1062588553+1063101332+1064262790+1063558375
957+1063354953+1065634485+1068215351+1070001275+1069532659+1066006253
945+1064807449+1068079808+1070049485+1068432263+1066313623+1064912320
934+1064905432+1067520380+1069463147+1067094649+1064151174+1063997951
922+1064911751+1066536641+1068563263+1070297710+1072722584+1073741823
910+1071708953+1069078456+1067307514+1066160755+1064405788+1062034166
899+1061116318+1062996178+1067684466+1072407901+1073615510+1071602095
887+1068493823+1065413951+1061973743+1058266211+1056577703+1056899770
876+1056677887+1055164045+1052176264+1048608748+1045679615+1042368205
864+1038652295+1035630859+1033110344+1030608788+1028170139+1024234476
853+1017635087+1013011482+1012586462+1011744089+1010689419+1012933095
841+1014755159+1011233653+1005904142+1003463931+1000390592+992194572+983033274
827+978838737+979107907+980340082+980294428+978248636+974880921+971917707
814+969722383+965603250+960466439+958577492+958309813+956737535+955323807
800+954145593+950410796+944311050+938508805+934100621+932612837+933253634
787+933022876+933084719+933430287+932451093+931570522+929694851+924906307
773+918614927+912643838+908061556+904810782+902644996+901295382+899010454
760+894909497+891390831+890582256+890658370+889101927+886430746+884760840
746+884741669+884705458+884195661+883249838+880746506+878381558+877955047
733+878462359+878995161+878728973+877330652+875742825+874013136+871421619
719+869812492+871288703+874143283+875953986+875491122+873188514+871226647
706+868581807+863161768+857978522+855753519+854908804+854967381+856691745
692+857559750+854438413+849178342+846122257+845599253+846462784+848578798
679+849170887+846939707+844431406+841392929+834305611+824626493+823794984
665+830921424+835512581+839002349+840208467+838203501+837541120+836290341
652+831441801+825760757+821572751+820742733+823040016+823233284+819065514
638+815471870+818244087+827715311+831432925+820438630+807277838+801993484
625+803460962+809193624+810462721+801442860+793382526+795290857+796041921
611+786942466+779669619+781567016+784871255+783913788+782042591+781611180
##END=
