##TITLE=Sample description
##JCAMP-DX=4.24
##DATA TYPE=INFRARED SPECTRUM
##DATE=25/8/2023
##SAMPLING PROCEDURE=Instrument type and / or accessory
##ORIGIN=Default
##XUNITS=1/CM
##YUNITS=ABSORBANCE
##RESOLUTION=4
##FIRSTX=4397.6552
##LASTX=599.8556
##DELTAX=-1.9287962
##MAXY=1.9736602
##MINY=0.63326395
##XFACTOR=1
##YFACTOR=1.8381143e-009
##NPOINTS=1970
##FIRSTY=0.68534702
##XYDATA=(X++(Y..Y))
4398+372853315+373751934+373773822+373410087+373639963+374536701+375583965
4384+376091741+375370660+374184835+374096406+375125479+376176862+376735710
4371+377078982+377502285+377473782+376309359+374809704+374236167+374238469
4357+374334291+375106509+375792471+375456786+375509318+376374213+376380374
4344+375196981+374232146+374407122+375227851+375738156+375764649+375948899
4330+376800823+378276708+379616108+379584719+378073650+376464327+376084898
4317+377004724+377942029+377632415+376734348+376708536+377389439+378021118
4303+378233159+377941088+377761702+377590098+377127169+377077588+377382305
4290+377788259+378644431+379505694+379967261+380227877+380363681+380651374
4276+380843959+380241302+379280099+378676372+378458948+378608794+378874047
4263+379042700+379202306+379262394+379732813+380890459+381565461+381177536
4249+380557012+380679067+381537087+381905232+381338828+380824146+380707214
4236+380708316+381220858+382241046+383167195+383780391+383884579+383763497
4222+383813953+383588293+382872044+382155309+381976506+382396566+382951880
4209+383093781+382693566+382136404+381761450+381748252+382119769+382447055
4195+382409278+382578806+383489812+384379092+384436845+384087605+383978067
4182+384217638+384708389+385210878+385372787+385155266+384899449+384794774
4168+384682188+384573492+384725348+385386763+386612798+387561743+387192626
4155+386120295+385925603+386526574+386529298+386223057+386692438+387289129
4141+387349573+387325415+387190842+386879834+386812840+386717245+386280971
4128+386183852+387074721+388494378+389186015+388684757+387996914+388027461
4114+388430140+388572365+388448947+388197735+388095201+388555211+389187247
4101+389376718+389110784+388619481+388524762+388847152+388931332+389198110
4087+389856768+390230231+390426868+390773903+391249089+391701479+391527637
4074+390659630+390163107+390491690+390944729+391117922+391240885+391398675
4060+391204145+390857338+391177069+391924901+392470519+392870637+393057352
4047+392841550+392649160+393233139+394398308+394822584+393887420+392748451
4033+392544258+393037733+393601964+393891635+393819161+393610330+393661889
4020+393981036+393985511+393573623+393267447+393161961+393131739+393643665
4006+394665183+394987670+394625557+394589790+394787724+395062511+395295824
3993+395077752+394660610+394454309+394746964+395378286+395415577+394877126
3979+394868500+395508740+396049721+396151996+395824255+395207558+394836819
3966+395032841+395392651+395476475+395350788+395792509+396933877+397245923
3952+396079165+394466502+393854863+394879947+396023293+396378239+397006935
3939+397928804+398335796+397822638+396584800+396109743+396889484+397473820
3925+397542825+397930782+398275514+397563448+396496631+397011345+398570471
3912+399474667+399556383+398693856+396238154+393483735+392818072+393890176
3898+395909409+397846569+398185205+397294758+397665237+398900611+398579032
3885+397392525+396985112+397015139+398266597+399460464+398722846+397029148
3871+395591202+395702362+397232952+397566172+397643997+399270668+400592817
3858+400402502+397839176+392857147+393273802+398264521+402003913+402956685
3844+401069916+397905294+395424430+395112190+397506701+400164391+401717809
3831+403069823+404416648+404931882+404347935+401834027+398232094+397751785
3817+398706081+400246107+403524904+406292456+406606188+404614388+402852432
3804+401629153+399994959+400485289+402606083+404738519+406979586+408430405
3790+408553077+408217165+407905670+407701088+407625014+407217827+407474455
3777+409087085+410241878+409695709+408043842+407293739+408025910+409241827
3763+409889007+408598831+406209022+405689216+406009238+403954368+399561507
3750+398702643+401677372+403842527+404586663+405705786+406653078+405612299
3736+402571159+401543740+404414573+407977593+409774961+409526764+408915222
3723+409305255+410394188+411826718+412940328+412530645+409583317+406753569
3709+408638814+411973353+413345245+412955180+412730039+413769034+414653288
3696+414476982+412991109+409644928+406726039+408948298+413447066+416005042
3682+415753603+413390059+409814100+405397372+404147147+405699495+406137423
3669+407809719+410869277+412224306+411756643+410657495+409242346+407254697
3655+405608505+403793627+398798530+391913195+392159187+397078242+400271919
3642+400511522+399352871+398206055+396671348+394726470+392771377+389017037
3628+384790527+385195767+386798345+385960495+382391637+379225330+378569492
3615+377865760+376291102+374882860+373751512+373739384+374720822+374676688
3601+373055757+371131762+369377977+367512610+366143507+365207825+363199487
3588+360542122+360521044+362215228+362951290+362499290+361507119+360289093
3574+359326529+358657591+356901276+352808592+349145404+349558914+351491373
3561+352549111+353135749+353627408+353236467+352072660+351200858+350628586
3547+349907765+349133698+348756993+348829824+348750054+348340857+348073755
3534+348085007+347884705+347186810+346516899+346078226+345378223+344884067
3520+345496485+346820254+347667120+347547366+346926648+346156181+345539126
3507+345262718+344853748+344518257+344847327+345419535+345688842+345614422
3493+345557545+345659366+345617373+345258859+345086055+345622756+346325353
3480+346449289+346309301+346523190+346819671+346717428+346573193+346674333
3466+346706111+346568393+346819476+347608394+348410153+349073319+349211815
3453+348414563+347560272+347521814+347804610+347833503+347950921+348695576
3439+349946839+350875874+351156887+351043068+350993552+351631847+352533254
3426+352898221+353008991+353448605+354439057+355894838+357403831+358759444
3412+360052311+360915909+361405233+362481649+364286929+366015583+367315421
3399+368518595+369853033+371209328+372485949+373644503+374850044+376554248
3385+378781565+380711267+382191238+383991426+386131677+388023440+389548484
3372+391448386+394241004+397345539+400197109+402797662+405306512+407867179
3358+410723647+413693868+416238874+418800384+421818987+424794397+427390053
3345+429765109+432402499+435699098+439576467+443364661+446044336+447509423
3331+448815196+450607569+452392193+453377197+453666057+454264272+455261339
3318+455828164+456042085+456156261+455800666+455386832+456193844+457801902
3304+458316487+458244369+458921122+459073432+457840912+456318461+455157053
3291+454271665+453538457+453083570+452676156+451361888+449222188+447387368
3277+446007596+444497727+442744202+441244483+440567795+440560401+440467919
3264+439692329+438085309+436160406+434632962+433372651+432144185+431796048
3250+432816430+433694620+432876193+431399562+431017733+431586342+432037467
3237+431887233+431553558+431462308+431324785+430661814+429427964+428334329
3223+428062980+428440787+428779585+428574030+428129066+427867477+427816145
3210+428182311+428780591+428957059+428866490+429085470+429273676+429135213
3196+429435033+430370262+431265930+431788200+431666534+430874698+430363518
3183+430999963+432213546+432995006+433191546+432945392+432643237+432844609
3169+433205101+433342138+433814211+434765394+435798358+437078319+438374201
3156+438646524+438242483+438551577+439318510+439640770+439622222+439567614
3142+439825539+440418468+441084098+441788965+442080582+441820841+441680854
3129+442073805+442817098+443531174+444276186+444916328+445053819+445237389
3115+446035516+447071042+447827695+448168989+448283976+448391666+448644467
3102+448994355+448961961+448765356+449383221+450430939+450767727+450606434
3088+450814649+451582392+452292642+452485842+452727294+453584730+454520705
3075+454964988+455268181+455626468+455586939+455008148+454364277+454366482
3061+455150309+455643168+455340234+455520496+456397421+456422001+455543065
3047+455276969+456155158+457415663+458084633+457937317+457601081+457356386
3034+457051410+457009352+457536875+458469024+459358920+459636463+459611267
3020+460245994+461393653+462277323+462736490+462780461+462754454+463259246
3007+464079100+464608050+464991468+465885871+467111452+468118831+469310622
2993+470831160+472167382+473308490+474337076+475206997+476178382+477479485
2980+478806465+479656476+480239742+481135669+482274377+483126788+483232986
2966+482490990+481559004+481392394+481948129+482194153+481809276+481677201
2953+482342993+483326246+484210824+485087847+485936884+486585425+486853046
2939+486746361+486660202+486943291+487745763+488797535+489368575+489174759
2926+488631605+488329872+488170622+487279819+485884904+485273102+485410755
2912+485602432+485939187+486329868+486625440+486980290+487316072+487559372
2899+487909422+488684040+489490696+489606136+489568747+490121791+490813136
2885+491299704+491817143+491960632+491422927+490977995+491316566+492266809
2872+493042723+493276685+493481948+494033208+494889704+495661144+495814362
2858+495478839+495198766+494942982+494406606+494077795+494405795+494742712
2845+494670465+494817165+495527577+496048777+496061294+496588201+497885737
2831+498943054+499438280+499717574+500006694+500506752+501123417+501504435
2818+501717805+502187154+502827070+503239542+503550161+504185537+505305081
2804+506514351+507099497+506926272+506751620+507048198+507367118+507687465
2791+508562250+509514016+509672293+509529549+509960472+510828123+511666006
2777+512312764+512825598+513128239+513061018+513012799+513386910+514032889
2764+514709123+515174452+515535689+516298730+517132689+517345930+517467758
2750+518176354+519177118+519960621+520375460+520650993+520957105+521218304
2737+521449899+521745795+522063743+522327115+522684397+523172327+523601953
2723+523900639+524016922+524327411+525359921+526463609+526818523+526857338
2710+527174475+527800447+528439097+528917624+529350849+529532473+529658387
2696+530327001+531073958+531248156+531275719+531761639+532329502+532490145
2683+532866721+533742997+534360668+534502147+534664088+535251439+536246918
2669+536943451+536769512+536427601+536746619+537307607+537527819+537662813
2656+538166210+538955323+539429277+539333617+539250506+539835912+540929547
2642+541684838+541628545+541172653+541184262+542111968+543139257+543295134
2629+543094151+543326945+543750507+544192228+544899917+545617138+546063464
2615+546395258+546602402+546851507+547505690+548215584+548477400+548435180
2602+548521500+549021526+549712546+550282549+550624071+550603123+550727967
2588+551423463+552225579+553050134+554020806+554688803+554781480+554706508
2575+554828888+554921824+555137788+555876801+556589548+556855839+557173494
2561+557565797+557566056+557406969+557555679+557892013+558090077+558134827
2548+558374268+558995960+559537686+559681598+559692558+559709225+559981613
2534+560714789+561402891+561690584+561897922+562295673+562625067+562681620
2521+562884872+563668959+564887178+565873285+566195805+566223303+566335501
2507+566360729+566353595+566705169+567307080+567926437+568536260+569035054
2494+569468992+569819334+570126094+570557245+570857389+570933009+571217784
2480+571740767+572193709+572736667+573391175+573715900+573764605+574072208
2467+574701034+575052024+574831455+574572234+574787420+575436739+576259349
2453+576917294+577252914+577581659+578056975+578349921+578252835+578035054
2440+578163466+578680872+579120583+579194711+579294003+579849284+580631035
2426+581197795+581508641+581871500+582277876+582454928+582554155+582900411
2413+583472554+583826203+583803439+583887620+584147750+584369097+584788184
2399+585329003+585719944+586112895+586440019+586536587+586751773+587376642
2386+587961691+587930691+587474507+587061321+586613763+585639135+584138411
2372+582605649+581039422+579486879+578362244+577559544+576618057+576147929
2359+577473547+580102798+582430802+584180436+586143700+588026480+588476503
2345+587068844+585326084+585095269+586128395+586918772+587547079+588960899
2332+590478420+590911062+590741144+591274504+592686768+594003631+594710670
2318+595596902+597172403+598614759+598987735+598719822+599268942+600849826
2305+602174148+602825867+603276668+603685767+604218868+604844321+605556160
2291+606567885+607416501+607627990+607601530+607885266+608505661+609288256
2278+609940883+610043871+610082589+610614068+611076802+611213385+611403667
2264+611748432+612049939+612264930+612613132+613174509+613921434+614587551
2251+614796575+614872714+615248674+615707387+616094306+616418966+616510605
2237+616626370+617264664+618103682+618616743+618969160+619222869+619362565
2224+619591435+619751819+619967654+620610099+621415587+621950698+622150968
2210+622356102+622769741+623098681+623226768+623523670+624110405+624619445
2197+625132896+625844864+626266286+626347743+626649639+627016973+627091036
2183+627337936+627958136+628424437+628577946+628697343+628980626+629307750
2170+629655238+630316167+631114586+631640747+631770845+631537110+631381590
2156+631767407+632560249+633110277+632991205+632863247+633281816+633824645
2143+634449774+635185025+635682910+636094993+636543395+637035572+637598247
2129+637828738+637670235+637648898+637869272+637875628+637828155+638226164
2116+638603161+638805571+639426484+640161152+640536528+640888232+641465368
2102+642091535+642559976+642853441+643083608+643274279+643395557+643384402
2089+643205210+643178295+643590703+644150653+644522916+644855164+645269711
2075+645502148+645666943+646272939+647201780+647891763+648181207+648327842
2062+648400868+648419287+648721118+649248382+649731804+650191101+650431451
2048+650471725+650869346+651670489+652176351+652207416+652442642+653259025
2035+654135075+654293578+653888564+653795693+654183521+654542683+654885178
2021+655550711+656060334+655934323+655909289+656628002+657614952+658238849
2008+658440870+658646328+659285660+660151203+660688908+660966030+661198726
1994+660974461+660362497+660277928+660735927+661225511+661888061+662743162
1981+663599237+664386566+664941004+665322022+665768088+666047869+665858365
1967+665899612+666934749+667906329+667911971+667932400+668418547+668745930
1954+669120982+669998782+670991828+671632847+671812038+671191190+670517939
1940+671252866+672342934+672813581+673439034+674320207+674944103+675149172
1927+674999100+674490643+674198022+675056885+676028464+676160637+676817285
1913+678076039+678350826+677703971+677529643+677891853+678388311+679201841
1900+680170438+680757627+680872289+681098954+681432045+681491386+681867281
1886+682637618+683239594+683805381+684544589+685323552+685882659+686110427
1873+685741536+684231084+682453692+683021425+685413050+687249330+688257552
1859+689105260+689924497+690662797+691336437+691619525+690939010+689531092
1846+688334923+688642137+690703914+692561271+693475909+694380948+695515636
1832+695220809+693131209+692289338+693108770+693736428+694784990+696432414
1819+697851422+698878257+699305776+698670530+697883265+698624613+700279106
1805+701093155+700474706+699134237+698664628+699242867+699370176+698303585
1792+697710689+699995888+702974379+704054719+703606836+703060440+703265250
1778+704561943+705695593+704993093+702871196+702951550+705196670+707107532
1765+708101421+707830915+707214152+707387961+707719949+708189753+708047917
1751+706005207+704060426+705397264+707862110+708960674+708926106+708830382
1738+709289289+708791988+706765362+707624419+710984252+713985312+715571579
1724+715399650+714485013+712949332+709146935+705818427+708817930+713856706
1711+716537775+716239771+713756636+711415402+710268457+707501586+704582826
1697+706306065+710547913+714249008+715549658+714361660+712191187+708688092
1684+704736530+706718926+711406193+714548959+714734442+713396696+712425894
1670+710757522+710426182+712405400+713215753+712846149+714107172+715927563
1657+715664190+711116425+704269710+705932440+708733684+708282883+709258938
1643+712220372+713267247+711564761+707989613+706743571+711783060+716719237
1630+718829785+720254759+722884140+725722740+729060133+732489425+733955128
1616+735448588+740044930+744890051+748066606+749521998+750652989+752467607
1603+754476917+756480910+757915288+758271143+759044658+761339002+764068907
1589+766073418+766925796+767660074+769717895+771879742+772101738+770244122
1576+768730880+770607823+772590998+772301683+772728877+775354172+777831794
1562+778737417+775326934+769004240+772381713+778634559+783322020+786503374
1549+789409876+791505767+789935714+784398663+779152808+783163192+791957022
1535+796696626+798653469+802461185+806556203+807769819+807096633+806544270
1522+807251310+810599145+814676329+819356397+825059084+829690058+831227165
1508+827739570+825039239+832561928+839762875+842364823+841871218+842648819
1495+846595517+849593269+847825086+843921322+846524696+853110243+857623376
1481+859724520+861643813+862657353+859892038+854485085+854224631+859623931
1468+863230599+862919104+863171646+866258962+867460060+863799629+862619478
1454+868789310+873532481+874739027+875902316+880143386+885309471+889051554
1441+892475462+895318278+894855673+894501635+897260399+898401248+897668656
1427+898337367+899333656+900616859+901947925+897871909+891135122+891044196
1414+892930025+891885549+889770267+888961017+888808156+888624360+887818093
1400+884838824+880682259+877457647+875392497+875860485+876426921+873095170
1387+868750981+868677631+870338481+870886693+870814250+869408083+866959516
1373+867537042+870989162+873069358+872569203+869331166+864103016+862353836
1360+867456493+873530795+874168311+870945126+870062591+871490744+871357598
1346+869911611+869645968+870262407+869996051+870024911+871650544+873001650
1333+873764724+875112782+877025654+878590389+879413388+879550360+878826264
1319+878707905+881032536+884735317+888392052+892036400+895831339+899626602
1306+902698871+904418543+906044630+908472834+910237125+911878713+915529740
1292+919887224+922797358+924896426+926855669+927946581+928741757+930583938
1279+932394601+931909686+929769435+928754858+929499513+930085405+929315003
1265+928299776+928829180+930797049+932586698+933747263+934483811+934747313
1252+935196493+935728751+935964496+937299842+940055299+942976458+945535018
1238+946701355+946401469+946682871+947360078+946974456+947061036+948727592
1225+950254712+950962984+951644601+952532908+953403185+953708518+954068005
1211+955417424+956546340+955906619+953506173+952036514+954257638+958170028
1198+960154823+960039772+960756735+963007497+963678348+963305307+964339471
1184+965340624+965873465+967937059+970752441+970707237+969298411+971781546
1171+975766183+974577926+969110075+966184506+969457628+976209137+981404471
1157+982788912+981737756+980455396+979610282+978395564+977498826+979758797
1144+984905685+989620061+991579499+989455980+985755923+985687242+988223103
1130+987818414+986187527+988997721+994610326+997585315+995785159+991660177
1117+990382227+993201825+997090867+1001640578+1007099220+1008514077+1003856708
1103+1000489028+1003447414+1008970326+1011629021+1010436029+1009206719
1092+1010493814+1010112083+1007110829+1007358636+1010305478+1012703718
1080+1016274132+1021163679+1026304535+1030152201+1030280158+1028705046
1069+1029168688+1031922005+1033285822+1030650605+1028341214+1031133703
1057+1037952465+1044949836+1046556597+1042379472+1041468921+1046244194
1045+1048117441+1044080466+1040316722+1041344401+1045628988+1048243777
1034+1047537321+1047239057+1048309604+1047873914+1045133178+1042208841
1022+1043440097+1047269019+1046650895+1043779024+1043910030+1045162493
1011+1045250046+1043639199+1040311145+1036963440+1034076070+1032382469
999+1033996105+1036194400+1035604487+1034595162+1035967086+1038804130
988+1039613833+1039068540+1040505253+1041557122+1039440478+1037171881
976+1037429547+1038608724+1039731933+1040382420+1038356053+1035494364
964+1036372943+1041272607+1045421714+1045571787+1045133114+1046698303
953+1047467019+1045215024+1041654793+1040816034+1044960602+1049904950
941+1050942292+1051589731+1053511488+1052242682+1049199013+1049332677
930+1052409162+1054253938+1051555423+1047217655+1045838662+1046087831
918+1046820423+1050135507+1054717515+1058250703+1062036692+1067899310
907+1073741823+1072503304+1062726999+1054971030+1056287958+1062598264
895+1067056855+1067083056+1065886432+1065118819+1061537380+1055660299
883+1050513995+1046913230+1046091787+1049085972+1052568055+1051865944
872+1047589723+1043620845+1040884715+1036099389+1029164408+1023878472
860+1023867901+1029773647+1032168840+1025714298+1018748252+1016016856
849+1016144878+1014745715+1010228172+1007847831+1008003740+1006516570
837+1004580286+1000812326+990536774+981215421+978582668+976033706+973579627
824+975358834+977289607+975289376+971994916+970231662+968528658+967457073
810+969514505+972032272+969447122+963089343+959976085+959553366+954431707
797+945447789+939835314+937532798+935732318+935154403+933645377+930568503
783+928719966+925923716+920629350+916448204+915093921+914476704+911994218
770+908706633+907651391+907908668+906380640+902628958+899881024+900820826
756+901397314+897246715+892163125+890114448+889132297+886435663+882537930
743+879786364+878710629+878528972+879567028+880682454+879575199+877067096
729+875115505+873864729+872818243+871187680+868936789+868577886+871318816
716+874885079+877561414+878690394+877903390+875582001+872000108+868720565
702+867553969+867652807+867289494+864597205+858637435+854106143+854194344
689+855248807+855996186+856968739+856311572+853502221+850332022+850908964
675+856816072+863574650+864792610+857781685+849001734+847368318+848351118
662+849637823+852525518+851124604+844358828+844730182+852940844+857067447
648+855232464+850729383+844999327+839336784+832532614+826139813+825981634
635+835228275+847349770+848764238+836167493+823380724+820535574+818882767
621+820824305+843683956+866157984+856325126+845379761+855075517+863152255
608+859305887+859166061+867863972+876740685+881906186
##END=
