##TITLE=Sample description
##JCAMP-DX=4.24
##DATA TYPE=INFRARED SPECTRUM
##DATE=25/8/2023
##SAMPLING PROCEDURE=Instrument type and / or accessory
##ORIGIN=Default
##XUNITS=1/CM
##YUNITS=ABSORBANCE
##RESOLUTION=4
##FIRSTX=4397.6552
##LASTX=599.8556
##DELTAX=-1.9287962
##MAXY=1.9234637
##MINY=0.62107879
##XFACTOR=1
##YFACTOR=1.7913652e-009
##NPOINTS=1970
##FIRSTY=0.73045659
##XYDATA=(X++(Y..Y))
4398+407765320+409046542+410220723+410004447+409189916+409323442+409853053
4384+409570995+409110859+409047906+408730046+408431451+408820782+409057721
4371+408453911+408147963+409297622+410785305+410556251+408891654+407574031
4357+407491846+408160507+408464359+408760558+409854484+410782277+411088125
4344+411643457+411953764+410926350+409102907+407630163+407253543+407750047
4330+408144402+408479764+409148391+409621338+409671448+410091623+410751233
4317+410112119+408491343+407765553+407995471+408145201+408270808+408872589
4303+409527640+409458332+408616085+408027114+408479897+408973207+408854921
4290+408904764+408803713+408165664+408051903+408193015+407927194+408828701
4276+410736759+410828028+408960231+407545682+407761294+408929320+409800348
4263+410224517+410702122+410519751+409162033+407890993+407612429+407983360
4249+408589932+409359144+410120038+409989141+408844639+408033569+408097420
4236+408424031+408578619+408420770+408156580+408338452+409098714+409725317
4222+409512335+409083708+409720060+411163922+411781042+410893543+409834986
4209+409883765+410207314+409912912+409637742+409576253+409216735+408721428
4195+408571565+408815691+409228081+409648223+410126493+410442324+409894312
4182+408662435+408154151+408867032+409608894+409239593+407981796+407195414
4168+407592631+408537061+409873051+411241349+411276752+410506741+410289932
4155+409936569+409018525+408298890+407979001+408049440+408194545+408104142
4141+408490245+409261787+409229545+408364472+407656915+407496737+407293604
4128+407041658+407544418+408460366+408887795+408894216+409028674+409571927
4114+409751270+408670487+407264656+406681508+406813503+407576294+408545845
4101+408900438+408701298+408380543+408314329+408646164+408993537+409161667
4087+408980694+408225955+407537464+407730915+408288210+408281455+408197573
4074+408483957+408650390+408966852+409482422+409266279+408545911+408586172
4060+409492836+409959129+409308536+408529874+408626366+409251738+409651517
4047+409811761+410027971+410418600+410595714+409688251+408162969+407681737
4033+408308207+408787209+408641007+408526879+409250241+410267106+410478192
4020+409914609+409191913+408780821+408769109+409071064+409473804+409672279
4006+409856913+409907455+409437869+408798955+408337554+408270874+408897244
3993+409883532+410476429+410473301+410456032+410825599+410945117+410382398
3979+409862536+409474769+408853656+408676409+409333890+409967613+409713771
3966+409204191+409253335+409342574+409380672+409454705+408801883+407669359
3952+407129600+407509281+408665995+409959195+410463718+410319046+410248640
3939+410113617+409531966+408654050+408161738+408333994+408701298+409131222
3925+409219363+408672982+408376218+408589899+408897477+409657972+410547567
3912+410761581+410677167+410075818+407669759+404753187+404609746+406421743
3898+408263088+409439433+408748845+406539963+406062558+407044154+406884509
3885+406711421+407380481+407435348+407962497+408742989+407976039+406579925
3871+405718878+405691328+406370968+406056536+405550182+406672425+407888963
3858+407602680+405026693+400658873+401239592+405728261+408653750+408969913
3844+407779361+406002234+403444315+401638306+403494291+406367541+407418911
3831+408149759+409410119+409987577+409255631+406683505+403890976+404668307
3817+406312873+407461434+409574190+411183520+410657901+408791136+408235139
3804+407894487+406133430+406138987+408145101+410409782+412214826+412746567
3790+412566924+412403818+412011193+411783304+412058874+411811720+411536383
3777+412505834+413154331+412198256+410594782+410285906+411311589+412385651
3763+412995518+412532187+411237556+411013427+411612612+410633246+407891825
3750+408976634+413947400+418001520+420112279+422208996+424622243+426014165
3736+425704624+425154716+426965748+430402149+432546048+431904572+429507230
3723+427308197+426042680+425508644+425145931+424411789+423186267+424131694
3709+429418424+435710772+440895386+445653402+452064137+460033960+467796988
3696+474825575+480235017+483024917+484149987+485731534+486923617+485843565
3682+481678047+475257563+468443821+460216497+452619070+449257201+446011224
3669+443622200+443741684+443274328+441233476+438438518+435401929+432144173
3655+430068118+428972561+425982123+422115731+423575864+427518817+429669038
3642+429706238+428730398+427909479+427391314+426565138+424718203+420611445
3628+416511974+416217006+415701403+412066460+405932426+401266610+399737801
3615+397793842+395187577+394159631+394376174+394806198+395136835+394720286
3601+393566069+392812561+392270206+390729552+388665110+386808260+384063777
3588+380266794+378033955+377433006+376637408+375048009+373130801+371789321
3574+371206805+370726072+369701154+367707584+365460139+364402214+363949464
3561+363441880+363009027+362588752+361819806+360756458+359922196+359375782
3547+359035396+358924962+358643536+357778862+356578694+355626579+354886114
3534+354143787+353234926+352069562+351524745+351807502+351588197+350773667
3520+350528775+350644832+350451348+350373888+350463193+350094192+349512475
3507+349528646+350049373+350175047+349390129+348393960+348046620+348029550
3493+347814971+347632866+347446635+347194823+347466300+348289448+348679678
3480+348326115+347951158+347854233+347704337+347306022+347051881+347139722
3466+347051548+346706970+346789454+347345318+347817500+348255809+348876190
3453+349443533+349470617+348735078+347853002+347533612+347710293+348062591
3439+348554071+349293038+349864507+349859050+350024086+351004217+351887857
3426+351851755+351276992+350744286+350886330+351889188+353009400+353648414
3412+354032854+354833842+355915990+356500136+356874095+357702400+358819152
3399+359874981+360732933+361570489+362554447+363694324+365274540+367048739
3385+368573123+370206543+372189366+374509447+376802011+378563999+380349046
3372+382509315+384532532+386416167+388713822+391921901+395824960+399481497
3358+402580340+405645344+409028474+412687440+416425164+420539209+425293232
3345+429535679+432428760+435037720+438156760+441502956+444985507+448319093
3331+451086202+453551920+455702407+457036035+458080118+459851322+461823298
3318+462852242+463343456+464264627+465232581+465708057+466158345+466240197
3304+465804017+466104109+466768477+466491244+465589471+464333037+462198621
3291+459389722+456772643+454436824+452050462+449987517+448537999+447159718
3277+445087457+442384766+440198310+438882584+437430437+435857474+435092088
3264+434802378+434101476+432824246+431133729+429494054+428513856+428402357
3250+428693598+428242845+426818913+425563378+424902537+424487186+424162273
3237+423686231+422921378+421830379+420500811+419514224+418808631+417771235
3223+416908791+416712845+416587371+416213645+416083513+416283120+416315595
3210+416144404+415724594+415366108+415987919+417090630+417139209+415912921
3196+414551111+413975683+414104351+414115297+413917887+414150467+414364082
3183+413973121+413256946+412927707+413496048+414206533+414393729+414701606
3169+415596026+416432983+416618448+416570468+417158141+418161298+418121204
3156+416846803+415843447+416359915+417918869+418423292+417067505+416405366
3142+418571459+420870411+420412238+418968343+419282143+420910006+420884353
3129+419136173+419152344+422323956+425299588+424581782+422242869+422569014
3115+425777259+427191641+424523022+422010321+423409497+426748341+426981720
3102+424239633+423391363+425744152+427963715+426480757+423082687+422740804
3088+426782279+430364251+428590617+424660973+423734078+425899505+427332820
3075+425532833+423220372+423731583+426383632+427101736+424811402+423422940
3061+424931618+427423622+427491334+424761758+422590974+422857659+424352064
3047+424883405+424375222+424016835+423834830+423701670+423880315+424307244
3034+424549940+424594892+424813764+424938938+424763255+425026647+427514758
3020+436438293+452378104+463751121+460727009+450551865+442692344+438249260
3007+435209809+432794201+431082788+430205837+430014848+430187303+430968860
2993+432303053+434038190+435794954+436116540+435069928+434752468+436763440
2980+439806084+440414021+438634664+437382423+437534083+438605384+439286755
2966+438548021+437478716+437566990+439487692+441320053+440279563+438336369
2953+438461776+440472915+442961858+443488974+441577189+439956080+440534138
2939+442942260+444447178+443162030+441168726+440921539+442753700+444598738
2926+443749670+441330933+440192820+440981697+442568035+442416375+439853898
2912+437619196+437665380+439680544+441741460+441895814+440727855+440168963
2899+441004256+442402933+443112952+442872419+442037991+441463860+442098482
2885+443028970+442868826+442327403+442398474+443090725+444039647+444276420
2872+443480356+442813193+443213071+444231867+444753992+444589522+444434368
2858+444542806+444899063+445264604+444951269+444087361+443487876+443352420
2845+443563972+443959824+444299711+444752860+445443914+446039339+446618295
2831+447281931+447527821+447509055+447894659+448715611+449540324+449818821
2818+449449288+449116255+449575560+450701396+451472139+451464552+451404561
2804+451707547+452156437+452515623+452619469+452779480+453245273+453571751
2791+453653736+453989231+454638061+455162148+455507159+455741936+455664542
2777+455371238+455120291+455343954+456304188+457172023+457277333+457065847
2764+456925601+457003427+457459937+458080916+458645864+459010606+458983022
2750+458858680+459126330+459877209+460698361+461039512+460932572+460909946
2737+461430607+462307691+462935392+463290917+463597697+463646443+463473288
2723+463567618+464035840+464532378+464880649+465139183+465385672+465772707
2710+466311002+466686858+466827704+466908824+466987382+467140473+467216402
2696+467066539+467128494+467727214+468388987+468602169+468672376+469181091
2683+470038911+470627116+470670238+470442549+470369348+470782569+471410170
2669+471581295+471402517+471389075+471496814+471643117+471969528+472402081
2656+472743132+472921444+472980570+473009285+473043024+473090040+473451288
2642+474347771+475206588+475306375+474821183+474623773+475105570+475758759
2629+476032066+476027607+476203623+476512432+476737892+477075250+477518484
2615+477936829+478358336+478710866+478908510+479014152+479173997+479409772
2602+479642852+479867879+480259140+480920879+481484862+481510649+481217943
2588+481291078+481883576+482391160+482365839+482072302+481942104+482049477
2575+482401408+482913751+483224158+483253738+483292767+483355454+483280556
2561+483268211+483582877+484008875+484193476+484330661+484671081+484972237
2548+485164590+485289997+485305536+485537018+486005540+486269497+486392142
2534+486685380+487108650+487516414+487768726+487750226+487699684+487993088
2521+488449664+488656491+488602555+488397358+488293379+488612603+489075335
2507+489255311+489366577+489678414+490082452+490542954+490998599+491376251
2494+491808970+492181232+492260423+492156111+492112456+492121839+492071131
2480+492105502+492365566+492922695+493657003+494052756+493983880+493857342
2467+493886523+494081537+494374842+494532524+494594179+494926580+495385419
2453+495540572+495537411+495682849+495903617+496076971+496318801+496703873
2440+497001736+496978378+496759373+496729095+497018339+497298767+497494081
2426+497887571+498304153+498491681+498693284+498987820+499267382+499590067
2413+499819852+499909956+500129261+500474305+500818417+501205053+501547036
2399+501751101+502151512+503550954+507021893+513850075+525124303+541049540
2386+561130913+584381701+608900669+632876749+655903675+678452796+701312756
2372+724631356+746943438+767344967+786004039+799464356+805324252+808776624
2359+811013655+805617589+790599549+770258644+749927987+738112835+741944589
2345+756046017+762079067+757062650+750348296+742240522+735636769+736650473
2332+742760917+744825060+741199933+738929029+740396249+739766119+733498027
2318+723781223+713742932+709318447+712856531+715744654+709650448+695510224
2305+678632472+665221732+656920041+649833093+641682796+632430088+621234618
2291+608933676+597847542+588263964+579426574+571670300+565515403+560798180
2278+556881279+553115073+549269777+545677358+542827599+540637284+538694089
2264+536812284+535081007+533715304+532577324+531418581+530386277+529471227
2251+528581333+528116305+528076310+527889614+527558578+527301774+526929313
2237+526393346+526108860+526300780+526462688+526317783+526319746+526782744
2224+527440491+527642659+527345529+527276387+527614710+527953532+528130180
2210+528345159+528870744+529607049+530155393+530413993+530579594+530746893
2197+531098891+531832002+532705626+533178872+532965257+532650725+532862875
2183+533124404+533110994+533479330+534452142+535397935+535809493+535709839
2170+535557181+535544571+535385924+535272129+535414738+535414971+535189744
2156+535086431+535134477+534968943+534596781+534590193+534968444+535258886
2143+535638102+536297379+536891707+537443445+538163214+538727296+538821626
2129+538945702+539618089+540411624+540808109+540811702+540682702+540681471
2116+540763556+540899777+541265617+541718367+542053994+542379674+542600076
2102+542760586+543092787+543341239+543466280+543861434+544526867+544907780
2089+544794451+544815113+545244572+545621193+545755750+545978115+546458149
2075+547033079+547558830+547966927+548345877+548852729+549475373+549989978
2062+550386696+550962523+551689212+552355710+552881295+553267665+553811218
2048+554924775+556294737+557271741+557963860+558396512+558609994+559126595
2035+559717463+559999620+560176568+560383328+560656369+561020379+561353378
2021+561498250+561496786+561423385+561400826+561555547+561597272+561366621
2008+561357105+561791654+562060902+561827656+561523272+561509363+561775550
1994+562028760+561796046+561152873+560969471+561666413+562641255+563128709
1981+562946038+562603523+562899589+563907570+564754775+564891795+564755042
1967+564890065+565388898+566024285+566538025+566889258+567039720+567022617
1954+567122704+567432611+567918801+568383096+568376109+568083637+568428082
1940+569511993+570452430+571142918+571776175+572104383+572382482+572986259
1927+573579189+573721533+573691520+573932485+574151557+574586572+575552363
1913+576208579+576421129+576890083+577415003+577411875+577302206+577617105
1900+578026300+578171305+578348452+578838435+579102692+578880160+579093109
1886+579922546+580628738+581166236+581681040+582010912+582112329+582298193
1873+582503090+581832633+580629803+581223466+583203094+584552194+585125560
1859+585549062+586068791+586483443+586498749+586281075+586104394+585711702
1846+584803075+584541946+585953266+587249861+587575939+587862555+588119691
1832+587061800+585237824+585334183+586852378+587934159+588881584+589855693
1819+590594360+591122009+591283451+590775301+589893292+589677747+590272009
1805+590957173+591245386+590895484+590658245+591283783+591648925+590767714
1792+590341883+592256296+594517683+595469499+595013522+593876240+593376874
1778+594037083+594573915+593565334+591553231+592021519+594755520+596581227
1765+596769953+596352506+596750122+597687165+598017303+598143874+597959274
1751+596563791+595033286+595565992+597275175+598208824+597751316+597251750
1738+597746791+597383579+595873570+597097562+599878146+601890648+603034851
1724+603239016+602586327+600882268+597654091+595775347+598407865+601756557
1711+603460683+603388812+601890715+600305641+599418375+597709924+595554545
1697+595617499+598202302+601254995+602235426+601439329+600070000+597165573
1684+594049860+596289154+599897444+601338844+600481524+598975241+597463369
1670+595701480+596705935+599613623+600355285+599440202+600113920+601272563
1657+599842743+594325762+589174788+592090461+593792990+593481685+596832706
1643+601120039+602605159+601373315+597820058+595883951+600904960+606567877
1630+609211242+609990436+610896868+612756247+616011508+618648617+619044503
1616+620391073+624990576+628885749+631089240+632894118+634625395+636057677
1603+637738046+639846043+641519291+642566868+644016519+645774814+646949295
1589+648220402+650041118+651871416+653429605+654110177+653362592+651646621
1576+651982549+655297369+656943200+656839453+658709347+661835308+663603318
1562+663042995+658706818+655506059+661783135+668223184+673171590+677273457
1549+680446466+681824181+680628405+677149481+675125266+682509012+691138444
1535+695035547+698155452+703322664+707388529+709023579+709974397+711003674
1522+712983768+717707247+723793867+730769283+737888041+743336345+745565923
1508+743779213+745886944+756942799+765772470+770204475+771643013+775058784
1495+782285747+787859292+790149693+793007338+800155909+808226749+814146270
1481+818439991+822492413+826218159+828208834+828804293+833578015+842162661
1468+848665863+852665314+857435110+862501304+864217674+862098031+865173150
1454+875199263+882213875+885694796+888960704+894608848+900929312+904623581
1441+906597420+908124732+909502446+913709191+918219853+918773188+917785570
1427+918714295+919456689+918813050+916426755+910440487+906372626+908474368
1414+911148743+911266530+908750004+905147968+901368786+898571765+897637384
1400+895237580+889689056+884155040+880787049+880030214+879798832+877237453
1387+872973012+870240941+869251326+869270226+870592307+871852700+871193955
1373+870176857+870404446+870648206+870806654+870691395+869173001+867649549
1360+868834146+871862616+873889559+873471646+871573271+870872136+873147631
1346+875903659+876308462+874917305+873035034+872381280+873960231+876077079
1333+877073415+877285899+877833977+878839562+880121783+881612028+882715504
1319+883299450+883840141+884721618+887027724+890897676+895524862+901317212
1306+906543118+909322305+912334936+916562110+919721611+922332168+925898002
1292+929247626+931170956+932004985+932656942+934025273+935835608+937790747
1279+940913114+944465772+946008322+946868704+949596649+952154568+952677624
1265+951724943+949931046+948740061+947958671+947526983+949399072+952627981
1252+954160549+954687332+957124070+960173102+960584360+958323240+955951185
1238+956160807+957840910+958405292+958517755+958732235+958538385+958344801
1225+958577448+959014193+958846030+958244648+958418335+958332024+956735304
1211+956140244+957408956+957828732+957762584+958501718+959067430+960228203
1198+962549682+963350304+961315907+958824136+957404231+957213774+958749670
1184+960072085+959280446+958290831+959001150+960456258+960635734+959461253
1171+958302410+957295161+956160807+957271603+962312376+966159037+965141406
1157+964072268+965957600+969073712+972581251+975455133+976181689+976280844
1144+977485204+978403681+978287424+978740606+980139949+980640046+979199312
1130+977313248+977692564+980944431+984916665+986884648+984997785+982337251
1117+983540813+986222243+986253653+985679023+987096466+987638222+985864488
1103+986393068+991380803+997407265+1001360666+1003088882+1003737312+1004974746
1090+1008105898+1011971324+1015216670+1017796815+1017857772+1015636579
1078+1015469946+1018227505+1021217777+1022691252+1024437702+1029540629
1067+1034329723+1034947409+1034516852+1035202948+1038063321+1042243646
1055+1044350712+1045783793+1047886999+1047755236+1045977843+1045722570
1043+1047689355+1049496628+1048464357+1046974312+1047738999+1049236498
1032+1050554320+1050985542+1051093481+1054640682+1061161252+1063831901
1020+1059399231+1053422280+1051648746+1052223243+1051061272+1050578676
1009+1054477044+1059334880+1059517351+1055697109+1052716819+1051394471
997+1049472938+1049134149+1052638427+1055534203+1055276668+1056923763
986+1062182742+1064161639+1059259682+1053472256+1050308098+1048417708
974+1049598910+1053684873+1056272538+1056312066+1055498734+1054783557
962+1054403443+1055968420+1060974722+1066521515+1069601625+1070152698
951+1068510993+1065209682+1061180683+1058506175+1058376409+1059976456
939+1062706464+1066272964+1069378494+1069433329+1067595178+1067733662
928+1068142391+1066461889+1065568102+1066458163+1066083173+1064039792
916+1063259600+1065387228+1068622658+1068631043+1065727082+1065138277
905+1067429144+1069829814+1072476772+1073741823+1069635764+1064759627
893+1064897711+1065511204+1064811467+1066709842+1069738844+1070930295
881+1069688069+1065866630+1061429302+1059722647+1062286821+1065388825
870+1061361424+1050594847+1041726912+1039001695+1042117540+1048934842
858+1053342690+1049921595+1041982184+1036163881+1032904095+1029850470
847+1028030686+1028587615+1027975919+1023702495+1018477321+1013252746
835+1006303083+997948488+991506843+988146039+986497945+987625977+989429790
822+987881849+985307227+984524439+984048231+981677175+978135964+975358308
808+973001027+969075043+963462967+959357640+958268206+959499118+962349842
795+962297470+957019658+951692734+949082776+946766754+943448540+941511302
781+941890618+940927954+937316137+934579074+934754957+933740920+927175763
768+919271623+915006983+914886799+918556579+922177647+921289782+917006775
754+912600657+909616374+907628227+905570074+903511654+901799609+900488108
741+899669784+898914880+897979301+897162574+896990618+897109470+895974784
727+893784269+891809964+891344204+894362359+899825370+902754819+900505211
714+897018700+896342254+896177684+894912500+894733623+893263209+887411099
700+882365934+883588795+888853830+894585556+901183387+905560358+901420493
687+892434903+887541996+887092208+886131009+883840408+882070600+882907158
673+889443433+897015839+892908515+878629475+874190816+877079604+878557072
660+878178488+878108348+878360893+878067622+877916827+878189069+877879428
646+876940455+871122218+856781555+843599469+841162665+847749117+857481626
633+861943044+858656639+849738128+835207342+827073882+831236705+837270354
619+842190411+844449869+846244165+853633435+854004898+843256688+832426559
606+816874881+798291472+796800895+813362351
##END=
