##TITLE=Sample description
##JCAMP-DX=4.24
##DATA TYPE=INFRARED SPECTRUM
##DATE=25/8/2023
##SAMPLING PROCEDURE=Instrument type and / or accessory
##ORIGIN=Default
##XUNITS=1/CM
##YUNITS=ABSORBANCE
##RESOLUTION=4
##FIRSTX=4397.6552
##LASTX=599.8556
##DELTAX=-1.9287962
##MAXY=1.8005847
##MINY=0.30564079
##XFACTOR=1
##YFACTOR=1.6769252e-009
##NPOINTS=1970
##FIRSTY=0.43488035
##XYDATA=(X++(Y..Y))
4398+259331995+259292737+259086830+258616352+258172407+258156252+258609598
4384+259044639+258940886+258423028+258109334+258301148+258719394+258931396
4371+258634319+258125987+258151276+258567834+258800488+258715786+258147082
4357+257465472+257167418+256770534+256220170+256304392+256869595+257103261
4344+256823939+256474896+256537987+256578347+256135256+255750385+255659161
4330+255725415+255858439+255891886+256028037+256063652+255570177+255184791
4317+255332494+255534508+255486613+254936107+254240440+254268822+254705320
4303+254770614+254370478+253941159+254087316+254378386+253917220+253251392
4290+253362947+253933500+254141112+253895361+253701522+253707564+253450066
4276+252881930+252626831+252765470+252814308+252846119+252856036+252466634
4263+252076183+252169610+252373526+252151518+251609686+251194745+250897632
4249+250765889+251095044+251428073+250959159+250128975+250250252+251226894
4236+251617168+250960190+250009050+249370484+249292891+249782795+250344710
4222+250603364+250851905+251268374+251425496+251104001+250871401+250936660
4209+250575959+249905208+249961919+250538478+250569632+250009103+249507417
4195+249256317+248967184+248545081+248373865+248684751+249062993+249007153
4182+248707997+248767107+249032354+248995264+248860961+248655214+248095609
4168+247465556+247194426+247399675+247660284+247500123+247255029+247362656
4155+247604764+247515264+246847766+245912852+245328206+245238777+245376421
4141+245581830+245822445+246003791+245951826+245555492+244945610+244569963
4128+244622924+244757351+244635524+244247135+243956100+243887856+243824961
4114+243909893+244014481+243632561+242903074+242464603+242714139+243375951
4101+243717103+243495255+243165619+243002455+242911817+242767686+242535993
4087+242318517+241979534+241550233+241534167+241859697+242012341+241982395
4074+242002548+242082096+242028869+241680946+241107550+240467989+239934065
4060+239835554+240186249+240469766+240532626+240610165+240533976+240078747
4047+239728567+240148857+240856432+240807470+240185539+239774170+239562932
4033+239069226+238356995+238057181+238126776+238007668+237841607+237955081
4020+238146148+238022863+237668721+237447619+237226749+236972342+237059638
4006+237357924+237384155+237138279+236866812+236586672+236513362+236676598
3993+236350038+235650727+235611167+235913380+235685916+235334901+235274743
3979+235087870+234679345+234481294+234737566+235202890+235397583+235293794
3966+235140724+234749580+234209364+233978790+233942855+233795419+233414565
3952+232742765+231925306+231543563+231571839+231296355+231442192+232585714
3939+233318827+232711309+230825201+228811615+228939805+230585315+230830000
3925+229622516+229048498+229145960+228863794+229003802+230552685+232191460
3912+232705853+232089999+229917656+225984391+222539555+222139187+224203032
3898+227396164+229442415+228794821+227109253+227184730+227398012+226010623
3885+224818281+224527300+225006291+226903133+227773428+226286995+223616414
3871+221414107+221682695+222963239+222796467+223153044+224962234+225558752
3858+223633333+219082544+214785505+218141001+223770710+226380867+225895105
3844+223648954+220792691+217672353+216665090+219158609+221528967+222704248
3831+223662763+224059825+223895399+223013427+220126579+217229351+217825904
3817+219625017+222534010+225947141+227145756+225435574+222741658+221440587
3804+219744143+217963868+219206788+221391963+223766676+226316923+227571503
3790+227390370+226409604+225337188+224952940+224706424+223883740+224157003
3777+225899743+226685444+225308860+222812586+221677968+222212319+223311642
3763+223805881+222273810+220066065+219491780+218655572+215223336+210950715
3750+210976964+212793067+213417113+215200943+217694497+217769460+214518818
3736+210211470+210976466+216662051+221152539+222338358+221528079+221093233
3723+222093513+224151760+226394960+227409351+226195914+223665482+225471669
3709+234891329+247067499+259561805+273313498+289539676+304816474+316323243
3696+324452407+328692061+328789700+327593644+329104016+331829957+332707894
3682+329749709+322008259+311230355+300616878+295945595+295032239+291472240
3669+288178323+287178328+284505702+279523659+273975327+268529576+262808039
3655+257931081+253156152+245155000+236588449+236819165+240886271+242452873
3642+241692480+240166842+238353032+235991612+232997029+229115801+223920653
3628+221471511+223795449+225346856+223685014+219133799+215571916+215234656
3615+215435267+215434200+215263500+214617452+214587382+215075526+214398697
3601+212613126+211171941+210137628+209306395+209369433+209137437+206519940
3588+203379201+203983093+206094496+206841010+206686393+206409754+205915603
3574+205157130+203798584+200793374+196116440+193479359+195159417+197504593
3561+198598140+198959907+198776962+197790332+196795099+196535539+195920308
3547+194777141+194814285+196026016+196891708+196996758+196729076+196631099
3534+196689427+196022888+194476421+193431854+193525708+194006903+194684780
3520+195589962+196336742+196667123+196304627+195205571+194267938+194309542
3507+194486374+193880579+193429668+194054514+194926782+195400637+195716854
3493+195728530+195263934+194956514+195153517+195433213+195481286+195684491
3480+196431893+197130315+197250631+196951440+196808144+197485595+198530660
3466+198719807+197947241+197254470+197285944+197703746+198158070+198684192
3453+199152858+199236848+198818122+198362181+198380682+198901011+200010108
3439+201183416+201670653+201842438+202015839+202097519+202255210+202544716
3426+203002541+203439554+203505080+203447179+203826682+204880189+206345242
3412+207584626+208303095+208843879+209410095+209855213+210346804+211264586
3399+212667846+214183816+215371696+216415322+217794145+219501821+221262085
3385+222939816+224675608+226553344+228545142+230933895+233654895+236242713
3372+238832858+241683967+244647538+247768302+251331980+255366972+259495444
3358+263426985+267401303+271664291+276033557+280331361+284462214+288303136
3345+292348933+297315497+302528542+306708268+310131583+313850517+317784315
3331+321087562+323568854+325685393+327642802+329616134+331753324+333764227
3318+335340426+336384211+337247220+338217998+339080438+339870581+340570549
3304+340957055+341022776+340788932+340163570+338548486+335607575+332345772
3291+329454338+326182156+322249283+318476144+315135931+311730033+308320225
3277+305626273+303750616+302033023+300260727+298652432+296938642+294983561
3264+293164899+291613083+290392768+289388845+288231834+287046833+285950513
3250+284724867+283606635+282965652+282339544+281161633+279792656+278530968
3237+277314652+276500285+276093217+275444041+274345216+273161387+272191978
3223+271365331+270594079+269982100+269218810+268048293+267024305+266652515
3210+266803559+267030365+266882911+266234091+265355834+264710372+264493394
3196+264382923+264074828+263561661+262938948+262492497+262142922+261499895
3183+260861258+260499100+260105077+259573730+259139933+259045315+259082867
3169+258948511+258943215+259192787+259216601+258692505+257767543+257121051
3156+257334084+257751939+257472706+256889180+256739930+256914825+257038962
3142+257180001+257283629+256930286+256190900+255586207+255383411+255389809
3129+255239920+254948690+254657762+254378813+254286754+254277761+253984541
3115+253516248+253253010+253286794+253392751+253250948+252770340+252238530
3102+251966334+251934345+251859933+251521128+251126429+250915067+250636899
3088+250095955+249576071+249366450+249130793+248469692+247886059+247732154
3075+247485461+247052783+246691639+246110067+245232059+244426277+243801395
3061+243409380+243227697+242923867+242381643+241812210+241294796+240730357
3047+240219412+240052000+240050596+239726896+239140154+238656026+238206981
3034+237473762+236607234+236083831+235890667+235804259+235765641+235532881
3020+235037771+234628286+234434624+234248178+234010744+233821472+233638403
3007+233445257+233367291+233344649+233185235+232948938+232881511+233167747
2993+233703289+234191059+234619453+235014223+235238114+235476899+235897882
2980+236166631+236015142+235647457+235393353+235298095+235084316+234638931
2966+234098716+233449256+232757160+232191211+231748599+231393639+231151229
2953+231109447+231158355+231042624+230723225+230377240+230151696+229775000
2939+229089623+228502045+228205803+228060019+227880487+227452661+226807608
2926+226272333+226019029+225613703+224659542+223552719+222695753+222051411
2912+221773741+221932339+222068863+221918708+221639740+221314477+221054526
2899+220994297+221077185+221149731+220964653+220517225+220115862+219789568
2885+219524818+219528000+219620823+219434839+219036746+218644873+218296293
2872+217921997+217517239+217191781+216888590+216488578+216156917+216054621
2858+216054159+215914844+215480443+214759540+213871401+213063486+212737263
2845+212893941+213008357+212928277+212885428+212899966+212971089+213090037
2831+213069457+212910576+212859623+212936398+212988346+213021118+212998672
2818+212862112+212803411+212965651+213199033+213308669+213214850+213000449
2804+212857046+212849422+212875565+212837444+212780520+212764721+212693064
2791+212532672+212399204+212367517+212448361+212600028+212643125+212364673
2777+211877685+211509840+211383161+211444012+211556438+211563262+211427715
2764+211190779+210989991+210994167+211110289+211139898+211092517+211031559
2750+210946236+210871825+210896297+210956864+210877885+210670859+210495040
2737+210449366+210495414+210490029+210394646+210372645+210507250+210652376
2723+210723393+210767290+210855439+210980323+210934293+210706225+210564778
2710+210560424+210607946+210671108+210665865+210617490+210633378+210630819
2696+210570483+210591898+210601957+210454911+210289720+210142319+209938155
2683+209840106+209874300+209761039+209513013+209380060+209357721+209313522
2669+209123130+208771867+208468801+208319089+208226551+208152139+208092585
2656+208025336+207989934+208014904+207966013+207718502+207456792+207390858
2642+207427344+207467331+207500191+207413428+207211431+207063444+206992747
2629+206934650+206817106+206570377+206396923+206529591+206756166+206753020
2615+206624706+206627088+206700131+206751527+206810726+206847088+206874012
2602+206868023+206790537+206732956+206744899+206828907+206956065+207028913
2588+207012883+206906695+206732902+206603611+206515018+206380537+206278828
2575+206209890+205998652+205666547+205431210+205359944+205283649+205074454
2561+204838549+204717806+204711301+204749795+204748214+204665805+204558444
2548+204473974+204362028+204129784+203881295+203854477+203977175+204011831
2534+203951441+203887978+203839211+203794994+203825136+203965392+204002376
2521+203810669+203656355+203730820+203864910+203887089+203828637+203800059
2507+203866225+204000883+204151501+204271426+204341715+204435960+204537029
2494+204519008+204476000+204553948+204635486+204601968+204530667+204505608
2480+204499974+204454300+204399811+204405783+204405694+204354706+204371892
2467+204424745+204337592+204153083+204039093+204030616+204058020+204077303
2453+204037191+203857392+203682231+203733859+203844045+203766346+203625414
2440+203634904+203749143+203775125+203671675+203513912+203379307+203364077
2426+203434436+203493617+203548212+203596090+203622748+203675922+203786677
2413+203932852+204101633+204231493+204244520+204238566+204324689+204461374
2399+204620771+204793248+204945128+205051529+205082630+205104773+205140122
2386+204916444+204166323+202824110+200924567+198655668+196189394+193639004
2372+191193203+188891373+186669837+184632135+183093221+182330198+182262629
2359+182704316+183813556+185938146+189132841+192433316+193947438+192811415
2345+190307482+188728955+188663998+189278998+190028906+190706659+191064783
2332+191184886+191672497+192661047+193743362+194775027+195879805+197144586
2318+198518024+199792721+200755875+201492240+202315777+203296596+204200196
2305+204869703+205384380+205906238+206447324+206877549+207166699+207405662
2291+207678640+208029708+208393288+208656526+208803323+208809224+208681105
2278+208553253+208509054+208535872+208543763+208474701+208442463+208511578
2264+208599940+208658304+208739966+208893889+209058796+209171559+209210160
2251+209165641+209126934+209173496+209261948+209368064+209492948+209563414
2237+209538729+209454809+209367442+209393087+209552236+209669566+209673565
2224+209677564+209745719+209829550+209895075+209954896+209982176+209976933
2210+209987063+209978462+209885070+209786986+209836765+209987596+210085502
2197+210108233+210115999+210160180+210202655+210205268+210251795+210330436
2183+210311793+210248898+210273050+210336745+210384019+210417910+210419421
2170+210483382+210654082+210755667+210719252+210637785+210584949+210651221
2156+210809836+210919987+210978119+211024557+211025819+210968789+210930490
2143+211036909+211239776+211347901+211338215+211339815+211434202+211565928
2129+211632093+211671263+211733980+211755520+211721344+211650523+211582509
2116+211617236+211788985+212049415+212244392+212252834+212219494+212282104
2102+212383351+212491281+212671062+212920173+213094001+213172446+213346292
2089+213703829+214110915+214442274+214766471+215102806+215341893+215559244
2075+215858205+216189333+216555543+216878300+216985394+217048218+217370514
2062+217838540+218216799+218471152+218729148+219166428+219636675+219907787
2048+220134807+220468530+220748688+220923582+221257500+221816287+222351154
2035+222773470+223128377+223370485+223451188+223451205+223472727+223505996
2021+223411307+223031502+222682886+222877472+223391385+223732749+223844820
2008+223898242+224005674+224131198+224227202+224338064+224524386+224614738
1994+224304013+223956446+224244139+224957152+225664229+226318238+226915502
1981+227437182+227904230+228420062+229036360+229726411+230290761+230513285
1967+230916229+232043863+233283478+234170852+234941553+235496146+235767507
1954+236133095+236642281+236933457+236801695+236201713+235384005+235472261
1940+236791690+237956894+238451986+238714105+238999595+239381960+239786575
1927+239859529+239366996+239110670+239551202+240129823+241310169+242971300
1913+243770596+243634321+243637324+244341860+245171030+245719545+246139125
1900+246255105+245730813+245014441+244790869+244473941+243857377+244028415
1886+244658592+244912679+245007084+245055192+245061413+245073746+244910866
1873+243938222+241661912+239709711+240684559+243090924+244553346+244979466
1859+245047248+245196569+245424264+245554479+245439334+244740912+243197094
1846+241459454+241741513+244173061+245758982+246065744+246331045+246341104
1832+244867715+242944891+243036968+244225435+245522116+247197021+248334110
1819+248655729+248793818+248666855+247801376+247105424+247778468+248965193
1805+249241992+248246511+247105726+247331413+248099697+247598775+246013779
1792+246265430+249224487+251367418+251795119+251546861+251021077+250858303
1778+251268392+250573720+248034011+246131092+247800665+250948905+253414788
1765+254185364+253557071+253430481+253644438+253734969+254060587+252866859
1751+249730545+248041867+249504929+251323805+252084020+252349552+252961371
1738+252996453+250901667+249246435+251892207+255494966+258369463+259813990
1724+259658253+258543575+255610271+250714439+249370804+254334614+259107535
1711+261128318+260413279+258077825+256464837+255498716+253493909+252148764
1697+253863354+258888850+263508469+264387402+263064862+260602356+256650395
1684+255754348+260766445+264657536+265967226+265872821+265907015+265491097
1670+265309502+269027886+273139101+274147289+274989878+278086596+280144257
1657+278480175+273547164+272593021+277677129+278133408+277978187+283465845
1643+288704125+290197756+288628506+285184504+285558978+292093105+296420499
1630+297671755+298523976+299709333+301210285+304436437+307030368+307275444
1616+309253930+314047325+316935737+317535081+317658632+318444687+319312885
1603+319837941+320429714+320891857+320757963+320509581+320826527+321485797
1589+322173609+322872582+323552788+324176372+324345953+323095763+320687479
1576+321403051+325102116+326040691+325815200+328254052+331260222+332433530
1562+330849334+325940173+325924178+335216271+342240514+347253250+351101635
1549+354460580+355829237+354128421+351218326+352408908+365997490+378043000
1535+383334508+389550409+398678572+405311582+409849131+414833680+419530573
1522+426629636+437847183+448780023+460907461+472632364+480097673+482936502
1508+485121605+501628812+523925499+536372371+544753293+553596821+566856585
1495+581932150+592095924+599076377+609578281+624895617+639172651+650221933
1481+659525791+668233718+675720708+681600754+689469913+705194797+721991474
1468+733514416+742567404+753700214+764863095+771454519+775050435+785516937
1454+800754157+812423753+820433383+826638514+834399193+842253424+847467943
1441+851654601+855018344+857877718+863880817+870985567+875642330+879384190
1427+882816390+882818523+879214929+873059631+864129483+857840325+856574674
1414+853743949+847693577+841977602+837627584+832887719+827941628+822850304
1400+816498447+811188670+808497420+806209167+805222181+804780867+801755361
1387+797479985+796272271+797914191+799973184+800837117+799553196+796583494
1373+794895793+795648758+796736120+797661828+797847510+796420134+796267010
1360+798864993+800953132+801687543+803092669+805689087+807426692+807445743
1346+807498064+808723053+810308387+811400370+812902104+816430345+821540081
1333+825951164+828092548+828733549+829558383+831397643+832933784+832099424
1319+830410800+831114784+833600803+836164593+838877383+841233382+843385003
1306+846337502+849588428+852671515+855920665+859757711+864993344+870569560
1292+873335310+873508054+874330613+876135183+877495381+878358532+878867664
1279+878570943+877119325+875152391+873551844+872212262+870301202+867452066
1265+864275213+861852604+861071702+860898177+859752664+858505069+858130293
1252+858397727+858948232+859481037+860313122+861129284+860749247+859440232
1238+858535922+858582200+858584546+857686633+856674624+855438048+853022548
1225+850206183+848243229+846913315+845323147+843359838+840575676+836786471
1211+833407017+830761050+828237710+825630912+822541782+819314741+816477761
1198+813826035+811219309+809156263+808081484+807233546+806320989+806581526
1184+807934260+808669382+808146387+807580029+809062996+812487946+814849276
1171+815654277+817497376+820528285+823106577+825407838+827978452+830851687
1157+834554520+838299721+840437338+841811896+844515374+848648573+852876178
1144+856230253+858312350+859477554+860702258+862648719+865645932+869578308
1130+873322656+876195466+878827855+881336338+883521441+885892440+888418482
1117+890836114+893870862+897077643+898612220+899250448+900338734+901698719
1103+904520558+908702667+912988563+917925271+923098986+927934038+932480259
1090+935772558+938664561+943160594+948175072+951843498+955170062+959893221
1076+965457138+969842985+974044358+980820326+988010097+991796387+993209830
1063+994991012+998010404+1001395758+1003578516+1004895848+1007474708+1011608690
1049+1014643153+1013732018+1010469433+1010227947+1014806086+1020635731
1038+1024958878+1028119664+1029158545+1028337194+1028790877+1028843625
1026+1026337132+1025409931+1028943930+1034356572+1036965289+1036761266
1015+1038539675+1042475606+1044455620+1043292762+1039994563+1035758356
1003+1032846804+1032396177+1033303545+1035048969+1037192415+1037368571
991+1035845795+1036646957+1039988591+1043040613+1045228845+1045417725
980+1043304279+1042246276+1042601858+1042024552+1042518187+1045394693
968+1047597924+1048970065+1050943113+1052481671+1052717968+1051541887
957+1051105194+1053338282+1054763739+1053178618+1053043551+1057444041
945+1062977604+1064826817+1063115515+1061119861+1059575971+1057788889
934+1057231488+1059228280+1062279520+1064084231+1064281358+1065793969
922+1070443055+1073519317+1072503328+1072406008+1073741823+1072007417
910+1067262505+1063420553+1063691114+1067357834+1069491968+1067343688
899+1064518223+1065086999+1068028763+1071091093+1073387805+1073152717
887+1069254178+1062821992+1057923459+1057940449+1059041816+1056777875
876+1052276511+1046259337+1039507396+1034260745+1031260546+1029573059
864+1027552169+1023720524+1017766192+1012882942+1009824522+1003794836+995625117
851+989499178+984560124+979732892+976465118+974846870+971329364+964748391
837+958192156+952194531+946368085+942797690+941296168+937802832+932224555
824+928928986+927948611+927102166+927028874+927091076+924812776+921797364
810+920743058+919545082+916555120+913600773+912591039+913633616+913463005
797+910071964+906457423+903922850+899944338+895646996+894843346+895675218
783+894102751+890532640+886528394+883026669+881081345+880174973+878815699
770+876141154+871753388+866448658+862182097+859692168+857585972+854768328
756+852300863+850497217+847669051+844578002+844291517+846465602+847650000
743+847325625+847910111+849451655+849344738+846728983+844190217+843805773
729+845142228+847763741+850638682+852424769+853519240+853554997+851696401
716+849770200+849515634+849959436+849403457+847008644+843411732+840617049
702+838375359+834504474+831116917+831315466+832473987+831676664+829558241
689+827563227+826910781+826842039+826457737+824985930+821819528+820771193
675+822656589+821699460+816901516+814356708+819367560+822900635+819289221
662+815023229+813910275+813332187+810726527+808293326+808970297+808442966
648+804055982+802340344+804590564+804959298+801230020+796543969+794993397
635+794302848+789075462+783491071+785593926+792298521+789665563+777435793
621+773524744+779936883+782612423+781067467+780614637+777737775+774420595
608+776165877+777722989+772718037+769351877+777852511
##END=
