##TITLE=Sample description
##JCAMP-DX=4.24
##DATA TYPE=INFRARED SPECTRUM
##DATE=25/8/2023
##SAMPLING PROCEDURE=Instrument type and / or accessory
##ORIGIN=Default
##XUNITS=1/CM
##YUNITS=ABSORBANCE
##RESOLUTION=4
##FIRSTX=4397.6552
##LASTX=599.8556
##DELTAX=-1.9287962
##MAXY=2.1343281
##MINY=1.3215796
##XFACTOR=1
##YFACTOR=1.987748e-009
##NPOINTS=1970
##FIRSTY=1.4150258
##XYDATA=(X++(Y..Y))
4398+711873866+715932953+716148492+713969049+712294750+710393336+707018830
4384+705631797+707264295+708830225+709739341+710908796+711003911+708659125
4371+707221115+709437142+711325002+710785253+710607916+710933984+710511901
4357+709443619+707612493+706546010+707746410+709210628+709429166+708558192
4344+707479355+708432131+711121757+713302939+714025123+713898402+714040655
4330+712501533+708588178+706857505+708003391+709110954+710965589+712840255
4317+711178250+706253467+702367459+703019175+705721035+706311879+706123027
4303+707125340+708496301+709917698+711846399+713233252+712424409+710430279
4290+710147631+712021877+712897289+711570947+710295342+710132578+711677637
4276+713850604+713310076+710574392+708290777+708165915+710567195+712081429
4263+710748790+709528539+710062470+710361011+709915239+711087512+714161439
4249+716987321+717236505+714203180+710351356+708627460+709002165+708811514
4236+708117457+709321936+710948257+711126974+711642494+713331666+715179764
4222+715993585+714632819+713722624+715599508+716845487+715928515+713771261
4209+710290244+709070893+712373733+715408378+715065697+714791085+715003686
4195+712875639+711739528+714235085+715008124+712351123+712113814+715419412
4182+717054310+715653064+714522651+714216373+713636624+713254002+714382916
4168+717132394+717688514+715225163+715041829+718420713+720668885+718697604
4155+715465771+714374580+714509337+715562686+718424791+720102209+718371056
4141+717093772+718003847+718410758+716608898+712809310+710158426+710927747
4128+713443754+714952590+714220631+713612035+715572881+717975780+717755563
4114+716550065+716487155+715001048+711111261+709705517+713388939+718079472
4101+720410225+720036659+717656729+716202827+716979705+718975214+721164434
4087+722200151+721728890+720090274+717432674+716280791+719890568+724808874
4074+724709740+720846462+718869064+721218468+724249275+722965574+718382811
4060+715319559+716797810+720582885+721511492+719341164+717395191+715598789
4047+714642115+717787588+721788083+721135887+719713410+722425945+725803210
4033+725400198+722596686+720664627+720022926+718659342+717068643+717418760
4020+718759255+719093659+718336152+718511151+720817795+723329364+723611233
4006+720708586+717008491+716601281+719502129+722221321+723566373+724540799
3993+724139166+722497912+721792581+721063860+719712211+720164160+722903023
3979+726033683+728199873+728583874+727286079+725849569+724812233+723304116
3966+721460396+721296312+723596659+725944804+726620989+724975236+721621300
3952+720068505+721652426+724238900+726475377+727827986+726585726+723225492
3939+721335174+722159490+724126032+724234222+722372510+723582446+726577749
3925+725732503+723470778+724295394+726239207+726764382+725895088+724939853
3912+725089723+726843185+729264676+729578630+726452887+723345017+722348701
3898+724018143+727866128+729120743+724146903+720393613+724214431+728837795
3885+729549843+728840074+726303137+725257885+727612147+727296394+723967167
3871+722357457+722627031+724004409+725325713+724959824+723583525+722655638
3858+722890489+723639719+718729689+714507957+721695606+729628347+730680376
3844+726879109+724507515+724265587+722959876+723336321+724944111+723553240
3831+721379553+720926824+722747815+728281315+732126782+726622248+722832975
3817+726421702+729061611+729415566+729214480+728067934+726221515+725273537
3804+724848276+722428524+721559349+723426519+725033229+728542613+732744374
3790+732726322+730124016+729597341+731307144+733535105+735390880+736478113
3777+736863793+736743489+735749872+732216320+727849216+727947031+731519865
3763+733957428+733777872+733401667+736031501+739765240+741869658+740752739
3750+737367318+736791706+735060614+729066229+728319217+732660533+734304426
3736+727788705+721079633+724371318+730604811+733323883+733382776+733758621
3723+734813349+735721805+736347074+736954770+739133794+741652500+739462561
3709+736218674+736526270+738184977+739319708+738803228+737633954+736612930
3696+735737518+736200862+736651852+734101721+731722210+732756968+735154170
3682+736352231+735478859+734500895+732401094+729109649+728774585+727393369
3669+725262982+727303291+730063924+730893337+731950584+734424610+735518680
3655+735059774+735167184+731749737+722874776+719366532+720802082+721392027
3642+720949254+720158942+718317741+715356142+712861965+710943640+707420522
3628+703552506+704328844+707948696+710703811+707782454+700689381+698220572
3615+698043175+696995584+697823438+699020539+698748626+699854511+700933467
3601+698377219+695249618+694742075+693307903+690800892+691237609+693354861
3588+692350510+689592216+689611707+690185399+688340240+685136294+683885457
3574+685548542+687355379+686920822+684234075+679311870+673956187+671396461
3561+672450110+674634231+674971634+674302286+674027014+672405250+669554660
3547+668388204+669656672+671766068+673343333+673281142+671978130+672302458
3534+675148311+677549771+676687134+672865296+669367967+668243371+668897306
3520+669608155+669370186+669660870+671412773+673108902+672329326+668340166
3507+664998104+664862748+665931809+666686017+667482206+667824227+666990315
3493+666373923+667467693+669505723+670858212+670113059+668213145+668240193
3480+669962350+670881901+671464349+671950063+670614066+668639307+668823421
3466+670257832+670234683+669481914+670903611+674584334+677046906+675875172
3453+673302372+671292829+668646923+666286004+666237546+667834062+670168174
3439+671928713+672339761+672912254+673703105+672154327+668635888+667830404
3426+670259091+671216785+669964269+669516457+671259665+674267802+675988340
3412+675706651+674896489+675052116+678756889+685100730+688300658+687985325
3399+687501891+686433009+685070624+684376148+684029870+685027265+687168626
3385+688538567+689163596+690150316+692535823+696801994+701381758+705055525
3372+707966988+709803631+710802345+712541175+715728149+718367998+719783937
3358+722685924+726852601+728092763+725780421+724625060+728203711+735462546
3345+742769119+747379949+749434591+750442301+749850377+747377130+747146898
3331+751110509+756024498+759884418+762073697+762464475+762820049+765052688
3318+769043467+771939577+772289333+772157755+773022132+773870916+773053857
3304+770774500+768737190+767699494+767099474+767023729+767880189+768321224
3291+766819584+764855860+763725207+762178948+761200924+761771438+760953120
3277+758124838+756679273+757352878+755969144+750812688+746966922+748131878
3264+751620931+753398263+753763072+756399623+761798306+764678283+761041818
3250+754362673+749609949+748244626+749781709+750925676+749828007+749306850
3237+749669321+749817092+750216686+750818506+752443508+753872761+752494784
3223+750206911+750520444+752995250+753433526+749846419+744582793+741510486
3210+742674003+744926913+745042179+744183619+743147003+741888010+741732263
3196+743610707+745450888+745453107+745982361+748698314+751631726+751836351
3183+748959073+745803884+743777249+743354266+745175317+747101679+747106357
3169+746669280+747504271+749403285+751221218+752312349+753685948+755114422
3156+754495271+751583809+747878496+746290257+749011368+754146294+756773549
3142+754690780+751280050+749210775+749601973+752426356+753607805+751992938
3129+751198009+752168836+753178045+753834799+754826317+756201655+757778140
3115+758406827+757722966+756460854+754274214+753053963+754904940+758172936
3102+760615177+760322634+757683564+757041084+758912271+759324219+758611871
3088+758956171+760007181+761625466+762947610+762630657+761316970+760599045
3075+761080800+761615151+761085718+760455772+761526932+762994268+761913272
3061+760179720+759651607+757987622+756686649+758927924+762250195+763425287
3047+762428851+761393794+762653327+764676663+764638701+764112686+765562450
3034+767968228+769327734+769459493+768636557+766136563+762576623+761285425
3020+763829079+767139835+767965949+766892450+765964443+765482807+765815112
3007+768006790+770404832+771079218+771016427+771562232+772859428+773114189
2993+770754469+768073899+768325482+771482710+774793946+776181399+776561981
2980+777475235+778151120+778248335+779508587+781933256+782468927+780142012
2966+778717976+780108008+782084806+782980728+782266821+780974543+780772378
2953+781109001+781142705+780958831+780844404+781089750+781776489+783998034
2939+787815673+790244421+789991819+789089839+789477978+790172035+787874626
2926+784378676+784716379+787311249+786618092+782158631+778901610+779736181
2912+782375010+783521376+783165202+784098966+785778963+785198554+783779975
2899+783443472+782709834+781161656+780654473+781988910+784224548+786566336
2885+788325735+788754536+787371820+785409475+786065629+788982429+790555736
2872+790291799+789299262+788013761+787661665+788020058+787951630+789894664
2858+794709759+797280520+795204708+791455796+787870908+784652388+783268414
2845+784961724+787855975+789900121+790793885+789769262+787425495+787178650
2831+790047413+792498470+792025890+789382743+787001073+788011062+792213663
2818+795159369+794704901+793963107+794210491+793299216+792362633+794086889
2804+797073496+797598791+795364533+794368458+796328524+798473124+798839133
2791+798615137+798967893+799427039+800019802+800467374+799228531+797758077
2777+798712832+801030991+802192409+801197053+799239086+797898352+797012205
2764+796426098+797103602+799404489+801327793+800877642+799543624+799621288
2750+800855753+802026527+803062424+804457073+806273326+807708757+808237590
2737+808299422+807508211+806245679+806050410+806382056+805779097+804441660
2723+803862511+804530239+805728241+806682216+806100307+804936850+805904378
2710+808037943+808811103+808399335+807972994+808481137+810409418+812775134
2696+813914663+813096105+811573175+810776926+810117954+809740010+811145155
2683+813456597+813813670+811758968+810320359+811459348+813585297+814947921
2669+815918149+816553433+815377621+812706347+811547267+813161954+815361608
2656+816458257+816623540+815834428+814972990+815508000+817204129+818720342
2642+819339913+819634736+819766374+819205096+818627326+819009767+819381714
2629+818294961+817629811+819168633+820316978+819732910+818950215+817849308
2615+816767293+817511546+820088604+822843839+824303679+824340381+823975512
2602+823935450+823720391+822145945+819685652+818204403+818482613+819973278
2588+821553601+822336356+822396508+822182348+821300579+820368074+821261717
2575+823201093+824056834+823979890+824850504+826973034+827658574+826229381
2561+825209196+825601473+826491219+827008177+826901007+826450018+826635811
2548+827808984+828556116+828056968+827257721+827328248+828282883+828643435
2534+827893545+827603700+827956935+828191786+829380251+831303794+831866152
2521+830922732+829829682+829206213+828459741+827377365+827272534+828562113
2507+830064772+831042136+831434953+831415282+830830495+829606346+829231821
2494+830636965+832197438+832645069+832556910+832844836+834138732+835526185
2480+835713238+835778488+836083266+835494700+834743490+834382339+833978547
2467+834067126+834878967+835636534+835922121+836660197+838322741+839652381
2453+839573638+837820596+835462435+834483632+835105182+836218922+837290982
2440+838328859+839317018+839933410+839002165+836245970+834233728+834213578
2426+834934441+836319675+837979342+839031851+839828879+839815265+838774751
2413+838360104+838694148+838581461+838272725+838173411+838429312+839897067
2399+841905771+842002206+840367008+839735563+840139654+840002978+839789298
2386+839504370+838293775+837150708+837286964+837604216+835799058+831913290
2372+829233620+829033733+827703253+824040401+821224175+819082813+816427791
2359+814489915+813699603+815593100+820972112+826379491+829164832+829438964
2345+827839450+826308904+825956808+824762345+822424335+821417045+822977457
2332+826245273+829727489+832005347+832481525+832517328+833837553+836225579
2318+838248676+838844738+838631058+839028672+840175757+842032851+844355388
2305+845460973+845025876+844388493+843956574+844103686+844957807+845489340
2291+845469669+845874780+846922251+848181664+850067185+852037206+852415810
2278+851842957+851376794+850342516+849462667+850271510+851384950+850367825
2264+848114495+847220912+848088288+849173542+849745015+850548700+851687989
2251+852371011+852525918+852728864+852941105+853004435+853765960+855308201
2237+856417264+856883186+857011826+856111766+854393387+853685957+853979101
2224+854174849+855266520+856826573+856268233+853909353+852583611+853767939
2210+855773824+855971671+854908787+854223787+853350474+852408673+853069385
2197+855018536+856719343+857783727+857394028+855245470+853448288+853712405
2183+855884232+858899446+861079190+860913727+858889491+857918544+859124821
2170+859790331+858338468+856779675+856889304+857777789+858213366+858348483
2156+858221342+858063436+858626154+859477277+860108183+861028453+861403459
2143+860188365+858861184+858573198+858979449+859895942+860753062+861240874
2129+861532338+861356381+861011002+861067855+861030313+860290198+859611494
2116+860457160+862583828+863752863+863309490+863245740+864338910+865145654
2102+864393304+862152269+860217152+860134210+861134424+862116646+862604039
2089+862084561+860936636+860364563+861092983+862237490+862308736+861384088
2075+860526248+860089111+859901579+860365343+861681249+862943600+863505179
2062+864293331+866330941+868825478+870379413+869981619+867836659+865935305
2048+865118306+864995723+865555982+866305813+866528189+866498083+867055763
2035+867857289+868394399+868911118+868849227+868199070+868110371+868565139
2021+868258682+866964066+866433553+867556649+868655637+868658995+868462767
2008+868423665+867895791+867106919+867258168+868321293+868874055+868537852
1994+867727510+867396404+868588108+869750966+869324925+868800949+869600376
1981+870362861+869972443+869614170+869832588+870486283+871275095+871165406
1967+870681012+870938352+871619515+872824833+874109134+874118969+873746783
1954+873990929+873505215+872330543+872005195+872514957+872360169+870864647
1940+870491141+872702130+875136695+876081914+876760857+878011454+878524155
1927+877553867+875734196+873677335+872492648+872728937+874181940+876033816
1913+876605410+875902418+874915878+874110873+874801271+877374611+880134164
1900+881530373+881248445+879586380+877630752+877011360+878097934+880177344
1886+881857880+882279004+882027721+881649837+881581349+881679404+880820604
1873+879361964+877635969+875002237+873575503+875243805+878364150+880762251
1859+881190092+880735264+881112068+881695236+881865857+882632059+883898969
1846+883453436+880507130+879382715+881146492+882746486+883468849+884093938
1832+883769009+881936264+880996922+881539189+881585368+882040375+883772907
1819+885139970+885224591+885216674+885821372+886482624+886940271+886939551
1805+886011184+884030667+881999115+881569895+882279604+882774913+882088593
1792+881065410+882719379+884980924+885382917+885276346+885194005+884755189
1778+885543402+886485623+884518480+880821324+881258640+885795764+890036867
1765+891649395+890495653+888682338+888481732+889089488+889335314+888111404
1751+885120419+882880584+882666304+883149438+884504806+886040630+886495818
1738+887312037+887997218+885065965+882628941+885053011+889195699+891997712
1724+891843464+890237533+889232282+887459868+882613288+879781829+882229587
1711+885590180+885357908+881513521+879641554+882325482+882703966+877577197
1697+876478809+881424523+886840297+888793826+887242889+885161320+882130154
1684+877022515+877883114+881688100+883575360+883975313+884193311+883427708
1670+880519485+879878803+882985535+883439343+879703745+878391917+881165503
1657+883661659+881369288+871551267+869530569+872733195+872008074+870058323
1643+871201330+873236661+874656978+872225352+864756915+862494170+866134472
1630+870466912+872798445+872300017+871980786+874569899+877499533+877179222
1616+876184766+880732565+886583857+889320501+889974256+890795813+892177448
1603+894232630+897098993+899350404+899748918+900086200+902284355+905290813
1589+908005208+909774743+908425732+905365359+905990267+908765413+906984724
1576+903881591+908224885+912625213+910824973+907725498+908457217+910454346
1562+911698585+908721514+900533712+901930880+907750806+910897899+911779248
1549+913851342+915738122+912861443+905931075+900824336+905738385+914685133
1535+918015140+916064669+916504085+920091252+921046786+919201687+917691831
1522+916649877+917381415+919275512+921995484+925699477+926832708+923331901
1508+914123075+906760848+914826487+924393046+928899824+928011399+923773595
1495+923068264+926484691+928939946+928285471+928389462+930084092+930003909
1481+927670158+925349660+922558142+918118652+913631304+912281514+915351002
1468+919059733+919104352+915585733+913553101+913119863+910949775+909553446
1454+914549536+919729680+921524284+922347820+924050306+924969077+925013637
1441+926208459+928390182+927593633+925778340+928418129+932940020+936561911
1427+937370514+934214426+930912606+932484773+936190984+935740834+933385193
1414+931583693+928796792+925505527+922908678+921030894+919968669+917743767
1400+912929991+909232895+908944730+909836394+912101118+915291930+915516645
1387+909531676+903776400+904735233+908486123+910002097+908925419+905768551
1373+902759394+902246393+902962879+904256356+905439364+905340170+905146521
1360+906319394+908539259+910842545+911810073+911567427+911167053+910466940
1346+909431463+908859869+907839865+904044115+899308543+897743153+898886100
1333+901023084+903412070+905973175+908860649+911070198+911508354+910909174
1319+911137907+913027986+915071892+915573319+916144492+918529940+921157375
1306+924169890+928634148+932200025+934445738+937722250+940795277+942121979
1292+944731362+950104976+954895842+956832519+958325943+961725517+964395592
1279+963347341+960835233+960178719+961239024+962361521+963592387+965296732
1265+966912978+968187384+968458338+967647996+967090855+966828838+966364354
1252+966706555+968401844+971146044+974023323+975101980+974870908+974908450
1238+974689612+974981496+977020485+979663933+980168597+977542002+976082583
1225+978552831+981432688+982550207+982595845+982488735+984167592+986985139
1211+989044278+990447804+989289924+985386644+983784731+985200611+985276535
1198+985222201+988816505+992664310+992480616+991219104+992200726+994372374
1184+996223531+997660700+998233193+997859748+998367471+999409305+998785716
1171+997491819+997000108+997568643+999322046+1001574895+1003416756+1003513851
1157+1001713730+1000503615+1001843630+1004145477+1005454486+1006747183
1146+1008385979+1010653282+1013903406+1015246060+1012691252+1007480761
1134+1002485391+1001679187+1005564475+1010121210+1013049405+1013457334
1123+1010402359+1006374637+1004717490+1007064795+1009180968+1006294274
1111+1002494866+1000389008+1001284750+1006187644+1010868222+1015810517
1099+1021863734+1025321482+1025947710+1025321002+1026026033+1028866549
1088+1030512901+1029434244+1028857073+1032310383+1036620813+1034809298
1076+1029310942+1027200286+1028565969+1033035565+1039142517+1040045936
1065+1036843549+1038610565+1046233370+1051438223+1049550304+1044870926
1053+1042916317+1042805489+1041630157+1040582086+1040214577+1041317943
1042+1045509628+1050101687+1051404879+1049024709+1045526540+1044296873
1030+1046772639+1049343880+1049538069+1051657961+1054020979+1051816167
1018+1049914094+1050714121+1048440341+1043202024+1040527031+1039989922
1007+1039392121+1040428197+1043273511+1044453161+1042467127+1039625172
995+1036300082+1031784908+1028165716+1027409708+1029955641+1034743208
984+1038436526+1040116583+1042542931+1045082267+1044939054+1042428745
972+1039753032+1037930722+1034552258+1031144647+1033946420+1041574383
961+1046368427+1045791257+1043867714+1042737601+1040512038+1037852399
949+1037677640+1040808300+1044937255+1046827334+1045358858+1041751420
937+1038629156+1037591040+1039202609+1042448535+1042780421+1039644483
926+1038333974+1041794600+1049051456+1054311004+1053521652+1052629748
914+1054780825+1056392753+1056496385+1055561900+1055331488+1057624819
903+1060141245+1061392382+1065182854+1072404207+1073741823+1063919003
891+1052346320+1049702633+1054658602+1056657230+1054091986+1053028082
880+1052246407+1049312934+1046960831+1048401120+1051102620+1048884734
868+1042863182+1039595186+1038731109+1036219240+1034304813+1034693312
856+1032149418+1025005189+1020910179+1022079274+1021048355+1017053257
845+1015874807+1019008706+1021194926+1016172028+1006784006+999705747+999024464
831+1004877315+1010626174+1009307030+1003854732+1000889955+999320426+999111124
818+1001731962+1001077667+996752364+994748638+994764291+996412982+998946021
804+995743155+986869033+979501168+974946712+972912941+971967841+968337494
791+964754345+964674882+963785617+958635878+954522756+955717279+956676112
777+954289765+954054854+954951076+950295567+942487568+937958780+936282862
764+932897200+926950913+922001601+920080937+920270208+921835359+923215375
750+922371269+920868190+921078092+922611037+923666904+923723518+924179126
737+923261494+918400400+913137674+912227239+916002718+919926209+919881590
723+917391191+914050269+910503403+909339046+911248615+914266888+916968328
710+917664723+913041599+904494685+899383328+901471554+906645642+906830356
696+900827995+894996254+893006082+895327060+898689572+897328386+891450527
683+887363913+890729963+899533318+905068257+902188400+892657884+881664831
669+878613633+890683965+901869469+906133121+912460950+918401900+915817825
656+903208704+888078240+884658035+895979076+901769436+894793608+895479629
642+904199202+901119279+888330182+882439849+885392632+887098177+891326025
629+902147319+887726924+845355302+821005936+816799738+812790187+817410013
615+828583343+829092446+838327719+875822115+914062203+921003127+921150718
602+936821770+952834783
##END=
