##TITLE=Sample description
##JCAMP-DX=4.24
##DATA TYPE=INFRARED SPECTRUM
##DATE=25/8/2023
##SAMPLING PROCEDURE=Instrument type and / or accessory
##ORIGIN=Default
##XUNITS=1/CM
##YUNITS=ABSORBANCE
##RESOLUTION=4
##FIRSTX=4397.6552
##LASTX=599.8556
##DELTAX=-1.9287962
##MAXY=2.0049832
##MINY=1.2181944
##XFACTOR=1
##YFACTOR=1.8672861e-009
##NPOINTS=1970
##FIRSTY=1.2932123
##XYDATA=(X++(Y..Y))
4398+692562479+693036881+690867502+692001445+696761681+699454300+698473448
4384+696828458+696183473+696129911+697809630+702604084+705385314+700703028
4371+694696363+694184486+694714046+691531767+687447927+684489985+682148299
4357+682494955+687519748+693260069+695372693+695932259+696307580+693982110
4344+690454707+691526405+696998786+701067560+701626679+700182150+699116198
4330+697919819+694220748+690143355+688135685+690017652+697357955+703908992
4317+702267195+696730015+694738242+697268322+701144105+702144237+699279439
4303+696186984+695665276+696351566+695270995+693111001+692189329+692085332
4290+692811395+694080808+693035796+690508653+690671702+693413607+696017295
4276+698107831+700082877+701053834+700119395+698362811+697073671+695977331
4263+696555794+700291957+703708276+703833341+702478126+700880315+699445617
4249+699684893+700453793+698569784+695258673+695536190+699553508+701676986
4236+700748675+700294702+699705514+698542906+700379610+705383909+708971770
4222+707335591+701694478+697819653+698524201+700114543+699704173+700639634
4209+704829004+707256173+705621653+704248115+704325044+703944999+703174183
4195+701697542+699413952+697918734+697477848+698195676+700897935+703903757
4182+705182108+705520912+705060938+703838320+704075553+704920743+703379049
4168+701913708+704194234+706794603+704620500+699711770+696164002+695126906
4155+697167326+701298409+704249392+704207896+702344123+700426916+699268203
4141+698889499+698764562+698503261+698553440+699312700+699796615+700689047
4128+703890542+705435493+702016236+699155779+700088559+701464651+701217586
4114+700529764+700752250+701572733+702434394+703066164+703199847+703599428
4101+704177699+704869479+705563622+704350963+702933056+704044974+704979477
4087+704538592+706368081+710654745+712528348+709717241+705625611+704308892
4074+705313621+705667044+705231393+705071791+705499653+706527875+706298686
4060+703960193+702681523+704508267+707119553+708673633+708888330+706768939
4047+704132691+704587749+706700054+706643108+705724182+706280300+707088016
4033+706946608+705763508+705266187+707687482+710577242+710027124+706801242
4020+704002902+702693972+701986167+702992428+706658749+709492584+710097860
4006+710973758+711888854+711851124+711107058+709911381+709959836+712404050
3993+714309127+713201679+712566015+714108412+713708384+711062880+709861776
3979+710614716+712398304+713584916+712496811+711072903+710731481+710929325
3966+712365363+714687257+715406681+713110961+710653021+711562946+714155909
3952+715777980+717225254+717217146+713898694+711025788+711397470+712813781
3939+713424611+713961960+715125717+715203347+713103108+710872187+709266396
3925+709414379+711315818+711081138+709014607+708966727+710261357+710919110
3912+711190370+711486528+712262387+712617407+711784729+710937624+710307833
3898+711463545+714810470+717008833+715895958+716202713+719975840+719803278
3885+714973009+713071443+713184825+714341239+717153305+719245692+719904977
3871+718021095+713765586+713098512+715236353+715938157+715390721+714842582
3858+714604647+712847617+705171000+702626300+711433796+720550473+722941635
3844+719530805+717090868+715990634+711241124+708004835+710729439+714954240
3831+718611687+720738803+718992307+714500203+708571934+704180189+707628684
3817+712919374+715939306+719901721+724126267+725530385+722453826+718824150
3804+717959488+717849746+717759666+716510746+715744016+718860028+722913672
3790+724366181+723445850+721520536+720560687+721361380+721427200+721222781
3777+724607436+729854267+732000983+728479070+723845559+722643242+721871405
3763+720754125+720124717+720276212+722394901+723916358+720527298+711467121
3750+708455361+716359315+723309039+721114060+719648592+724814792+729923726
3736+727180992+720386848+720561070+725715076+728999309+726815950+722276859
3723+721524621+724167955+726872704+728628266+729266995+727669567+724608138
3709+725524767+728749308+730088244+730098395+730108673+730685221+732055375
3696+732704382+731487318+729048020+727530521+729305554+731093931+730165683
3682+727745729+726192351+725113312+720758275+719031569+724639740+726944717
3669+723642034+723669996+725543217+725304260+724027952+722695975+719838902
3655+718990711+720687667+716417666+705975651+704338386+709109347+712475744
3642+712709976+711870085+711692862+710166936+708081764+707101358+702491660
3628+694959579+694858455+698031477+697727466+691315410+685826622+689538143
3615+695114968+695155890+691723290+687774856+684722876+684529949+685957113
3601+685780529+682508234+678207015+675716261+676022315+677491167+677469716
3588+675543827+675264204+676222264+676413149+677188944+678212250+677069306
3574+674372282+671848075+668728999+663651729+659456869+659950615+662462053
3561+665014542+667012699+666578708+664287202+663018874+663562480+663543391
3547+660789740+658152280+659571591+662470544+663277047+662295748+661397123
3534+661150888+660072806+657358226+655289397+655028862+655170653+655431507
3520+656237243+657976525+659640093+658611551+655347428+653045707+652387635
3507+653049601+655695361+657777533+657029828+655507030+654261941+654213549
3493+656112242+657530341+656897039+656063213+655328531+653491381+652940178
3480+655170589+657540173+659186758+661223667+662970738+662260827+659611811
3466+658226718+658428966+658266299+658123423+659305502+659850831+657330647
3453+654813782+656198364+658644876+658045921+657352161+659488087+662085583
3439+663212631+662729611+661136332+659532457+659098913+660892652+663170049
3426+663141449+661681087+660979220+661740842+663650069+665573086+666556364
3412+666981225+667242973+667235568+667512382+667954991+667350290+666865418
3399+669294374+672765533+673543180+673638686+675626820+677932946+678699229
3385+679037330+681808729+685853499+686974482+685393142+684968409+686866080
3372+689520459+692844018+696359930+697859234+698800760+702148196+705592542
3358+706621083+708339298+713058547+717881219+720304685+722745515+727078527
3345+729958903+729398954+729250396+733266374+739749357+744447858+745558243
3331+743509077+741913692+744582626+748825686+751113937+752663739+754706841
3318+756597809+757155268+756525031+755580504+755309499+758249821+763136972
3304+764325244+761719320+760073054+759627062+758097943+756593213+755705249
3291+754751529+755164580+756612940+754912536+748409890+742898885+742765522
3277+744485205+746219061+749783619+751878304+749596693+747376114+748232157
3264+748767208+746319419+743497330+742066017+740429965+740127040+741908968
3250+741282624+737865028+736125681+737527245+739216221+738723369+737777757
3237+737955363+737721513+736649113+736679246+737453828+736909010+735894641
3223+735878809+736823463+739301130+742534162+743105411+739938007+736731787
3210+736913415+738997183+739056619+737226555+735674518+733909890+732254240
3196+732716959+734832009+736619683+737549781+737604940+736888581+736484787
3183+737138263+738192532+738511673+738695343+740609805+743433872+744195048
3169+742931763+741718913+741002873+741815249+743615628+743391035+742728941
3156+743735521+744747783+746038072+748196278+749076453+746961084+742927550
3142+739996740+739331837+740072711+742310080+745491466+747755265+748756738
3129+748486372+747049823+746224551+746060161+744693582+743646910+745875086
3115+749381485+750443990+749931283+749999529+749960267+748268227+746540053
3102+747598983+749718629+750025449+749823392+750857424+752713663+754615229
3088+756169628+757391416+757622775+756036392+754569774+754245015+753307703
3075+752811850+754038554+755328907+755831271+755122573+753343007+752435827
3061+752515692+752137562+751652882+752408503+754713033+756865303+758533083
3047+761512859+763349435+761487706+759128655+758494204+759270127+761016751
3034+761459105+758940069+756306950+756847427+759423728+760947547+760846040
3020+760881536+761666588+762376882+762747734+762662570+761772245+761234832
3007+762603645+764083159+764233057+765374661+767975030+770022919+770458634
2993+769736018+768859674+768113373+768573666+770588741+771872263+771723323
2980+771534098+771850238+772934704+774854274+776901142+778448135+779574672
2966+780443420+780032539+777625736+774873553+774175134+775731448+777215175
2953+778497484+780384048+780014728+777632120+777309724+779568224+782726627
2939+785081527+785305226+783573158+781697766+782012630+783982186+785611216
2926+786180613+784750321+782663233+781719217+779778516+777216835+777598285
2912+780190482+781580299+780725022+779572374+779539687+779414814+779011787
2899+779564138+781187996+783636871+786059251+787245990+787251864+786388734
2885+784850168+783291172+782186596+782339878+783991890+785022666+783836501
2872+782222092+782720434+785336317+787849989+788588948+787884783+787672639
2858+789475124+791700619+791884226+790427056+788710182+787293041+786626031
2845+787029442+787943899+787893146+786771333+786382031+787377567+788960758
2831+790367365+790388880+788626487+786827130+786558679+788234823+791027225
2818+793202796+795065866+796901293+796805851+795531395+795223617+795365344
2804+795589554+796067786+796336046+796718325+797197898+796892547+795996667
2791+796405824+799149835+801531357+800802102+799047434+798879468+798570670
2777+796875948+796490158+798711694+801091301+801471602+801253777+801783848
2764+801356433+800311740+800977218+803048920+804729341+804344763+802511124
2750+802458838+804571590+805889969+805406821+804593487+804622854+805281310
2737+805483558+804569228+803627383+804132492+804941165+805226917+806245244
2723+807684346+808903006+810083872+810502540+809969022+810298760+811970690
2710+811597796+807780938+804544713+805631988+809850022+813153471+813944652
2696+813060072+811795064+811561534+812935391+815438083+817024147+816231817
2683+814831594+814654180+815142117+815598069+816381780+817200987+816810280
2669+814863706+813112039+813899197+816741587+818778113+819175140+819108426
2656+818761195+817932476+816855607+815583768+814962660+815892950+817326498
2642+818580781+820269310+821603138+822180516+823228528+823988236+822432496
2629+820000795+819810996+821367629+822265935+822108056+821982162+822697372
2615+823552457+823746151+823790201+823506492+822831885+823024557+823815801
2602+824274690+825083555+826368673+827423006+827819266+827295515+826707732
2588+827003698+827877872+828764495+829202508+829351959+829718534+829721088
2575+829081082+828811099+829381645+829865560+829551271+829377240+829856813
2561+830029056+829700914+829634009+830643334+832591759+833411924+832097949
2548+830812257+831278679+832545028+832836525+831745292+830673211+830502565
2534+830228049+829837917+831100435+833437971+834070571+833208080+833296818
2521+834348023+834560039+834018157+834036352+834509030+834727685+833987897
2507+832645769+832655345+834074337+835490074+836623314+836883913+836243652
2494+836673046+838241682+838469466+837558775+837678605+838645157+839306166
2480+839671527+839641075+838696804+837870255+838518113+839708363+839684487
2467+838296202+837401407+838009620+838794034+839389414+840108774+840324109
2453+839640054+837971188+837232037+838925801+840066256+838982811+837980572
2440+838073844+839100853+840962710+842522536+843186545+843336380+842686479
2426+841598247+841860824+843572208+844589641+844318253+843735003+842623851
2413+841475864+842270172+844891098+846988720+847404516+847126744+847180753
2399+847183307+846389126+845071321+844030203+843443186+842975806+842951611
2386+844149650+845975245+846982719+846634211+844656164+840268248+834036096
2372+829451041+828050626+826853481+825019458+823803799+822808327+821229988
2359+819440144+820475133+823955613+827643193+833145196+838265941+838936910
2345+836138761+832997404+830651569+830545721+831537107+830142693+827826225
2332+827725101+830277206+834181335+836234778+835842093+836817646+840543084
2318+844126794+845537168+845853117+847466888+851140615+853772074+852347081
2305+849398651+848518285+848785076+848497217+849106770+851547282+853739260
2291+854288420+854551381+855934622+857591294+857986534+857865938+858800633
2278+860060406+859737435+857698483+856338991+857089249+857891985+857839572
2264+858711958+860329304+861201882+861302751+861163450+861114165+860907384
2251+860397359+860489162+860814240+859978307+858596470+857913117+858645500
2237+860733418+862164093+861482016+859913445+859249818+859857201+861082819
2224+862189693+862883453+863622731+864410655+864419402+863699787+863595726
2210+864190851+863374964+861537047+861633639+863233748+864121839+864352752
2197+864479731+864373883+863992370+864079385+865246014+866369295+866447947
2183+866241677+866984786+868264030+867923950+865770978+864246776+864675340
2170+866371785+868782419+870650149+869581899+867210400+867104998+867863492
2156+866895217+865654915+866143490+867453506+868486005+869761036+870880296
2143+870913174+870350480+869413997+867973937+867755856+869426701+870642297
2129+870292065+869204088+868395734+868745774+869598561+869912786+870350799
2116+871948291+873804019+873876861+872302161+871303944+871317095+870661960
2102+869354753+868961046+869614202+870288043+870821945+871774005+872331719
2089+871700269+870928815+871184498+872537032+873455958+872805227+871380362
2075+870364397+871057263+873316210+875270445+875740378+874754802+873891609
2062+873841557+872882220+871594548+872311099+874004224+874490245+874015907
2048+873834982+874403549+874878206+874778742+875041129+875998104+876771026
2035+876611616+876003914+875743187+875610909+875497464+875420344+875067367
2021+874706091+874733224+875525362+877402030+879075046+879127331+878423868
2008+878045994+877660203+877130706+877165627+877963830+878670230+878827917
1994+878190210+877107723+877549822+879312534+880147254+879335070+877783927
1981+877891371+879793256+879937345+878645652+879671320+882077676+882923249
1967+882671908+882677973+883016393+883401737+883786060+884312173+884778914
1954+884867397+884507207+883913295+884010652+885109163+885450393+884167318
1940+883596516+885156469+886760473+886138343+884611714+883954791+883697065
1927+883975093+885144276+886234487+886514685+886880238+887927038+888380692
1913+887653735+886986023+887657246+888910125+888996948+888564298+889085432
1900+888371562+884073918+880597269+882821934+887438400+889176022+888515651
1886+888840091+889991462+890168429+890218289+891633451+892878030+892114620
1873+890604591+889155593+887312122+887105150+889162360+891607851+893654783
1859+894573582+894260059+893586090+892759861+892512988+893569811+894309982
1846+892122217+888049230+887633561+890572287+892849429+893440405+893420614
1832+892499517+890340225+890355803+893693662+895999980+895870255+895692905
1819+895452161+894857291+895049963+894902554+893825749+894432940+896444951
1805+897145094+896367895+895495062+895220992+895430838+895513384+893842092
1792+891164284+892238536+895274938+896347849+896632260+897526033+898001010
1778+898202875+897218001+893963581+891469125+893932299+897814530+899836564
1765+900683095+899959905+898658380+899001972+899086625+898328833+897319827
1751+894109330+890105738+889652914+891133321+892591831+893312532+893080470
1738+893614308+892595406+887864921+887879094+892763053+896337698+897781078
1724+898684044+899723374+897869114+890111419+883975220+888250137+894356650
1711+897836236+898721519+896503046+894133973+894013314+890921880+884572772
1697+882232299+884452878+890041833+894195133+894386719+892197103+886719551
1684+879928535+882308525+887893905+891154389+892008581+892086977+891966573
1670+890381084+891339400+895858572+897396755+894785853+894135888+895687606
1657+893770207+883110814+867804567+869005032+874390270+876348527+878792933
1643+881227826+880934668+877423034+870685964+866342929+872541054+880159512
1630+882389858+880145147+878463386+879433704+883255797+887455254+887827510
1616+886409348+889837031+894892276+897305654+898378437+900866638+903907126
1603+907121773+910534964+912376265+913038295+913831455+914595375+915806949
1589+917862691+918892700+917825727+918428194+923107479+926055589+921665503
1576+916811422+920305947+923125609+920331547+918390847+920640346+922589154
1562+922034568+916631582+909474439+914573286+920601914+922483434+923561771
1549+926158948+927435128+923463392+914883426+908276272+913881187+923578880
1535+927451599+926585086+926124601+926956768+927019396+926529927+924800859
1522+922077278+922787572+925829592+929973763+935593872+938962949+936482537
1508+925940101+918250397+928230841+939448332+945105788+944768708+943074625
1495+945187568+947087793+944183478+937649103+935861940+940056417+945690571
1481+949683374+949926991+945109874+936127773+927526548+926507264+931938850
1468+935834935+934917988+932235009+930743174+927347857+920892262+920777859
1454+928539321+934070818+936291078+937250927+938045491+938726163+939509811
1441+940851683+942194322+942585986+943157554+944371170+944958379+946477346
1427+950344766+953110228+952300278+948259721+941974709+940444570+945090466
1414+947267123+944435394+941270416+939625427+935997027+932701686+932815514
1400+932250777+929428561+925590444+922389587+922994161+924608188+921871901
1387+916433292+915016215+917381330+920485723+923152742+923410787+919954120
1373+916978047+917842070+919361420+920736873+922263374+920847637+917316212
1360+917623798+921408416+923135122+921416779+920557736+921674122+921688295
1346+919239101+916724215+916971535+918402083+917536846+916167203+917648568
1333+922040377+927366244+930772923+930468913+928090136+927057892+927202683
1319+926598492+927367457+930878133+934694481+937767336+939507002+940285223
1306+943842567+950381730+955534204+957759316+958691458+959214762+959772157
1292+961866906+965333341+969406776+974548716+977763618+976549682+974531224
1279+975455640+977961142+978635047+978816036+981461029+984102193+984746731
1265+985694513+986455178+984006431+979956873+979291714+982879319+986999805
1252+988995217+988666692+987277194+987247444+989390393+992659559+995470412
1238+995966328+995364180+996447752+997330417+995896678+995210451+996866996
1225+998143048+997667817+997988043+1000743545+1003267752+1003318569+1002763728
1211+1003875454+1005795023+1006971420+1007461846+1006801028+1005532828
1200+1005752122+1007384662+1008462425+1007579632+1006233355+1007402091
1188+1010412318+1012619172+1013460532+1013059674+1011713716+1010269953
1177+1010167616+1012204270+1014768441+1017767688+1022089655+1024462431
1165+1021968613+1017764049+1017545394+1022383196+1028194253+1031346335
1153+1030803432+1028429890+1026607231+1025494548+1025070963+1024635249
1142+1022823379+1021735976+1023944298+1026830738+1028164248+1031291624
1130+1035346289+1033841877+1028978347+1027255344+1026604741+1024087430
1119+1024012736+1029337006+1035334798+1037687145+1037429100+1035948564
1107+1033667975+1031462015+1031979829+1035361675+1035534045+1029764676
1096+1023954385+1024836156+1031751087+1038078426+1041298243+1043445788
1084+1044434621+1044248844+1046571696+1051820761+1052908036+1048648250
1072+1046459081+1048297636+1050304795+1049546428+1046466614+1045817990
1061+1050401067+1056308460+1060531091+1063848521+1064584735+1060931118
1049+1055624085+1053751503+1055953632+1056255919+1053382566+1052661866
1038+1054430068+1056191503+1057914953+1057629520+1053242435+1049075154
1026+1049105734+1050785453+1051427246+1050888492+1051136706+1053712560
1015+1054303727+1052167290+1053920937+1057755159+1054725524+1047404118
1003+1045414643+1047732771+1049003014+1051352744+1053900635+1052886203
991+1052289801+1052415887+1049605928+1048221346+1050486741+1052619922
980+1054698008+1056063694+1053537253+1049148252+1046365809+1048217579
968+1055597080+1061579359+1061560909+1059685135+1058883484+1059363695
957+1062001220+1066906055+1069531705+1066196974+1062592259+1062516544
945+1060915732+1056865153+1054163724+1051843170+1049641296+1051048797
934+1055161302+1056918715+1055798818+1055373701+1056965319+1059385465
922+1060273556+1059405384+1059224075+1061854705+1068244416+1073741823
910+1072733647+1068119671+1065233550+1066375537+1069800603+1069888640
899+1065858361+1063095262+1062434061+1062156928+1064525682+1067754437
887+1067097003+1064987699+1061553312+1053456430+1046987109+1047909802
876+1052844834+1058890379+1063672320+1061685399+1053591262+1047614218
864+1044433791+1038681531+1035114227+1039830349+1046591104+1046482574
853+1040631935+1035395510+1032625580+1031381512+1030003824+1026779729
841+1024837561+1025671387+1024907083+1020693709+1012514856+1004022032
829+1003471277+1008331104+1010084687+1006043875+998055906+994384541+997276344
816+997672732+992047261+987409408+990220644+995669276+994922465+990579111
802+987496870+983203376+976711902+973267748+975543422+979512923+981470478
789+981129695+978476146+972152000+963270321+957517615+958379084+962312452
775+962045214+957239268+954922289+956263332+955234152+948945182+940974449
762+935677759+932873163+928915918+924910219+925122171+927232241+927604179
748+924505404+916818764+910573205+910002276+911763136+913820283+915405645
735+915426329+913799790+911141198+910508343+913201345+915598380+916075783
721+914597865+910431989+907568595+909055068+910661369+908411104+905509725
708+904991528+905160898+906387346+908299574+906568016+900586312+895497041
694+895980444+900247381+904030148+905172007+901536010+895659324+894664619
681+898935960+898113242+888568065+883159908+886255363+885824501+880687348
667+887059567+898637440+897011986+884796981+872928249+870717757+876506214
654+879710135+878015286+875453030+874671490+880081434+888398886+892348023
640+892350385+888706089+888753012+900588228+900539836+877182864+856203329
627+829111024+792553534+782312108+802466691+825846518+840819196+845391994
613+839629584+825481539+812557133+831398891+886510280+910851041+877526265
600+855570984
##END=
