##TITLE=Sample description
##JCAMP-DX=4.24
##DATA TYPE=INFRARED SPECTRUM
##DATE=25/8/2023
##SAMPLING PROCEDURE=Instrument type and / or accessory
##ORIGIN=Default
##XUNITS=1/CM
##YUNITS=ABSORBANCE
##RESOLUTION=4
##FIRSTX=4397.6552
##LASTX=599.8556
##DELTAX=-1.9287962
##MAXY=1.8857071
##MINY=0.39315784
##XFACTOR=1
##YFACTOR=1.7562016e-009
##NPOINTS=1970
##FIRSTY=0.42511854
##XYDATA=(X++(Y..Y))
4398+242067043+242399871+242669045+242959194+242877349+242699404+242889975
4384+242969003+242626926+242633816+243374275+244155240+244348695+243995453
4371+243303392+242477474+242015370+242273667+243059231+243782584+243870250
4357+243714688+244069102+244504732+244514761+244588190+244759330+244321849
4344+243470205+243147304+243320565+243322466+243186844+243409860+244160569
4330+244943655+245142863+244780033+244308833+244042171+244038777+244386385
4317+244884040+245062427+245111266+245330583+245486162+245547371+245592969
4303+245504947+245326459+245241695+245343140+245526431+245598247+245549051
4290+245497939+245421235+245449473+245879283+246474005+246921040+247191283
4276+247246961+247462341+247783664+247682473+247668592+248191786+248567259
4263+248334655+247935814+247882903+248096807+248181723+248119597+248220380
4249+248308521+248214203+248261125+248320485+248170846+248213626+248717102
4236+249134898+248896184+248369884+247936612+247622044+247818791+248559012
4222+249195802+249426795+249570766+249836207+249994501+250033107+250180371
4209+250204010+249948428+249866176+250140441+250273111+250057289+249900030
4195+249790711+249643159+249797771+250005922+250016392+250187973+250633667
4182+251195706+251491370+251160697+250492682+249999982+249940215+250409446
4168+251033576+251191514+251044963+251070163+251184268+251320315+251543280
4155+251703101+251817104+251948501+251952523+252009134+252247152+252261305
4141+252140735+252418105+252921089+253302841+253498112+253256938+252848594
4128+252937974+253316060+253452090+253477918+253721044+253972705+253865931
4114+253679909+253886075+254230663+254104153+253669371+253652995+254275955
4101+255120506+255583203+255538811+255416000+255482233+255652135+255826991
4087+256045714+256218449+256086459+255756957+255748421+256148721+256536106
4074+256674597+256438089+255962019+255711987+255810361+256136078+256598318
4060+257096821+257508117+257550304+257201660+256945960+256969955+257020118
4047+257213981+257648525+257883896+257920347+258240923+258810614+259209064
4033+259280796+259114203+258725732+258213618+258009659+258178525+258181138
4020+258047128+258226278+258700990+259272582+259607141+259513689+259312258
4006+259237675+259304655+259384074+259198526+258973337+259150960+259479376
3993+259661359+259936948+260261631+260252637+260055652+260102387+260313864
3979+260482934+260725805+261081712+261183242+260692001+260133713+260230254
3966+260760627+261119503+261152662+261090960+261089076+261102262+260940846
3952+260389803+259671694+259545507+259942718+259804975+259607820+260712008
3939+262184797+262412243+261411162+260306736+260252637+260997898+261039915
3925+260398696+260569954+261001292+260431261+260097279+261464023+263202966
3912+264033568+264025252+262619511+259575085+256890724+256395257+257958410
3898+260901051+263076762+262889364+261413708+261334154+261651251+260577659
3885+259801547+259912682+260110973+261551299+262963454+262565598+260862903
3871+259056354+258964259+260334533+260595901+260604573+261987388+262820637
3858+261595403+258097477+254473924+257333176+262621106+265508291+265582856
3844+263719610+261253361+258833693+258062384+260400783+263015993+264349884
3831+265283017+265753962+265480240+264473610+261853751+259653112+261236238
3817+263401122+265471806+268137263+269540323+268506135+266025393+264736981
3804+263859373+262594413+263403752+265459197+267889352+270447815+271826523
3790+271994710+271615979+271144084+271241355+271247142+270265661+270276149
3777+272083802+273016952+271800508+269612682+268645457+269214639+270256566
3763+270813734+269824651+268224080+268328937+268763855+266757333+262648479
3750+261598169+263314491+264018074+265157916+267773313+268989162+266999610
3736+262838252+262081621+266011478+269870707+271198387+270176910+269034251
3723+269639647+271432468+273206962+274002657+272842520+269560602+267651096
3709+270131855+273296851+274565731+274150549+273930757+274843679+275716858
3696+275908514+274827880+271867675+269191493+270760466+274075984+275999863
3682+276077211+274166093+270375846+266371356+266614804+268673525+268810029
3669+269743994+272224922+273834691+274094990+273376032+271567174+268995526
3655+267522635+266425082+262473741+256855240+257438643+261661568+264322732
3642+265077242+264936427+264258587+262811813+260887221+258444526+254322350
3628+251715863+253893864+255888405+255136967+252123544+249505517+248739112
3615+247994530+247153033+246592878+245739944+246013056+247539672+247836372
3601+246597868+245604627+244953735+243972001+243400883+243103200+241515102
3588+239343481+239691344+241372403+242022837+241424873+240251703+239281966
3574+238728446+237904989+235848169+232424706+230160770+230998516+232511371
3561+233185257+233313820+233092212+232315336+231489248+231237434+230604529
3547+229164883+228630166+229522945+230227529+229906037+228990349+228314511
3534+228058200+227516457+226404276+225472755+225170676+225264383+225691139
3520+226261221+226756670+227120502+226953604+226044262+225076036+224855310
3507+225031575+224651588+224030597+224165099+224668218+224945929+225132800
3493+225096298+224567707+223936041+223868281+224305456+224586865+224669474
3480+225067059+225572944+225647764+225525989+225803716+226501920+227034312
3466+226797262+226004044+225605289+225791023+225897287+225845614+225898560
3453+225909183+225683350+225425664+225651429+226317017+226749186+226946154
3439+227430946+228198760+228960041+229478314+229684005+229904832+230413620
3426+231226658+232212754+233084965+233888246+234997576+236478935+238032381
3412+239273413+240258779+241534634+243159607+244788857+246406194+247987267
3399+249543275+251153027+252705353+254155317+255552573+257137939+258976986
3385+260778072+262671031+264898313+267134164+269076234+271111095+273774346
3372+276780675+279241817+280967268+282778128+285168251+287807558+290318744
3358+292818627+295666628+298864817+302192180+305250267+307770208+310271008
3345+313292644+316534649+319437360+322080469+324790981+327590211+330244960
3331+332064220+332951773+333930996+335341081+336665775+337819379+338886743
3318+339582843+339777316+340149837+341233458+342369176+343155724+344177881
3304+345539568+346419654+346284032+345958586+346294282+346843084+347241907
3291+347624711+347658277+347099191+346335654+345554672+344537843+343427308
3277+342313990+340894707+339576870+339262963+339829617+340178278+339824696
3264+339271312+338644619+337829629+337293860+337191939+337266470+337689323
3250+338497050+338905953+338245049+337193534+336773295+336740204+336433832
3237+335874475+335409673+335156688+334942801+334662562+334347638+334124859
3223+334090546+333999893+333642782+333027696+332331732+332127382+332564794
3210+333033907+333190062+333146823+333037300+332839671+332569987+332555936
3196+332942881+333440875+333834777+334156830+334532404+334997308+335452335
3183+335527715+334952304+334365659+334582940+335621218+336845994+337333297
3169+337214950+337665565+338572429+338905003+338760556+338777763+339339089
3156+340424170+341380314+341990343+342552823+343002419+343276447+343476826
3142+343682567+343971291+344434226+345019038+345526841+345805451+345721790
3129+345584912+345721009+345780437+345638502+345562953+345659171+345990251
3115+346540818+347077097+347212481+346888664+346592542+346573502+346513090
3102+346318277+346439543+346970255+347286538+347186484+347078997+347092471
3088+347188317+347061043+346512547+346238655+346599330+347059143+347393277
3075+347820508+348318061+348658814+348652094+348128781+347419377+347049029
3061+346787593+346370272+346095769+346001961+345776874+345420712+345156900
3047+345170408+345454007+345742629+345955701+346089015+346087590+346171760
3034+346420978+346816000+347472153+348275264+349138617+349968642+350684461
3020+351717953+353193270+354370361+354866692+355138718+355739243+356890302
3007+358257963+359662924+361582102+364002329+366640347+369950434+374717172
2993+381214826+388594806+395729640+401639495+405205011+406767960+407808309
2980+408625131+408775178+408395293+407588313+406146697+404269876+402190266
2966+399986233+398033692+396587495+395420994+394106720+392679427+391815021
2953+391675496+391610128+391583893+392193854+393362799+394281406+394344568
2939+393933560+393806185+393933255+393790675+393343182+392981421+392521201
2926+391500606+390118554+388682098+387099532+385168102+383015691+381251040
2912+380264485+379549278+378525085+377667569+377420320+377287820+376931794
2899+376509077+376295394+376457795+376645209+376528762+376458541+376740443
2885+377136755+377378404+377318229+376909462+376385571+375908857+375291701
2872+374430519+373429880+372416378+371735280+371495395+371162652+370487120
2858+369788135+369240012+368632698+367681272+366533403+365603053+365194489
2845+365486878+366083297+366231511+365895713+365624537+365651519+365837813
2831+365962201+365898530+365915432+366233378+366518470+366620424+366735208
2818+366876430+367052406+367257503+367475395+367857384+368450647+369081820
2804+369464420+369506505+369549507+369881503+370358659+370734573+371001711
2791+371242342+371373179+371365746+371461184+371862994+372459176+372981845
2777+373262151+373313569+373357250+373656766+374172307+374538718+374593972
2764+374732038+375177460+375480370+375462247+375617893+376056630+376301062
2750+376371792+376681558+377148837+377598163+378121374+378651917+379021993
2737+379317505+379673904+379919083+379951393+379973081+380085353+380334808
2723+380703934+380938762+381157909+381787386+382521464+382859264+383085708
2710+383371275+383520100+383816189+384446717+385081284+385507904+385742969
2696+385956279+386272460+386611074+386986276+387415747+387780359+387964311
2683+388044442+388325461+388776314+389016402+389004116+389093106+389514295
2669+389947635+390080644+390277120+390728040+391005666+391059018+391250234
2656+391512892+391597741+391657135+391886125+392197384+392626923+393207187
2642+393567251+393561244+393561651+393785584+394148839+394579667+395044706
2629+395495729+395867706+396041205+396081728+396373778+396960762+397404555
2615+397639451+397954443+398435977+399111815+399800482+400125351+400346195
2602+400831327+401168211+401278311+401701604+402291303+402579484+402858467
2588+403597636+404571768+405251101+405540741+405669779+405817145+406041519
2575+406301190+406647713+407062827+407293650+407363429+407546194+407860677
2561+408151064+408316044+408286041+408112780+408050060+408244160+408644511
2548+409106020+409392911+409471074+409490962+409660558+410161879+410766613
2534+411185698+411479207+411686646+411860077+412192005+412599347+412816221
2521+412976382+413380669+413928657+414344178+414638094+414982886+415439712
2507+416026323+416621249+417051398+417445368+417885700+418248106+418600262
2494+419023861+419333050+419421124+419540421+419864577+420213917+420562170
2480+421078798+421571803+421743809+421716827+421730233+421855232+422112460
2467+422509518+422988676+423366050+423528315+423669062+424001805+424494709
2453+424995113+425294358+425387352+425570422+425903810+426174749+426359109
2440+426560574+426750669+426991673+427418531+427755007+427792748+427840263
2426+428163469+428713968+429194824+429478897+429747325+430032383+430324025
2413+430661147+430966433+431227563+431547545+431901840+432162699+432473755
2399+433067289+433669784+433928165+434088394+434352273+434532798+434663533
2386+434778282+434649821+434224423+433522113+432265434+430243181+427937127
2372+426092005+424712329+423379015+422269600+421642160+421135341+420851742
2359+421110090+421740381+423489149+426949656+430624662+432586468+432235398
2345+430525796+429389636+429397205+429929377+430735712+431691075+432536984
2332+433092133+433766885+434912208+436061298+436880938+437872922+439379497
2318+440890960+442097205+443276807+444382590+445213701+446065108+447027260
2305+447765241+448379953+449275006+450331883+451004802+451290810+451660547
2291+452173883+452798506+453568322+454166167+454437853+454699458+455096517
2278+455398986+455604388+455964758+456451450+456831980+457081198+457420118
2264+457862520+458242439+458716371+459322395+459757160+460045816+460342515
2251+460574661+460784577+461118169+461572110+461952742+462173722+462443711
2237+462905220+463407627+463636006+463577970+463679177+464151072+464813504
2224+465489681+465980582+466241611+466484313+466695383+466790956+467043942
2210+467549029+468006874+468308834+468572849+468876235+469224861+469474317
2197+469630473+470037407+470723597+471335017+471759465+472034070+472183641
2183+472388805+472778499+473226399+473667850+474282393+474923714+475126639
2170+475057436+475273767+475791005+476331628+476750883+476979635+477156663
2156+477449426+477805044+478307519+478928239+479347086+479598375+479735422
2143+479695136+479801095+480157155+480497500+480766980+481095345+481572127
2129+482095034+482598289+483123164+483464459+483583078+483837319+484363551
2116+484998424+485488884+485653050+485623149+485714039+486153759+486830921
2102+487361226+487542429+487519927+487639767+488084002+488589022+488797852
2089+488817129+489127608+489823301+490477722+490894126+491160823+491410686
2075+491875963+492429618+492779467+493053868+493443256+493907820+494275555
2062+494607212+495263738+496125395+496610628+496690861+496745979+496832660
2048+496944763+497173617+497466651+497696693+497931758+498339677+498731271
2035+499040969+499602295+500254172+500546018+500730988+501231392+501773440
2021+502094067+502327503+502617347+503205281+503926258+504369305+504701098
2008+505173705+505746333+506331009+506870410+507358426+507736513+507865109
1994+507646743+507407707+507760847+508673956+509704564+510568664+511124186
1981+511538079+512098556+512804328+513419788+513832288+514108251+514282700
1967+514524485+515044506+515690138+516357796+517074735+517652657+518054501
1954+518534168+519171722+519679729+519892937+519816200+519357202+519320479
1940+520517594+521931175+522690640+523070050+523481464+523905708+524168163
1927+524226776+524094107+524242253+524838061+525233083+525685429+526686238
1913+527579356+527814659+527808075+528370928+529354122+530127264+530718219
1900+531183089+531241974+531155903+531528865+531896362+531815077+532309541
1886+533535233+534546937+535290586+535892367+536252601+536424980+536428747
1873+535998360+534725221+533576402+534817265+537413129+538954289+539406092
1859+539875374+540760007+541654755+542202810+542449042+542344813+541814033
1846+541091563+541207534+542941776+544817613+545797210+546264353+546316315
1832+545237173+543886822+544481001+546120110+547556023+549208301+550728996
1819+551764524+552320725+552221724+551716636+551734182+552593735+553371357
1805+553479692+553088709+552846313+553424981+554306357+554295734+553315594
1792+553693545+556548809+558819533+559324519+559108935+558949623+559304393
1778+560189400+560228939+558391182+556091236+556934532+560248828+563271618
1765+564521916+563788890+563186328+563980750+565016550+565763899+565179426
1751+562621608+560717669+561955884+564074016+565103809+565183872+565561755
1738+566460236+565630143+563395565+565091726+569314516+572763857+574531835
1724+574740902+574217215+572493631+568544360+566298989+569983599+574552131
1711+577127801+577398978+575610433+573984933+573823788+572655319+570112841
1697+569858702+573544195+578587133+581020053+580851238+579644688+577071393
1684+574782173+577358929+581088475+583201279+583068032+581911102+580916741
1670+580103211+582419176+586179472+587268455+587141861+588824990+590314459
1657+589262877+585130673+580848727+582134899+582413678+581719072+586478207
1643+593059556+596755909+597429812+595695706+596726450+605096886+612975336
1630+617834661+621967273+626625404+631683547+638710318+645782432+650320418
1616+655476917+663171822+668892532+671425913+673259191+676380812+679624820
1603+682162342+684452445+686336903+687897307+689770768+691713942+693067789
1589+693861431+694552711+695375948+696139927+696309828+694817032+691037188
1576+688691559+691072621+692442555+691001619+691147966+693607156+695717719
1562+696134972+692029036+686713564+692226225+699470141+704734229+708271813
1549+711179819+713233024+712682933+708801202+704772173+713380186+727478392
1535+735918880+741998399+749920970+756928123+760936924+763647470+766187232
1522+769672482+775488223+781173975+787351104+793872380+797337876+796077295
1508+790037621+789112158+800765022+810119704+813385229+812205424+811829510
1495+815409926+818648231+818159774+816493411+820747866+828920503+835416324
1481+838583424+839281085+837516977+832818661+828653263+831614554+838342454
1468+842648904+844066422+844361764+845413482+845670472+842591750+842270342
1454+850121640+858999065+865524414+868565802+869671280+871984870+875661810
1441+878696071+879374793+878754650+881311925+884991038+885538278+885946639
1427+889260290+891909270+891740387+888987892+883055738+879092213+880245003
1414+881213569+881141617+881625934+881333172+878622558+875735051+874426750
1400+871945907+867584678+863607984+861227670+861416102+862759700+862421187
1387+859979171+858527102+859443809+861216741+861375578+858728024+855677472
1373+855646723+857774595+859579024+860497631+858904035+854894216+853765794
1360+856402692+857525547+856600423+856790960+858350956+858588804+857367389
1346+857563627+859620362+860259172+857803919+855111225+855430867+857994727
1333+859379120+857947347+856630426+858028802+861243622+865055166+868063226
1319+868994051+869984610+872652528+875267229+877701575+880622546+882948286
1306+885206961+888761990+891932892+893572239+896460560+901261509+905266712
1292+908793571+911744206+911224727+909514651+910766680+913253836+913791845
1279+912666953+912200624+913511437+914968460+914260346+912020405+911291656
1265+912674624+913562821+912882401+912596359+913527456+914451358+915451080
1252+916998451+918246339+918990905+919886365+920745239+919928314+917604747
1238+917281846+919911412+922238034+922190723+921335922+922097796+924094458
1225+925675633+927068850+927890526+927293123+927216352+928625317+929800575
1211+930365396+931023144+931795947+932411338+932387649+931570521+931763772
1198+934846296+938421756+938917206+937080942+936645226+939321425+941977668
1184+942052063+942157683+944503379+946738161+946615775+946763616+949982780
1171+954062174+956017702+957268441+959574971+961114196+961680308+963569992
1157+965938089+966288005+965385689+966639483+970214333+971870853+971054200
1144+971306642+972651258+973491465+974828207+978500463+984358018+988335051
1130+987941149+987361394+988837763+989124484+987513104+986517250+986441158
1117+986108550+985889369+986729304+989696840+994756816+997961046+996683834
1103+993617127+991688479+993035132+998013109+1002206270+1002130992+1001378009
1090+1004706323+1011186396+1015842152+1016309091+1016107762+1017727696
1078+1019235832+1020897104+1023646002+1023970735+1020381155+1018004710
1067+1020741254+1025510164+1028192812+1028736930+1028430320+1027812757
1055+1027325996+1029048291+1033175609+1035687133+1035448606+1035195961
1043+1037521157+1044010122+1051114343+1052576254+1050144759+1049498618
1032+1050472343+1052956309+1056756925+1055241118+1048289489+1045068900
1020+1047697448+1050976074+1051328773+1048436176+1046177704+1049197507
1009+1054482162+1056457510+1055421540+1053256742+1051835626+1051403101
997+1048849695+1044692171+1042047739+1040870513+1042106115+1045791201
986+1047419144+1047834088+1049939425+1050018911+1048513965+1048225818
974+1047282368+1047790917+1051450209+1053186148+1051041781+1048806320
962+1049270884+1051022910+1051738559+1052746156+1054793795+1057641796
951+1062735983+1066406135+1064085486+1060053471+1059856350+1062937719
939+1065250697+1064244051+1061193567+1059149525+1060482602+1063798425
928+1064753891+1063891555+1065409874+1069031696+1071197377+1070164801
916+1068403815+1068838716+1070475144+1071209324+1070127332+1068178049
905+1067293110+1067404228+1067771725+1068310888+1067699773+1067148663
893+1070578727+1073741823+1071106962+1068130941+1067719187+1065928334
881+1063436834+1065132792+1069524498+1067622459+1058245716+1050461754
870+1048781137+1048946219+1046623669+1043003205+1039875881+1038169266
858+1038598669+1036062708+1027239790+1020318707+1018960311+1016154531
847+1009043251+1001835243+998789171+1000015813+1001206140+999237919+995210927
833+990702129+985514880+979557883+973721779+968788398+965920847+965438906
820+962765015+956297567+953241924+955430480+957271088+956779916+954202005
806+949424203+944939095+942948949+941146625+936746977+932644164+930022064
793+922595078+912917156+911614964+916387607+918550437+918198349+919068083
779+920259564+917575423+912739516+910021300+907100600+901082716+895451402
766+893495196+891806569+887872707+884437145+882838050+882885701+885680010
752+889059436+887036097+880028808+873355823+869204476+869447211+873234387
739+874869593+870978970+863625972+858747641+860656061+866552713+871879725
725+875989258+877951913+876371824+872007338+865245974+860253131+863533182
712+871259650+873768731+869900100+863480032+858058465+855755465+854754996
698+853203213+852655836+852953418+851310202+848793179+848720820+850814549
685+851732885+850161689+849831525+851794315+851004407+845532406+837357393
671+828336743+826106577+840259969+853609537+851732478+841457559+831498685
658+826469730+825702629+829612054+836230126+838346323+835006334+829609543
644+824380413+823429360+827030139+827861725+828567396+843613465+853243872
631+831130984+816064619+834641417+852468219+838125987+822962284+833429979
617+847599119+835285385+817174577+815219118+815186807+803747559+798159960
604+811116169+824226803+821924821
##END=
