##TITLE=Sample description
##JCAMP-DX=4.24
##DATA TYPE=INFRARED SPECTRUM
##DATE=25/8/2023
##SAMPLING PROCEDURE=Instrument type and / or accessory
##ORIGIN=Default
##XUNITS=1/CM
##YUNITS=ABSORBANCE
##RESOLUTION=4
##FIRSTX=4397.6552
##LASTX=599.8556
##DELTAX=-1.9287962
##MAXY=1.8281424
##MINY=0.12329825
##XFACTOR=1
##YFACTOR=1.7025903e-009
##NPOINTS=1970
##FIRSTY=0.13717471
##XYDATA=(X++(Y..Y))
4398+80568244+80909697+81004175+80770303+80490500+80633657+81289475+81853816
4382+81845860+81562626+81569077+81897576+82120228+82073160+81970297+82124701
4367+82450960+82568579+82664256+82946440+83075147+83073861+83243511+83281547
4351+82971882+82739042+82638884+82322497+81884273+81655416+81625142+81593259
4336+81529325+81470441+81530165+81723025+81806774+81754419+81589320+81120560
4321+80595516+80568621+80925171+81118845+81024016+80940522+81116735+81393799
4305+81479228+81358406+81252620+81359290+81514761+81360314+80939095+80809355
4290+81226276+81637912+81609984+81445471+81619445+82172539+82662488+82754779
4274+82608024+82437683+82260489+82080835+81931622+81900762+81946273+81871092
4259+81789305+81930781+82084573+82014687+81970595+82128455+82273608+82290823
4243+82223616+82191146+82351878+82546952+82521466+82402088+82230137+81863986
4228+81635759+81846858+82307277+82776711+83031624+83088433+83029882+82766865
4212+82589890+82744705+83007083+83298911+83628601+83796185+83756005+83742920
4197+83757186+83581716+83393451+83507902+83880669+84239836+84361174+84272726
4182+84104993+83928306+83847315+83895057+83880608+83761457+83826432+84009683
4166+83992083+83867873+83898418+84209991+84599396+84688764+84448703+84069985
4151+83660003+83327705+83295410+83617118+83922644+83928114+83900527+84024754
4135+84000572+83792772+83680921+83725565+83901184+84103663+84226401+84378109
4120+84527708+84512839+84428425+84343127+84271859+84394642+84589148+84607912
4104+84683066+85037060+85359442+85410397+85438193+85516393+85417241+85203244
4089+85115881+85172988+85283282+85504324+85800091+85904056+85784346+85693954
4074+85784127+86060429+86370794+86448066+86297006+86202939+86321853+86582533
4058+86819906+86945078+86986851+86961733+86875560+86684083+86343777+86185032
4043+86471461+86776575+86779892+86662089+86599372+86687461+86905930+87019015
4027+86777284+86348275+86076498+85926356+85945620+86226281+86463864+86483302
4012+86378794+86299413+86429958+86637960+86555638+86238157+86031889+86010394
3996+86039170+85982107+85894263+86059834+86438317+86506075+86114639+85766404
3981+85711485+85657537+85435918+85341299+85593665+85883638+85928719+85796493
3966+85595730+85329992+85152482+85264552+85555304+85899803+85958319+85217493
3950+84028194+83548826+83874350+84027056+84204889+84976312+85715905+85707503
3935+84557500+82906644+82667993+83798067+84149313+83418482+83191217+83412557
3919+83047272+82870892+83925663+85337028+86180341+86077224+84268411+80666285
3904+77449896+77078827+79013740+81763556+83538989+83114610+81694520+81926020
3888+82580998+81717870+80659528+80270167+80643363+82536572+83584753+82342067
3873+80117172+78434144+78873479+80151585+79889277+80122957+82070981+82860460
3858+81052032+76665625+72418039+75644217+81464472+84699380+84953469+82799467
3842+79463901+76381341+75574997+77822865+80388670+82039543+83035623+83214962
3827+83043141+82564456+80197901+77307395+77776514+79793443+82675126+85930802
3811+87276431+85839939+83185721+81861763+80676236+79671553+81245093+83367606
3796+85436793+87798797+89290663+89645323+89085384+88011629+87503739+87434029
3780+87038900+87638906+89434573+90152478+88870136+86776155+86099997+86915829
3765+88038507+88647676+87635755+85878343+85500341+85113247+82357295+78438546
3750+78581362+80850200+81792341+83287131+85618844+86217371+83925077+80346275
3734+80714491+85411902+89549908+90873883+89986522+89129818+89838664+91686809
3719+93659417+94631971+93593444+90613204+89333793+92597714+96384220+97968254
3703+97788216+98309348+100282350+101789243+102213744+101224631+98622085
3690+97475094+101344175+106333817+109550678+110942106+110458012+108331307
3676+106650633+109390857+112957196+115451207+120765787+127280098+132132682
3663+135475135+137892032+139580094+141364935+144088154+145460301+143722117
3649+143067813+150444140+159858076+166745732+171863460+176360003+180335361
3636+183456920+185888223+187252861+187824493+191885218+199253397+205241184
3622+208749637+210402235+212973868+217210737+221146798+224960541+228852106
3609+232442689+236913745+241847628+245440188+247888943+250467560+253144481
3595+255940447+259562729+262588261+263390405+263554488+266348441+270480356
3582+273713609+276121299+278215578+280014685+281397037+282263017+281936408
3568+279979957+279453293+282594580+286313765+288888742+290822281+292172547
3555+292451195+292676333+293667013+294028245+293561113+294303655+296298703
3541+298045473+299133773+299657636+300481484+301435458+301255831+300517613
3528+300546460+300944083+301123850+301816033+303089176+304259221+305071866
3514+305139397+304332283+303573620+303672833+303943972+303563292+303126495
3501+303592594+304363440+304600726+304642981+304680230+304428030+304041505
3487+304146179+304588333+304364736+303769736+303768756+304136972+304311698
3474+304090026+303539172+303084765+302977745+302815552+302277266+301623452
3460+301340096+301511251+301571360+300997681+300036915+299108357+298063467
3447+297178214+297068919+297504946+298014001+298229651+298087553+297975561
3433+297849882+297304979+296516489+295869992+295498310+295483957+295615868
3420+295441177+295077932+295253253+295968366+296514354+296711870+296748874
3406+296918278+297513978+298394645+299188771+299808592+300372854+300848581
3393+301208325+301602903+302401685+303798303+305529914+307181426+308433180
3379+309485492+310512913+311299968+312249530+313843980+315740199+317654659
3366+319526723+321118301+322576148+324097045+325584614+327190161+329179468
3352+331487839+333657998+335477095+337097380+338761916+340942753+343540992
3339+345838231+347883201+350276888+352634201+354278536+355690698+357329957
3325+358945621+360424683+361607366+362198620+362287435+362515479+363558619
3312+365171097+366646973+367970004+369307317+370275470+370587358+371035918
3298+372398683+373686040+373803107+373350486+373077667+372791615+372200536
3285+371516406+371167059+371101523+370827304+370301971+370084815+370441794
3271+370837456+370844178+370733692+370747520+370821668+370759353+370550179
3258+370463779+370467595+370383610+370108305+369586928+369147540+369032678
3244+368977365+368734373+368461729+368196962+367645793+366943318+366151292
3231+364839044+363240639+362094890+361602920+361313052+360832179+360251988
3217+359509744+358536445+357528384+356465149+355621627+355267693+354870315
3204+354318586+354146170+354100940+353741615+353558067+353705627+353626893
3190+353270790+352767092+352070918+351056345+349697957+348764848+348743248
3177+348655832+347583741+346287702+345713077+345405740+344849459+344096923
3163+343244192+342705066+342652694+342673314+342737204+342837222+342369162
3150+341504809+340783220+340023437+339413874+339149317+338786177+338229301
3136+337776225+337387003+336905850+336216609+335182291+334369505+334094096
3123+333725879+333290517+333059778+332597880+331793146+331080134+330518252
3109+329925248+329377719+328834777+328087141+327200768+326600307+326418160
3096+326325318+326151257+325740891+324960768+324103697+323690495+323762787
3082+323794294+323669945+323553403+323492138+324006304+325417345+326801535
3069+326794358+325105317+322489013+319795271+317474646+315491291+313686478
3055+311934071+310262499+308930577+307890728+307039678+306485813+306045095
3042+305556975+305137682+304791066+304349647+303670348+302893200+302154807
3028+301201428+300099790+299442126+299317566+299343157+299549251+300078680
3015+300694334+301360121+302469671+304003661+305454646+306822522+308603390
3001+311023578+314119074+318060299+323056041+329241362+336594802+344629397
2988+352205455+357775612+359968701+358820117+355916536+352581793+349200700
2974+345981065+343119563+340677565+338771018+337531307+336911732+336796870
2961+337069304+337519684+337992960+338554317+339265684+340217452+341605178
2947+343144244+344252779+344682995+344357594+343388601+342084966+340607514
2934+338972735+337346709+335886306+334227757+332004210+329446930+326676240
2920+323300853+318895910+313789192+309086783+305250653+301811026+298550816
2907+295765563+293577725+291560989+289534066+287941227+286960910+286419070
2893+286240213+286355828+286665615+287155065+287873906+288823767+289934840
2880+291078663+292155183+293193422+294208853+294990621+295337868+295443557
2866+295429204+294997588+294041303+292687886+290771029+287995367+284311978
2853+279770345+274566252+269328393+264544993+260073044+255820596+252025811
2839+248667858+245433134+242260987+239361449+236755035+234337018+232305334
2826+230793837+229431825+228023164+226809482+225920763+225323961+224794129
2812+224096783+223425518+222994287+222673507+222294560+221839086+221404931
2799+220971670+220383672+219629455+218688924+217520910+216239627+214865695
2785+213453778+212157984+210927936+209742645+208669836+207614391+206513453
2772+205474776+204545326+203673936+202877885+202242731+201825818+201482650
2758+201043682+200672157+200473608+200180467+199633656+199030692+198505429
2745+197957795+197418284+196975115+196501208+195983227+195565596+195210946
2731+194869458+194547733+194160787+193787897+193648494+193656879+193512680
2718+193188119+192855418+192569436+192336439+192125742+191901007+191739059
2704+191616687+191390552+191088746+190821073+190541725+190182278+189760149
2691+189321146+188917204+188493255+188014465+187631930+187336233+186905772
2677+186288052+185587135+184864706+184179963+183660843+183288583+182864249
2664+182357890+181829739+181288739+180833282+180519696+180295154+180064835
2650+179727408+179326319+179030552+178884935+178719101+178435517+178183178
2637+178108068+178150620+178112181+177920284+177729752+177666544+177712738
2623+177830575+178004619+178221250+178438423+178578456+178635502+178725770
2610+178936170+179213365+179485799+179771186+180043672+180200001+180252234
2596+180295556+180346616+180419695+180556367+180687596+180702929+180645883
2583+180619627+180569075+180398008+180165991+179935882+179596092+179058699
2569+178479890+177993241+177505052+176980138+176514564+176160386+175862886
2556+175478006+175008056+174635218+174370136+174073967+173743682+173468324
2542+173307147+173262931+173257995+173206323+173118820+173063629+173038721
2529+173050676+173174063+173359239+173511875+173628697+173698398+173792746
2515+173974683+174147536+174314683+174522877+174709576+174910540+175136466
2502+175338568+175632760+176002079+176193241+176188743+176204636+176270819
2488+176252388+176094396+175884591+175790104+175781860+175661256+175434421
2475+175191394+174919660+174636181+174372657+174108415+173792028+173403979
2461+173004518+172682670+172454994+172248446+171997227+171688297+171335554
2448+170968685+170626708+170328893+170053273+169770739+169466010+169158603
2434+168906667+168691331+168434283+168190346+168084184+168095859+168086039
2421+167971615+167809107+167691076+167640034+167624841+167588782+167510136
2407+167433714+167412201+167415457+167366253+167308997+167312340+167328566
2394+167338439+167352635+167330159+167217153+166898210+166229378+165145419
2380+163696482+162011256+160144128+158126202+156090947+154077782+152037224
2367+150114083+148627056+147745462+147442623+147675288+148531676+150273265
2353+152922809+155620244+156905203+156142147+154215732+152801085+152485189
2340+152823333+153367221+153843175+154152472+154423821+154964873+155707485
2326+156345054+157007427+158011288+159281018+160501667+161531626+162345305
2313+162883784+163271465+163772782+164354741+164825094+165183333+165481235
2299+165788293+166182905+166528454+166713437+166898368+167137474+167334343
2286+167542362+167770335+167880243+167840054+167755877+167730986+167736797
2272+167700179+167651727+167610575+167592581+167648034+167725665+167709823
2259+167554072+167402644+167467934+167658186+167726522+167700739+167715600
2245+167737235+167716632+167673450+167622583+167605709+167636481+167647946
2232+167632053+167669844+167787594+167893161+167922568+167963003+168061796
2218+168151872+168228925+168338886+168480109+168593483+168638731+168659089
2205+168718112+168838208+169002169+169159759+169261405+169347805+169481904
2191+169608196+169683761+169779124+169911472+169975555+169951189+169942315
2178+169955338+169931655+169880928+169860063+169916881+169968746+169942280
2164+169993024+170144417+170183959+170160888+170248601+170398682+170554083
2151+170719357+170839295+170850673+170794502+170784210+170866514+170990513
2137+171078856+171148033+171264907+171396486+171529132+171712435+171889997
2124+171984624+172041337+172119808+172207591+172297562+172404197+172506019
2110+172608173+172717591+172787852+172848171+172971050+173163928+173395227
2097+173637852+173887215+174100048+174256464+174438717+174692334+174993230
2083+175349508+175748917+176084051+176300436+176488676+176734591+177044221
2070+177306537+177376186+177429259+177724903+178082705+178340820+178610663
2056+178850312+178984779+179110791+179271846+179373160+179383032+179359752
2043+179376538+179571691+179902344+180131263+180241258+180383532+180597099
2029+180828014+181034037+181200606+181373774+181519986+181497581+181502867
2016+181908087+182503874+182852976+183020281+183268839+183619831+184003556
2002+184362355+184670008+185005386+185249989+185117062+184963044+185425222
1989+186307307+187207333+187967274+188477903+188909940+189473047+190088876
1975+190643126+191159883+191489800+191480295+191627207+192466722+193501355
1962+194144245+194510571+194747647+194943308+195214814+195460589+195554516
1948+195410160+194880696+194100153+194026705+195027013+195920405+196182861
1935+196203656+196263415+196430404+196618153+196462174+195713086+195175482
1921+195375187+195668801+196282862+197332251+197868927+197702585+197633987
1908+198244512+199073192+199610953+199978294+200230949+200156959+199990932
1894+200145301+200110835+199871082+200472645+201515190+202185562+202703719
1881+203163131+203548712+203880590+204008090+203395533+201567405+200041432
1867+201290700+203810048+205248676+205672503+205977582+206523920+207165691
1854+207664628+207766869+207261561+206149280+204934967+205401889+207851081
1840+209714429+210443457+211051252+211385231+210406191+209084246+209620099
1827+211065466+212576245+214505653+215975087+216720885+217261832+217434545
1813+216905203+216603397+217533776+218843538+219321715+218619975+217657197
1800+217878449+218672768+218411432+217229484+217813911+221023832+223537439
1786+224376744+224529029+224543733+225039957+226107952+226072191+224129726
1773+222570967+224468815+228036257+230993909+232270606+232246327+232985141
1759+234381513+235687547+237025176+236823144+234800317+234082543+236445615
1746+239484853+241696025+243393065+245482618+247104023+246612561+246573579
1732+250734113+255906314+260470702+263658673+265491317+266576117+265880101
1719+263394693+264408163+271047209+277309495+281202916+282688752+282809023
1705+283849520+285451583+286359574+288470937+293260953+301524904+309677197
1692+314095514+316633434+318019479+318231804+322816445+332900911+341284783
1678+347533329+353280137+359823662+365313685+370843793+379989829+387848053
1665+391301158+393153512+395638920+396618135+394206349+388463042+384446094
1651+387112215+387897939+388864026+396130856+404126312+409214546+411626191
1638+412617169+419201899+432372829+442365433+449926367+458438230+467879875
1624+478567987+491806833+502857806+510641918+520636097+532335877+540789066
1611+546500411+551329444+555792781+558930567+560628501+561457565+560976727
1597+558500351+554672693+550812232+547118201+543160557+538815618+534033041
1584+529059074+523965239+518140012+510635161+503905182+501797127+499871536
1570+496295412+494755610+495603509+496285434+495239879+490938455+489447630
1557+497779970+505679818+512028383+517821752+523909085+528535631+530358964
1543+531297989+537718845+559381788+579040475+591214582+605759024+623257320
1530+636189984+645875076+654767863+661521997+668731099+678539840+686067656
1516+691395976+695478144+695730973+691105548+683062691+682115229+692579324
1503+700183388+703492995+704713591+707509067+712555151+715917270+717414571
1489+721464951+730391276+739704301+747335671+753897401+759123287+762052004
1476+762193717+761485501+765577331+773768763+780298775+783721808+786209702
1462+788620787+788825445+787173688+791891325+802387557+810522906+815101910
1449+816826765+819654869+825735655+831986582+836069660+838438736+840264414
1435+843356060+847807984+851240119+853273466+854420756+854359421+854583194
1422+854366913+850973567+848758527+851928101+856354049+859539727+861000759
1408+859377849+854266159+849274198+847242391+844794967+840165761+836477996
1395+835698363+837197275+837103172+832777137+827985843+828714504+832929983
1381+834829249+832584592+828499694+824996492+823788989+824224491+824916253
1368+826475099+827660337+825572867+822207458+821634793+821836231+820411816
1354+819139478+819508324+820030367+820068596+819605157+818278976+816705427
1341+814900893+813634856+814938282+817504314+818504989+818403885+819679164
1327+822085839+823759232+824101332+823522786+823841151+826581734+830530660
1314+834188669+836827938+838142636+839629995+842451587+845550234+848298029
1300+851172623+854144751+856621162+858097178+858516366+858337615+858249814
1287+858169715+857277146+855554812+854070603+853571386+853397605+852612161
1273+851734575+851497710+850888077+849047135+846874665+844801339+842434643
1260+840362997+838989135+837439041+835663915+834653718+834416642+834290192
1246+833885007+833129460+832601326+833065885+834287112+835259500+835964985
1233+837301599+839547096+842094644+844099914+845503043+846974438+848773020
1219+850728439+852751284+854167156+854224219+853937712+854826641+856699370
1205+858972734+861925046+864321008+864481976+864237829+865234723+866240929
1192+867032535+868581788+870718479+872675789+874694152+877484237+880515248
1178+882895666+884779178+886927702+890027260+893757035+896875776+898918436
1165+900929798+904283724+908591905+912374823+915299759+917145042+917730239
1151+918675881+921158384+923790861+925557236+928017753+932879974+938462103
1138+941639379+943408624+945939578+947447732+946448597+946330480+949647858
1124+954364304+959607415+964254825+965886838+966204012+966611858+967054572
1111+968637153+970660978+971521690+971890116+973819559+977253585+980253019
1097+981196350+980374567+980584126+982815830+985403217+988312259+991911104
1084+994417762+995331966+996820236+999813998+1002776463+1005761473+1010175169
1070+1013330389+1012977996+1012688549+1015216982+1019241526+1022874608
1059+1025683668+1026757860+1024763932+1022622899+1025277432+1031324961
1047+1035162491+1036555538+1037994866+1038598128+1036817050+1033116191
1036+1031235970+1034087809+1038787172+1042738829+1045429700+1044254615
1024+1041960947+1044639495+1049746633+1050228976+1044979075+1040790692
1013+1042918701+1047113665+1048198150+1046615779+1043838577+1040288744
1001+1036248726+1034269012+1036101412+1038973906+1040527150+1041953945
989+1043897111+1043785014+1041102685+1039204050+1040137019+1043584838
978+1046339704+1046076932+1044995318+1044663301+1045551949+1046821557
966+1046666331+1047582846+1051801825+1056624347+1058289197+1055097779
955+1050238499+1049482181+1053434188+1056371167+1056505879+1058668336
943+1061469484+1060749015+1059982475+1061430625+1063126702+1063940083
932+1063279408+1061319368+1060222141+1062054681+1064931376+1066202174
920+1065735795+1064835383+1065856013+1068727176+1071491495+1072760823
908+1072051486+1071317644+1071144144+1070241212+1068984627+1067645563
897+1067470872+1069022506+1069352283+1069117028+1070185199+1070351137
885+1071369806+1073741823+1071072027+1064666784+1061077182+1058492105
874+1055199863+1055080275+1056521143+1053466046+1046604926+1041012924
862+1039064017+1039975141+1040832142+1038548626+1032762818+1025755574
851+1019365735+1014273020+1010916083+1007893474+1002278716+993606131+986812087
837+985406298+983655887+977328852+970146637+964126625+959397925+955694337
824+952227403+950157858+950481193+952100673+951205163+945541744+940496571
810+941083729+942682274+940318029+938122804+939157997+940063589+938246733
797+933548701+928250628+926161477+926244027+923994959+918041742+911544918
783+909092523+909424751+907332800+903044504+899378234+896263133+892154009
770+886781508+882417524+880885285+880095499+877467993+874536965+872743845
756+870979010+869110482+866736575+863263060+860066040+858120984+857019835
743+856175997+855350014+854756764+854446662+853772543+852212157+851274567
729+852993751+856189300+857312504+854961002+851653146+849813044+849695277
716+851205741+852343228+851576198+849700598+845905848+842581398+843208045
702+843736039+841331745+838504831+836524977+837180891+840634171+841332585
689+836301974+830581632+828479669+827910086+825355046+821622190+820535465
675+823644895+827055815+823955838+814536528+810970311+815330374+818408156
662+821799472+824797225+823856414+821986556+819586113+814717730+808889423
648+804757333+803626428+801679551+797761782+796274423+798516769+795260025
635+774241724+756927922+769506163+790682351+790961507+783058682+780478647
621+779583417+778717384+779662326+780779928+779491065+778486050+782623670
608+792773882+801891281+801863765+795922871+795551223
##END=
