##TITLE=Sample description
##JCAMP-DX=4.24
##DATA TYPE=INFRARED SPECTRUM
##DATE=25/8/2023
##SAMPLING PROCEDURE=Instrument type and / or accessory
##ORIGIN=Default
##XUNITS=1/CM
##YUNITS=ABSORBANCE
##RESOLUTION=4
##FIRSTX=4397.6552
##LASTX=599.8556
##DELTAX=-1.9287962
##MAXY=1.927187
##MINY=0.62079382
##XFACTOR=1
##YFACTOR=1.7948327e-009
##NPOINTS=1970
##FIRSTY=0.73000145
##XYDATA=(X++(Y..Y))
4398+406723946+406784121+407101034+407466566+407147992+406301328+406477369
4384+407501270+407858333+407530493+407194651+406973877+407207735+407747548
4371+407702483+406988423+406166400+405967179+406456447+406539370+406486302
4357+407315598+407905789+407211919+406389465+406464882+406947376+407260969
4344+407411572+407403535+407095090+406363528+405615362+405594540+406232818
4330+406668985+406402582+406139235+406757421+407522855+407557692+407543312
4317+407890180+408157978+408308946+408256775+407596546+406851502+406863523
4303+407291953+407662566+407801512+407596214+407449331+407535674+408119223
4290+409160957+409428456+408815882+408277630+407977487+408169734+408698422
4276+408732561+408409204+408224130+408299083+408715724+409383690+409936321
4263+409741085+408868618+408191851+408402330+409140102+409065415+408336609
4249+408169070+408402131+408555158+408621045+408610052+408543734+408300113
4236+408015378+408079771+408060476+407658780+407563769+407728619+408157845
4222+409365624+410383580+409840978+408070107+406957970+407251338+407363220
4209+406657163+406221460+406598515+407560182+408265841+408230440+408177140
4195+408138617+407548094+406874814+406706079+407268607+408223898+408755475
4182+409157404+409747960+409413312+407976790+406877040+406596556+406360008
4168+405999491+405902421+405732457+405473360+405916037+406747591+407186714
4155+407252800+407176851+407197008+407264788+407654064+408530650+408406780
4141+406703057+405404983+405763707+407042221+408087243+408209552+407863680
4128+407814796+407673857+407124779+407068722+407967624+408825081+408689024
4114+407825190+407089610+406908488+407043815+407091802+407023591+407199831
4101+407437076+407289994+407264257+407597875+407719021+407835884+408376792
4087+408661327+408069111+407134509+406663937+407020336+407749175+407945075
4074+407722741+407809416+408166712+408214101+407537633+406522533+406211996
4060+406950000+407771491+407592495+406789965+406689276+407355914+407684517
4047+407408583+407091205+406914433+406696416+406809426+407712545+408431122
4033+407976059+407202886+406885342+406710662+406697744+407033786+407358736
4020+407472311+407549456+407657020+407848370+407888387+407557924+407547829
4006+408154391+408594677+408710244+408955161+409410124+409903810+409874320
3993+409241555+409011483+409243813+408970370+408303068+408076284+408195072
3979+408192881+408466855+409019121+409346861+409711397+409947978+409523234
3966+408791008+408146787+407727722+407919172+408548516+408821195+408576677
3952+408247310+408148447+408325219+408479076+408226555+407790088+408134366
3939+409316143+410180109+409906533+408967614+408567611+408859021+408884525
3925+408159738+407494927+407613948+407889450+407851691+407801213+407791317
3912+407828943+408310042+408798314+407872214+405705292+404675447+405314024
3898+406490619+407410642+407559352+406758417+406168757+406475542+406580649
3885+406132692+405414381+404948359+406161219+407616472+407411506+406376712
3871+405067779+403915459+404344021+405062963+405587433+407047203+408486615
3858+408427038+405885983+401472536+401776997+405643557+408438760+408969806
3844+407073438+403813607+400777737+399712392+401721040+404430564+406148732
3831+407320579+408224164+408762515+408765537+407095953+404565658+404711579
3817+405580825+406231091+408189693+410026118+409947347+408068280+406844594
3804+406061990+404636360+405151000+407005758+408796156+410744496+412041840
3790+412155846+411659471+411332661+411516075+411619986+410845219+410483739
3777+411773677+412770811+411803200+409665004+409004908+410214115+411319178
3763+411477419+410683690+409636112+409580918+409851804+408622439+406277982
3750+407565197+411575054+414627627+417386235+420955175+424194018+425674277
3736+424799618+424274351+426625251+429753774+431347242+430874778+429141997
3723+426997557+425016606+424014457+423962917+424044246+423877968+425159272
3709+429257332+434486392+439570561+444556995+450860268+458494724+466202339
3696+473608118+479518660+482041483+482221177+484443924+486591717+485199130
3682+481145105+476136985+469821326+459651726+451121822+448822828+445499800
3669+441905653+441802805+441493363+439485977+437550755+435783603+432393327
3655+429080129+427787434+425738836+421343621+420338816+423434229+426144484
3642+427239684+427426020+427475568+427365347+426436292+424520696+420851032
3628+415942672+413621593+412418165+409772501+405076845+400569782+398207325
3615+396173804+394289258+393642712+393550324+393641715+394185513+394157120
3601+392621634+390556497+389168095+388208221+387324927+386220096+383890217
3588+380316063+378024972+377405757+376754561+375390965+373548462+371697192
3574+370346979+369515890+368435069+366090512+363138462+362364825+363103327
3561+362935356+361526928+360176151+359115355+358013147+357546760+357681821
3547+357452280+356646762+355610010+354785164+354635723+354887547+354752951
3534+354262885+353486857+352174137+351243056+351183379+350843053+350278799
3520+350492565+350745884+350016447+349031833+348683304+348532801+348270682
3507+348451173+348654213+348116891+347534770+347448958+347378522+347168873
3493+346914193+346517379+346333002+346452422+346496457+346798194+347331199
3480+347398381+347121617+346987917+346948299+346775047+346466104+346086857
3466+345878370+346058895+346592365+347146690+347190824+346975929+346927078
3453+346752764+346437278+346078355+345972717+346780759+347806154+348156011
3439+348329396+348478803+348100287+347394329+347241867+348016832+348934962
3426+349284354+349245965+349111136+348930213+348953858+349629728+350871812
3412+352020446+352944388+354038691+355223556+356323007+357180332+357593751
3399+358185303+359371762+360689131+361815382+362559695+363267479+364699320
3385+366932228+369393116+371393761+372994735+374814291+376694154+378440782
3372+380745323+383679008+386298669+388389609+390715170+393675157+397267776
3358+401293042+405098630+408868585+413080353+416657762+419283599+422528353
3345+426585433+429965182+432756667+436059404+439628710+443082415+445966154
3331+447660711+449209181+451729912+454448536+456577799+458395727+459674673
3318+460182705+460754398+461941754+463481358+464754060+465560043+466432776
3304+467219000+466977936+465830664+464636998+463263174+461115713+458197669
3291+455348667+453378408+451955136+450549498+449007569+447225307+445263916
3277+443379636+441732037+439979596+438345779+437567459+437250346+436617349
3264+435297057+433284192+431391477+430099048+428923316+427466104+425901859
3250+424784508+424198834+423780400+423513433+423334204+422872930+422083684
3237+421151773+419923570+418710013+418549779+419452567+419828825+418773675
3223+417528867+416906829+416199842+415329600+414748541+414244229+413758913
3210+413821478+413992903+413582506+413362264+413753931+414100567+414052680
3196+413627571+413119938+413038376+413210499+413093968+412881231+412927657
3183+412856358+412155216+411490338+411750099+412427131+412890663+413362131
3169+414086520+414491005+413813707+412769782+413068696+414741003+415869246
3156+415437297+414597407+415378483+417487257+418055397+416920777+417234503
3142+419663411+420713580+418684774+416596989+417106947+419214425+420136075
3129+419094274+418531381+420520170+422639504+421601357+419152556+419182810
3115+422022879+423478497+421660269+420189741+422016968+425378319+425567344
3102+422645747+421807086+424828842+427826687+426563150+423056310+422358024
3088+425711870+428615468+426782197+423330384+422616357+424636396+426105297
3075+424721112+422893320+423378471+425570366+426066210+423640756+421642303
3061+422394621+424704408+425348696+423513997+421835148+421732798+422588594
3047+423084272+422701837+422271149+422512347+423068266+423116020+422793096
3034+422658367+422666669+422938385+423513698+423942560+424383808+426525458
3020+434875734+450317101+461311081+458171434+448050817+439901223+435006910
3007+432122773+430757350+430369004+430156466+429910454+429622166+429583577
2993+430220792+431819309+433726038+434219757+433653808+434030465+435945464
2980+438156022+438387390+436662380+435379416+435830129+437864547+439280978
2966+438019268+435958116+435758464+437872849+440015429+439211073+436807802
2953+436003413+437780262+440643578+441108471+439000129+437652872+438622443
2939+441228853+442484387+440793051+438977547+439154086+441191095+443145446
2926+442304726+439798275+438333093+438737645+440432036+440509513+437880587
2912+435777359+436232190+438465165+440263434+439913710+438620019+438227189
2899+439192841+440853459+441688666+441288829+440667654+440638065+441407186
2885+442185240+441939626+441011700+440495498+441031393+442200383+442588597
2872+441844349+441331303+441730542+442328471+442598991+442724754+443042133
2858+443505764+443688347+443451035+442782305+441620819+440559559+440444489
2845+441254856+442201446+442764572+443124458+443688281+444422366+445016077
2831+445399210+445396785+445249769+445735783+446530043+446730891+446571621
2818+446802291+447399954+447866706+448220814+448740868+449304059+449703763
2804+449948182+450129071+450362730+450573674+450678050+450902476+451250972
2791+451505585+451811905+452372009+453055118+453650988+453908790+453587592
2777+453048510+452891597+453065480+453362003+453928350+454683988+455086448
2764+454902304+454686180+454911403+455257109+455475425+455840957+456363235
2750+456851209+457371262+457950760+458507111+458978479+459197626+459200681
2737+459294729+459442509+459569733+459805650+460062920+460470561+461340737
2723+462372741+462823387+462700746+462848227+463379937+463794784+464075965
2710+464119668+463796212+463717142+464235867+464791819+465116869+465357568
2696+465503090+465874101+466547215+466880434+466796382+466893950+467335265
2683+467823305+468102294+468095386+468066561+468323034+468588042+468757176
2669+469196332+469451178+469098631+468959120+469385225+469703600+469767527
2656+470009953+470543888+471095788+471378464+471452354+471528236+471684917
2642+472037696+472406615+472503353+472567048+472803596+473245674+473913674
2629+474289235+473984974+473621368+473797243+474204552+474447974+474691496
2615+475230744+475948092+476452603+476668661+476663912+476564717+476750887
2602+477232185+477839744+478559450+479037627+479056656+478893932+478927373
2588+479262087+479697424+480203795+480602270+480527019+480270579+480411352
2575+480914103+481288535+481394040+481432795+481413600+481268410+481167521
2561+481385073+481762992+482037631+482365769+482752322+483046322+483280312
2548+483423078+483393588+483352874+483571058+483818564+483703229+483436893
2534+483408068+483741187+484313213+484804075+485075692+485259902+485522187
2521+485921327+486353608+486802196+487246765+487478465+487521271+487502043
2507+487383221+487376878+487667059+487869933+487787375+487953553+488562806
2494+489201017+489732926+490067972+490118150+490129209+490141363+490215187
2480+490631064+491139261+491308561+491291359+491357777+491463548+491482510
2467+491269308+491028443+491352463+492158247+492767002+492887385+492649874
2453+492518565+492883366+493454528+493840317+494085732+494324538+494632685
2440+494895435+494963314+495062808+495188903+495115577+495120160+495301946
2426+495370423+495274383+495255321+495758371+496619846+497112469+497206484
2413+497327597+497719132+498235764+498443155+498412138+498570711+498981672
2399+499415615+500013277+501649652+505426249+512336217+523301438+538815831
2386+558504997+581190281+605326003+629617541+653303945+676071786+698692844
2372+722500926+746575808+767568960+784461129+798665160+809029763+814140433
2359+813582388+804730656+787765626+767605556+748509703+737073245+740325206
2345+754631189+761856078+755471908+745363745+737042161+733855224+737093303
2332+742446797+743509420+740511176+738880879+739714956+738977251+733097859
2318+721660472+709227677+704378296+708789384+712487873+706605492+692072758
2305+675135425+662341249+654599030+647952244+640374675+631077742+618989723
2291+605891353+594427266+584691575+576006552+568671674+562867202+558023134
2278+553694072+549965130+546715096+543733191+541170451+538951689+536894191
2264+534959832+533174249+531761969+530601380+529443281+528401581+527444829
2251+526577442+526002461+525636332+525318322+525140488+525076593+524822113
2237+524289141+523819300+523724488+523865527+523837963+523689884+523935498
2224+524392786+524440176+524332811+524487698+524795745+525238321+525794108
2210+526314360+526803994+527233686+527513771+527811456+528264859+528719325
2197+529095749+529474963+529818510+530018661+530382466+531130898+531673898
2183+531723313+531817062+532292582+532898780+533261755+533307450+533163290
2170+533060774+533136922+533241630+533191949+532908112+532482206+532210855
2156+532400080+532914056+533131442+532866667+532664690+532676246+532614245
2143+532921130+533893191+534828656+535220689+535229721+535368303+535845749
2129+536316553+536640408+537029983+537556645+537983580+538302818+538691895
2116+539002433+539201023+539435744+539682952+539969247+540363106+540754973
2102+540963824+540740660+540199552+540031282+540461571+541126382+541769176
2089+542237590+542409712+542463610+542743961+543161531+543538221+543887746
2075+544322020+545018580+545684255+546073232+546478249+547073853+547624293
2062+547995669+548440537+549062044+549849065+550813687+551910581+553019597
2048+553761022+554027723+554232224+554775657+555596053+556391077+556976751
2035+557204930+557390170+557962760+558756323+559293844+559234267+558986661
2021+559088812+559204379+559078384+559040991+559184255+559349636+559400512
2008+559324330+559283085+559224371+558997022+558730553+558695086+558981148
1994+559368033+559731805+560149176+560356732+560022782+559558653+559654760
1981+560361382+561293227+561963717+562095092+561982713+561977466+562051256
1967+562184889+562547997+562992865+563268300+563722268+564586367+565325201
1954+565637764+565840207+566000673+565980282+566011764+566315361+566864240
1940+567631966+568331016+568779869+569346548+570019629+570275870+570365136
1927+570878813+571596792+572107082+572387167+572386835+572361197+572776177
1913+573225097+573314828+573537859+574208416+574941472+575617475+576240277
1900+576490806+576349933+576249841+576499241+576774212+576768566+577131674
1886+578095532+578893280+579327454+579748545+580070473+580101955+580317615
1873+580675741+580010697+578574473+578837688+580714662+582300326+583010335
1859+583048061+583073632+583447698+583690788+583629617+583573959+583412430
1846+582733837+582183298+582887196+583963235+584616988+585121034+585532959
1832+585116252+583847933+583621116+584801165+585985930+586827513+587554592
1819+588230263+588442269+587973158+587458352+587550407+588161055+588566205
1805+588655272+588735970+588685027+588824638+589350337+589092635+587604073
1792+587138815+589321976+591701203+592824133+592896728+592426621+592157761
1778+592390091+592224910+590890571+589429108+590291812+592582239+594424941
1765+595286782+595187686+595210932+595776748+596008348+596066264+595799330
1751+594430520+593158947+593910866+595547805+596082404+595008092+594230403
1738+594887809+594702901+593036671+593679000+596297997+598741251+600549150
1724+601469638+601306117+599606014+595840908+593351559+595933428+599480417
1711+601530543+601574180+599443888+597068114+596114484+594658069+592591670
1697+593015417+596382148+600095382+601368417+600328111+598175037+594703831
1684+592269609+595283395+598728565+599839473+598703127+597101788+596325826
1670+595607515+596324165+598154182+598373760+597279589+597494651+598215619
1657+596946768+592402711+587718113+589577818+591113537+591353438+594491359
1643+598088694+599205712+598389169+596563337+596331870+600385828+604521946
1630+606814232+608046685+608951963+610007678+612580448+615491618+616880751
1616+618890362+623431430+627355077+629123789+629753233+630741733+632264500
1603+634201316+636348479+638293067+639818756+640846642+641797549+643283918
1589+645302629+647329973+649126847+650949890+652633454+653047239+651478046
1576+650622249+652845660+654538855+654972167+656546075+659037084+661141540
1562+662067341+659663141+656751639+661706957+667350499+671495716+674480211
1549+676862493+678651264+678673381+676001250+673296176+679610407+688693009
1535+693311521+696262342+700751472+704834455+707349640+709399434+710569388
1522+712047123+716793290+722785261+729163387+735742161+741375142+744891911
1508+744784713+747270740+757092110+764476535+768135439+769973293+773730828
1495+780908826+787500751+790977736+792742198+797477406+804431177+810805915
1481+816249671+820597463+823295630+823937228+824080625+829467593+838520041
1468+844668294+847793728+852592631+858536051+859883341+856317821+860085119
1454+872604323+882214683+886783581+887708120+889816694+895684928+902671310
1441+908118254+910935708+911621075+912539239+915070098+917506512+918873329
1427+919515923+919014998+919282862+920697368+919125252+916816229+917048626
1414+914651797+908728038+903936640+900779126+895882654+891960204+892179184
1400+891568536+887189063+881800500+877517665+876285544+876066165+872399092
1387+866997444+866297996+869821474+872896297+873984756+873915549+872104660
1373+869806529+869741241+871111246+872563543+872622123+869799755+866692187
1360+867217753+869488121+870577045+871046953+872320918+873293012+873155726
1346+873389717+873828939+873029332+872348680+873441789+873989472+872683095
1333+872370731+874619115+877225891+878175403+878049076+878978796+882163475
1319+885833803+887629813+887846934+888088496+889491777+892807167+898076376
1306+903643537+906908715+907836907+909219266+912228070+916533155+922390297
1292+928222865+931535399+931718115+930368633+930823729+933926714+936737127
1279+937702115+938719308+940619927+941826543+943008519+945677794+947913758
1265+947661701+946416429+946494271+947516378+949053956+950961350+951162862
1252+950152444+950734134+952654213+954015916+954418011+954294540+954423457
1238+955803292+957196411+956742178+956366916+958099231+960166626+960185356
1225+958021522+955606230+955614133+959020582+963603561+966016395+964975757
1211+961987144+960062084+960596683+961485090+960287307+957570942+954988475
1198+953820846+955160631+957844319+959098491+958408009+957350102+957097581
1184+957607339+957577052+956476306+955588895+955153059+955261852+957383909
1171+960135874+959938413+957949525+958500927+960888723+961990399+963667588
1157+967251771+969066445+967663032+966440408+967520432+969692635+972172153
1144+974866202+976304485+976214754+976830051+978979671+981228454+982907701
1130+983553285+982669725+981925843+983022870+985370084+986988957+986576169
1117+985664648+986521308+988813395+991542247+994403935+995215032+992999525
1103+990749747+990606616+992702504+995007675+995040751+995059880+998343654
1090+1003840279+1007109841+1007034589+1007523891+1009554224+1012997137
1078+1018710683+1023340154+1024318957+1024934918+1027433166+1029429294
1067+1031880452+1036425107+1036463497+1030549567+1028505153+1034094365
1055+1040630101+1044038675+1047688015+1051063646+1050143556+1047809161
1043+1048049528+1049190789+1049098734+1048817918+1049867390+1050653581
1032+1051412473+1056155453+1061372391+1059799678+1055093428+1053528220
1020+1054285984+1054903007+1053993080+1051039137+1047869203+1047029081
1009+1050529246+1055514718+1054852862+1050609745+1049277133+1049315124
997+1048734365+1049088838+1050305151+1050791199+1050658695+1051349110
986+1052093590+1051048569+1048619793+1047228402+1049018235+1053191813
974+1056321896+1056630674+1055280328+1054284522+1055751232+1058670173
962+1060467047+1061383881+1061344695+1061107184+1061773955+1061615083
951+1060901686+1060390400+1060761677+1063516034+1065455972+1064689641
939+1064282963+1064059333+1063570895+1065712545+1068802844+1068507217
928+1066563161+1065232807+1064196951+1064471590+1065297233+1065174625
916+1066022983+1068384942+1069315193+1068423398+1067551926+1066438893
905+1066439424+1070154783+1073741823+1072409676+1070694696+1072017345
893+1072267209+1071026985+1070761977+1069381744+1066805321+1065905489
881+1065312243+1065252932+1068202425+1070145551+1067378177+1062094289
870+1056358957+1050622497+1046474823+1044876605+1042846072+1039415182
858+1036269224+1033158601+1030018157+1026571923+1024146070+1023405244
847+1020366352+1014176588+1008382610+1005723895+1006985971+1008859823
835+1007326895+1002174714+995294136+990001614+987322044+985989034+987905991
822+991583957+991067690+986119479+980697308+978197267+979768850+981627294
808+979034599+973530137+968911691+965018531+961186608+957651441+954178507
795+949596658+943477497+940039831+943440635+949359147+950379129+947230249
781+943465608+939312886+936591539+937251070+939267389+939504967+937403300
768+932781600+925283401+918548079+916180542+916480419+916330182+915301034
754+913949360+911563557+908520681+906581075+903624608+897271788+893108040
741+896018612+900271493+899102336+896777239+899096624+902221792+901103179
727+897056793+893580671+893967091+897009968+897967118+897358862+897293772
714+895617912+892528277+891052136+890886157+889800820+886870854+884012088
700+884517397+887793866+890074595+889534616+887322962+887733226+893229386
687+897678466+897028233+895662014+894602778+890852417+883596112+877620679
673+878740023+883446273+881336769+871807772+871588526+879144907+883109600
660+881148939+876931659+871995137+867239140+863882571+862269608+858807302
646+853785300+855624018+860189262+854271281+844568069+841999683+846083463
633+853448428+853981964+840155187+825635205+828450401+841821351+847041610
619+844271446+836530622+833339434+848813245+859674987+836925610+808635439
606+801029311+804842636+801065043+794173839
##END=
