##TITLE=Sample description
##JCAMP-DX=4.24
##DATA TYPE=INFRARED SPECTRUM
##DATE=25/8/2023
##SAMPLING PROCEDURE=Instrument type and / or accessory
##ORIGIN=Default
##XUNITS=1/CM
##YUNITS=ABSORBANCE
##RESOLUTION=4
##FIRSTX=4397.6552
##LASTX=599.8556
##DELTAX=-1.9287962
##MAXY=1.8229369
##MINY=0.31055841
##XFACTOR=1
##YFACTOR=1.6977423e-009
##NPOINTS=1970
##FIRSTY=0.4915278
##XYDATA=(X++(Y..Y))
4398+289518498+289168645+289424496+289422600+289041378+288979008+289039482
4384+288614743+288042217+288170484+288836487+289094778+288651660+288090368
4371+288019238+288319413+288687101+288993578+289054052+289009166+289050138
4357+288902437+288138712+287027274+286674823+287453172+288475259+288806697
4344+288190654+287332329+286745865+286114672+285734029+286086779+286744583
4330+286992587+286797281+286851909+287135408+286961201+286574747+286632764
4317+286953301+287027345+286842202+286551523+286046843+285581414+285813514
4303+286240869+285734398+284898858+285058460+285743649+285581045+284895084
4290+285032076+285683948+285371853+284288643+283977374+284230118+284113120
4276+284239421+284797325+284850760+284236613+283787579+283988222+284236209
4263+284003652+283794530+283801517+283512489+283215790+283462109+283781330
4249+283606912+283379043+283680306+284225694+284656647+284671831+284109784
4236+283696386+283637211+283239330+282569992+282285932+282587055+283271401
4222+283872804+283797954+283258218+282873485+282579243+282273609+282051409
4209+281891263+281853838+281826032+281661340+281566916+281648999+281587999
4195+281195595+280693337+280354754+280436731+280732395+280545180+279847739
4182+279315042+279483404+280233894+280794466+280713314+280356614+280043923
4168+279566329+279033457+278893937+279147120+279554340+279859781+279900454
4155+279690103+279448067+279494902+279569050+279275739+278909034+278744710
4141+278532516+278337069+278533850+278807957+278730175+278382481+278010001
4128+277897146+278037877+278258988+278382569+278023781+277284227+276987756
4114+277230828+277133718+276608781+276434416+276829120+277262846+277443478
4101+277573589+277468036+277112057+277036258+276956159+276379138+275799590
4087+275591258+275437976+275356156+275584833+275709520+275445875+275177771
4074+275056999+275052699+275267210+275558116+275590363+275279375+274980832
4060+274884179+274837942+275032020+275346045+275029176+274228885+273680021
4047+273330168+273155751+273440601+273895568+274016463+273652988+273164335
4033+272992076+273171988+273525984+273675650+273522631+273294533+272878133
4020+272528736+272813744+273365452+273284317+272458204+271751687+271699744
4006+271822167+271718580+271612746+271730815+271959668+271998603+271779756
3993+271568440+271533911+271583080+271491535+271256012+271138066+270996650
3979+270570700+270227061+270270789+270450367+270526394+270489811+270505311
3966+270612971+270420209+269782996+269306384+269546788+270060456+269872328
3952+268950177+268064415+267763327+267951788+268054128+268049915+268502828
3939+269217175+269206484+267990600+266507332+266321785+267145564+267242919
3925+266521990+266236999+266179404+265718908+265773483+267125991+268692500
3912+269313511+268723905+266747437+263659110+261183088+260705091+261906317
3898+264245628+265923536+265500780+264021620+263790310+263835722+262574584
3885+261298612+261055786+261986223+264186084+264970120+263208936+260812469
3871+259554104+260183172+261211719+260944563+261300771+262949451+263327689
3858+261464796+257525887+254004027+256767813+261418313+263933621+264086711
3844+262400043+259897550+257417631+256286111+257666688+259815712+261464498
3831+262366199+262295456+262054842+261719331+259656251+257354822+258165575
3817+259681318+261467359+263936290+264957358+263502809+261017764+259664344
3804+258232421+256866028+258136699+260382517+262613466+264717201+265950007
3790+266253868+265605175+264414094+263939379+264080374+263834090+264205833
3777+265464443+265725543+264229601+262019751+261243422+261767780+262234052
3763+262346258+261428670+259996221+259501336+258628652+255583246+251923832
3750+252201731+253933266+254096116+255095382+257560872+258522362+256639440
3736+253280166+253178704+256942020+260365349+261588974+261321292+261367705
3723+262408469+263884558+265273016+265875595+264880542+262405415+262398516
3709+268151571+276159344+284014097+292646936+304374174+317240656+328352606
3696+337623694+343600054+344626196+342033141+339190502+336820138+333410853
3682+328417697+322502530+316015310+308527788+303707505+301948234+298859451
3669+296684219+296767390+296000697+293749280+290687987+287271013+284114419
3655+282136898+279840068+274429335+268038610+268924952+273307594+275446876
3642+275035811+273029396+270158952+266911884+263514763+259573835+253971394
3628+249837318+250404578+250775759+248164975+242885231+238436322+237168127
3615+236399064+234821583+233073284+231651157+231326318+231214973+229529868
3601+226865859+224804008+223078722+221433921+220601594+219796721+217149389
3588+213596002+212869175+213952736+214361202+213778986+212475840+210939611
3574+209832528+208766977+206335700+202094017+199047487+199573127+200860965
3561+201361678+201461807+201011702+199604373+197891533+196809885+195922367
3547+194861135+194439802+194857835+195181532+194882323+194307970+193824864
3534+193130266+191768280+190196153+189402936+189112820+188604980+188410428
3520+188942317+189447699+189418173+188975476+188112114+187132209+186653070
3507+186420742+185658087+184935121+185288134+185932773+186124587+186200965
3493+186099221+185642376+185272283+185167696+184956695+184599013+184461249
3480+184661049+184899136+184825338+184388733+184076797+184170658+184181191
3466+183906417+183653831+183565727+183530443+183268167+182974470+183168548
3453+183691028+183865112+183400754+182924353+183165704+183820226+184385942
3439+184775783+184856620+184664999+184465514+184481085+184908316+185550234
3426+186001006+186109894+186051860+186330654+186990003+187802021+188846068
3412+189640917+189865311+190343274+191567408+192996258+194053752+194675062
3399+195148671+195909518+197088819+198379361+199822992+201499285+202884934
3385+204082036+205862845+208178985+210446903+212540685+214831845+217569072
3372+220599575+223648492+226536807+229429230+232567463+236052353+239820339
3358+243533205+247220336+251192616+255522666+260251036+265124298+269769075
3345+274340371+279046079+283703828+288033106+291753345+294840372+297802449
3331+301196779+304772933+307669604+309859090+311986049+313901447+315256938
3318+316519429+317949876+319199201+320233137+321129730+321781022+322171425
3304+322412477+322698328+322753729+322112127+320968127+319319657+316585537
3291+312813409+308960567+305768882+302882849+299738174+296547051+293628754
3277+291087132+288824673+286560476+284594857+283209242+281823627+280256451
3264+278924797+277465912+275500065+273752414+272834722+272422218+271981979
3250+271317170+270345165+269263904+268631377+268360377+267947452+267194662
3237+265929188+264423100+263185343+262171559+261217670+260512891+260134705
3223+259777690+259452395+259211729+258500542+257442715+256944723+256974320
3210+256867714+256407235+255595024+254697694+254150165+253925332+253859434
3196+253896578+253729902+253283309+252845545+252398758+251796266+251234378
3183+250940575+250696204+250329798+250276486+250718498+251215560+251442025
3169+251315144+250974068+250716953+250580189+250476322+250424625+250323689
3156+250231372+250427750+250798703+251067561+251157666+251033734+250848293
3142+250799159+250812939+250758434+250787240+251197549+251847156+252211737
3129+252114663+251805360+251534219+251514664+251885757+252342690+252472257
3115+252401865+252413732+252499343+252657751+252817862+252685469+252330683
3102+252251690+252617587+253026510+253176036+253258206+253225380+252827253
3088+252414539+252307793+252333562+252412152+252525376+252442450+252043937
3075+251638789+251625500+251934961+252041006+251680374+251263816+251128439
3061+250954636+250481096+250075597+250004503+249882730+249401327+248887799
3047+248858133+249298196+249613398+249413246+248994230+248830152+248957436
3034+248963019+248609023+248190094+248030774+248254500+248620749+248656752
3020+248473207+248421721+248459409+248380311+248138556+248059615+248307022
3007+248572352+248705957+248927103+249348226+249762081+250196141+250951125
2993+251885002+252634632+253154409+253520342+253907848+254507355+255175763
2980+255707265+256021887+256087768+256049781+255976949+255839764+255767019
2966+255745884+255633152+255496634+255321830+254950702+254591439+254559386
2953+254708086+254764821+254813727+255050075+255403948+255660238+255702245
2939+255574732+255329958+255059572+255127805+255528986+255616879+255203217
2926+254671135+254179164+253645011+253009289+252437201+252151456+251990625
2912+251792545+251787560+252044394+252333246+252556639+252698582+252780226
2899+252922028+253064444+253119617+253233385+253401149+253429640+253367779
2885+253440418+253590874+253540757+253354666+253317065+253441576+253621629
2872+253718176+253547427+253278183+253185866+253158762+253155954+253277042
2858+253428797+253555590+253463221+252909494+252144329+251599187+251525038
2845+251846857+252235680+252580899+252866539+253054719+253325070+253755145
2831+254181358+254532791+254835178+255096278+255329308+255581174+255903380
2818+256252144+256516386+256653782+256690347+256753419+257020715+257334687
2804+257401762+257440872+257777683+258231860+258532579+258656511+258641291
2791+258605481+258700975+258868915+259017300+259244731+259597954+259907854
2777+260101546+260279158+260334805+260257163+260373792+260672967+260866834
2764+260937138+260936559+260867062+260925061+261302930+261773731+262058458
2750+262185936+262265474+262413613+262569581+262586538+262586626+262670798
2737+262837403+263194541+263615489+263772527+263755939+263872603+264181257
2723+264615247+264972648+265152226+265421225+265857550+266155267+266206736
2710+266224448+266408994+266828853+267338606+267669869+267708014+267577921
2696+267590296+267831472+267973397+267848447+267691233+267770015+268107405
2683+268476251+268667521+268780341+268983512+269154243+269189422+269234044
2669+269343775+269402598+269361452+269330082+269443008+269692030+269959871
2656+270155353+270236260+270208928+270201871+270342532+270535996+270684047
2642+270848915+270991876+271065796+271164380+271311360+271480704+271685578
2629+271890785+272030832+272095115+272115724+272159205+272288315+272533107
2615+272968993+273486189+273782748+273846030+273851893+273889003+274048324
2602+274357732+274709288+274991628+275163798+275251762+275384506+275628350
2588+275863820+275961035+275873721+275705026+275649871+275796641+276065254
2575+276249958+276270935+276242269+276218132+276199455+276219115+276222363
2561+276142948+276121550+276303831+276577552+276737698+276687845+276525627
2548+276453971+276515288+276572830+276525065+276443930+276525820+276832051
2534+277148095+277274379+277264514+277274766+277423396+277694010+277903658
2521+277984442+278074196+278162336+278166268+278292692+278650462+278997980
2507+279236927+279445926+279597734+279700127+279850442+280031214+280150863
2494+280271951+280497293+280758796+280936198+280954946+280870598+280930756
2480+281180779+281403014+281549187+281629883+281652809+281752533+281882153
2467+281874201+281786904+281757800+281813534+281938168+282121994+282333433
2453+282452994+282401017+282368366+282539676+282769178+282821156+282733368
2440+282743585+282865322+282975966+283141132+283342425+283359768+283235029
2426+283304017+283635016+283988661+284213266+284383295+284628315+284889432
2413+285078103+285229121+285388723+285535668+285594808+285661917+285915346
2399+286303221+286592653+286617808+286536058+286668469+287028626+287349462
2386+287473605+287258023+286438159+285069028+283466708+281660357+279528167
2372+277184994+274987204+273181327+271561436+270010655+269008193+269001224
2359+269836500+271206351+273300695+276368360+279510964+280992862+280108891
2345+277995168+276575849+276274779+276636446+277505233+278476290+279061491
2332+279469905+280352085+281614593+282667874+283463355+284433833+285755919
2318+287176045+288477944+289603091+290520205+291307804+292224426+293294682
2305+294162679+294729887+295222700+295720499+296199761+296670070+297104744
2291+297527974+297987399+298392442+298739522+299107140+299350018+299359462
2278+299322493+299463137+299781778+300124926+300410355+300649723+300834813
2264+300989710+301236345+301556251+301764513+301871101+302122897+302615992
2251+303107612+303399080+303510689+303534562+303662286+303897791+304046088
2237+304147656+304312911+304521734+304765841+305063383+305398947+305672370
2224+305839344+305965418+306095458+306300876+306516897+306573597+306608038
2210+306838909+307175105+307369113+307368270+307396778+307571476+307809018
2197+308148515+308581960+308850468+308884698+308928583+309146359+309475463
2183+309682391+309700296+309775041+309993449+310224988+310447328+310708322
2170+311035636+311360738+311540386+311654769+311855552+312030356+312118548
2156+312282503+312599846+312949488+313216240+313461190+313719200+313884665
2143+313958954+314087941+314355887+314699596+315019151+315305493+315549109
2129+315698108+315796586+315948921+316164415+316305901+316331881+316471190
2116+316793272+317102224+317382107+317695518+317969221+318198688+318439495
2102+318673912+318890600+319155632+319525883+319926748+320281692+320682732
2089+321256014+321975240+322695941+323390977+324118349+324763426+325239458
2075+325735993+326396027+327040052+327463597+327769319+328258586+329051996
2062+329958841+330787885+331504373+332170867+332802252+333349799+333860132
2048+334302530+334667023+335083196+335493189+335890368+336388799+336854649
2035+337202185+337568223+337995279+338392774+338637899+338649590+338559327
2021+338507718+338381364+338254167+338448210+338812352+338975254+338972340
2008+338991790+339136541+339402661+339680191+339965691+340323478+340530827
1994+340342647+340244801+340713881+341322165+341924130+342709254+343500909
1981+344250679+345064943+345850454+346571365+347364319+347997951+348203158
1967+348674064+350096964+351802625+353094816+354112848+355092121+356188514
1954+357453146+358710756+359746799+360390332+360619167+360717084+361404010
1940+362771790+363819137+364095368+364009494+364143783+364580318+364932137
1927+364803957+364044918+363303258+363018320+362812270+363142778+364065456
1913+364412325+363904099+363385411+363561338+364151717+364551810+364645619
1900+364650359+364571260+364383361+364275157+364077779+364028242+364918374
1886+366127851+366853994+367338241+367728187+368117959+368655921+369052293
1873+368574611+366863508+365524026+366876603+369252058+370416632+370728287
1859+371069328+371479988+371727747+371905183+372041263+371664587+370440365
1846+368949215+368970596+370764940+372104177+372600255+373017340+372972788
1832+371563089+369763971+369740202+370736502+371735927+373056626+374047590
1819+374289485+374283341+374135185+373424244+372826457+373374250+374303739
1805+374534681+373892517+372966434+372885053+373494601+373336298+372172532
1792+372394591+375046664+377164249+377728191+377525828+377085466+377103055
1778+377721837+377413095+375445036+373855899+375417968+378541859+381033592
1765+381847750+381323515+381283105+381779886+382086521+382397158+381583912
1751+379070131+377385746+378556428+380439210+381325235+381495791+382039476
1738+382403478+380889824+379210669+381078319+384147266+386673194+388031565
1724+388127481+387460952+385397328+381637277+380044699+383456934+387336353
1711+389153974+388646590+386703142+385196439+384256768+382360189+380509953
1697+381102474+384696007+388478001+389352194+388022296+385528878+381606838
1684+379713875+383386366+386707530+387738657+387206628+386430843+385296532
1670+384051526+385784466+388501769+388944904+388673062+389761029+390324129
1657+388329388+383696372+381549401+384661636+384655878+384118653+388716736
1643+393625492+395428824+394649914+392299316+393407049+400230429+405366651
1630+408015669+410244161+412341172+414525568+418317849+421555315+422652024
1616+425289035+430515660+434033324+435484837+436583231+438182971+439727836
1603+441041514+442362565+443287455+443439368+443536863+444442373+445856566
1589+447310712+448638433+449730017+450778839+451653945+451342992+449677916
1576+450168588+453555018+455143874+455719437+458273487+461239778+462826808
1562+462309278+458650584+457649966+464937723+471254492+475759714+479339239
1549+482762498+484461102+482976061+479536617+479078526+489710582+500274810
1535+505292963+510217412+517018112+521958465+525120203+528673678+532069130
1522+536898858+544893939+552835444+561668698+570861705+577406783+579977720
1508+580123279+589071126+604675800+614686547+621686907+628155941+636493081
1495+646309048+653433270+658165010+665089186+675944285+686443738+694683348
1481+701985498+709010154+714662290+718601990+723580892+735288628+750085182
1468+761759565+771089775+780438522+788657558+793936284+797072990+804292004
1454+816109207+825766907+831815695+836217489+842317746+849148745+854671543
1441+859890585+864568329+868172394+872934679+878035546+881233480+884421233
1427+888348154+889777969+888884887+886808941+880872147+873589657+870541775
1414+868723944+866121374+863553421+860343902+855210664+849996959+846301752
1400+841266116+834790411+830676716+829248445+829424266+829592434+827425136
1387+823850913+823051921+825347504+827982514+828810646+827878874+827557003
1373+829880813+832679988+832681182+830005868+826783429+824382661+824204241
1360+826377438+828535748+829286361+829318450+828813173+827670402+827459402
1346+828733688+830495979+831258458+830096869+829926594+833202890+837095053
1333+838792463+838487163+838089387+838323910+838692756+839518149+841416379
1319+844300094+847200803+849272466+851282410+854479010+858806163+863157471
1306+866980542+870769908+874971866+879766801+884846253+889786325+894572975
1292+897871318+898904482+900011513+903206849+907732926+911890226+914955521
1279+916720199+917534498+918733302+920215148+920773298+920153358+918666105
1265+917723240+918616953+920302919+921632184+922770743+923488705+923994614
1252+925371697+927487738+928763499+928431235+928356033+930136299+932484124
1238+933775192+933491869+932739009+933364566+934733154+935304364+935109022
1225+934683230+934977366+935906258+935809219+934816009+933691845+931382148
1211+927639335+923919412+920910992+917889933+914856586+912698205+911226541
1198+909338704+906826011+905339390+905542386+905681203+904534149+901963387
1184+898722902+896420367+895489439+895105776+894348072+892915166+891593484
1171+891123596+891528744+892686963+893944679+894691359+895139410+895157666
1157+894659692+894666503+895885389+897808966+899714427+901379608+903317650
1144+905980606+907955511+908140180+908665258+910545653+912066609+913743727
1130+916914839+920561245+924162291+928210405+931525179+933230664+934769315
1117+935651092+934912767+935461578+938244112+940885933+942440944+942194836
1103+941077904+942588328+946037146+947941062+949376425+953243521+959520373
1090+965007992+968122228+971483486+975615227+979762837+983979119+986193673
1076+985943282+985965119+988945523+995869629+1004423035+1010645890+1013966703
1063+1015735664+1016363328+1018266823+1021410620+1021965330+1022020941
1051+1026016182+1030662750+1031052802+1028650208+1027661211+1029926321
1040+1032062653+1031302351+1032159622+1037092392+1041189727+1041393987
1028+1040687610+1040885691+1040088243+1039254775+1041879252+1047267445
1016+1051624722+1052735123+1050380628+1047456397+1047833600+1050149616
1005+1050618451+1049314252+1048120995+1048186929+1049915023+1050674413
993+1047334502+1042506916+1040612408+1041691774+1043853806+1046594983
982+1049055575+1049337213+1047359990+1044777152+1043515223+1044950446
970+1048224916+1051162347+1052301397+1051499315+1050332530+1050903319
959+1054178631+1059242706+1062437971+1061815433+1060400012+1059767643
947+1059763009+1061138267+1062876683+1063618028+1062751207+1061458383
935+1062752892+1066338420+1069395079+1070468687+1069851626+1068675151
924+1067116909+1066742024+1069863071+1073137120+1072565839+1070944333
912+1071008160+1071255391+1071332840+1072719332+1073741823+1071391400
901+1067297786+1064406347+1063873054+1066819753+1070988920+1071696771
889+1071184824+1072059439+1068420265+1060599848+1057741058+1060885347
878+1060827208+1051902006+1043576522+1043995292+1045853920+1043945579
866+1041155251+1035738691+1027040639+1019714333+1015868653+1014080453
854+1012664330+1011218083+1010750934+1010464732+1007119203+998812958+988527174
841+982335354+979344137+973766149+966555842+961025811+958358011+957863758
827+954446398+946314290+940339509+941399425+945918199+948801353+948725800
814+946269702+943418567+940502762+936089944+932722227+932909424+932896855
800+929874251+926156997+921930885+915585853+908700437+904521369+903850522
787+904833551+905910530+905216301+902127764+899109303+896417629+892889327
773+889924862+887768658+884619384+880594933+877484839+875913678+874937530
760+873471974+871104559+868359100+865815512+863019637+860886183+860871718
746+861432536+860965668+859118064+855709411+853468175+854836130+856796782
733+857098923+858460137+859968033+858969206+858478815+860414539+864230377
719+869285745+871285367+867878117+863557143+861125129+857664094+852472226
706+848361549+846370635+846326398+846505942+845014195+843863910+844763593
692+844356829+840389324+836610139+836287284+837671038+836515347+832765372
679+830644556+829302090+827406108+828281425+830371345+829824570+830290175
665+833881110+834836895+832839731+830939746+828528937+824220040+819372302
652+817479129+821355353+826052547+825165995+822315562+820609585+816803437
638+812582801+813742846+819577334+821063393+815779261+813076914+815210298
625+815349326+813219453+813586895+815295119+810149664+795919054+784127409
611+781223963+781504828+784404553+791418536+794927739+795737334+805245683
##END=
