##TITLE=Sample description
##JCAMP-DX=4.24
##DATA TYPE=INFRARED SPECTRUM
##DATE=25/8/2023
##SAMPLING PROCEDURE=Instrument type and / or accessory
##ORIGIN=Default
##XUNITS=1/CM
##YUNITS=ABSORBANCE
##RESOLUTION=4
##FIRSTX=4397.6552
##LASTX=599.8556
##DELTAX=-1.9287962
##MAXY=1.8097532
##MINY=0.10598418
##XFACTOR=1
##YFACTOR=1.685464e-009
##NPOINTS=1970
##FIRSTY=0.1077773
##XYDATA=(X++(Y..Y))
4398+63945179+64456653+65047279+65282122+65151837+65072706+65203937+65308044
4382+65276265+65299437+65396118+65364091+65250467+65186825+65156310+65275770
4367+65697427+66325473+66849483+67048356+67072386+67150960+67205156+66996243
4351+66489668+66012993+65927704+66037739+65838971+65419714+65252284+65355025
4336+65416828+65379037+65377057+65294827+65085812+65123519+65430606+65514980
4321+65344796+65230248+65115315+65012883+65148910+65360153+65304401+65193257
4305+65453553+65769654+65773442+65922762+66320385+66300002+65807838+65563208
4290+65874667+66366800+66618379+66572119+66556851+66892269+67379447+67524134
4274+67319571+67115026+66972921+66943542+67138941+67376556+67454445+67345338
4259+67154585+67130772+67323439+67566212+67703615+67585897+67458397+67569607
4243+67589730+67505935+67613171+67811895+67960224+68003815+67886057+67685102
4228+67669064+67987857+68422011+68792660+68988824+68919135+68859481+69033789
4212+69262771+69403453+69502614+69642986+69891462+70119652+70130377+70128462
4197+70288321+70296189+70054114+69880119+70051210+70542207+70863467+70686740
4182+70404253+70374441+70363504+70281120+70366126+70515167+70603303+70687611
4166+70652534+70528031+70500084+70608979+70815951+71076428+71274179+71215391
4151+70981454+70899843+70957402+70860898+70505031+70112496+70137635+70624919
4135+71028899+71107898+71041727+70921039+70809240+70828465+71013825+71259132
4120+71381478+71276040+71122998+71093894+71145932+71328237+71518194+71496645
4104+71445650+71568389+71799837+71999688+72107287+72150590+72161115+72268741
4089+72486760+72553284+72501246+72666046+73009903+73228262+73254506+73220181
4074+73319580+73643748+73947883+73980360+73764614+73442010+73243835+73383625
4058+73746375+73891062+73715378+73564679+73532317+73508168+73440945+73427016
4043+73632158+73835890+73816395+73711740+73593695+73463697+73423608+73472052
4027+73471950+73425160+73427670+73451055+73471500+73533581+73632812+73688250
4012+73574630+73348159+73313657+73550498+73777252+73793860+73654274+73502814
3996+73436047+73450445+73415907+73356492+73444866+73511823+73426857+73494031
3981+73776823+73821324+73459308+73276569+73612398+73960119+74022647+74028442
3966+73982407+73679559+73346055+73488191+74097923+74564104+74335423+73462230
3950+72454106+72113507+72450830+72526951+72555401+73241528+73974733+73913752
3935+72766104+71307859+71246962+72337431+72618322+72065151+72053675+72136608
3919+71560684+71571572+72990820+74516575+75300814+75182928+73356651+69676251
3904+66482290+66056018+67644102+70167663+72055015+71935741+70825472+71247607
3888+72094631+71382428+70097174+69246234+69459452+71522995+72671320+71311629
3873+68922309+67309718+67846308+69018371+68656739+68888979+70995719+72140467
3858+70759837+66766899+62881308+66141868+71682588+74590733+74527184+72275146
3842+69181301+66309878+65533816+67820988+70352201+71985511+73338668+74079498
3827+74059783+73236387+70677183+68194714+69026845+70961248+73680359+76777471
3811+77955514+76617714+74357852+73183761+71820194+70588295+72025945+74244900
3796+76612357+79245414+80841786+81217891+80793347+80034180+79853232+80031395
3780+79787808+80261747+81730111+82257626+81055385+79277100+78956199+79920264
3765+80995646+81442885+80342562+78892889+78968912+78776320+76186265+72580456
3750+72826408+75062134+76507883+78845978+81366525+81820015+79441772+75907235
3734+76752398+82216064+86785076+88320172+87839231+87442536+88339189+90296238
3719+92470475+93557907+92528198+89807500+89320087+93384252+97628986+99697891
3703+100268877+101490657+103944322+106084424+107191740+106790580+105046192
3690+105179054+110531077+116840675+120965074+123055295+123489980+122732529
3676+123024255+127833008+132735112+136523678+143490931+151400606+157483592
3663+162333526+166577429+170021381+173548846+178371373+181916184+182590910
3649+184984783+195048105+206340571+214860185+221617014+227764221+233461140
3636+238534910+243013063+246259137+249095837+256357115+266463633+274171204
3622+278809166+281901601+286860633+293515313+299600987+305454922+310952140
3609+315956950+322220859+329204105+334908025+339346765+343302222+346745644
3595+350469785+355803869+360780247+363063732+364179429+368084916+373746930
3582+378256716+381588954+384878932+388150167+390686787+392645702+393730385
3568+392805052+392550750+396412704+401383742+404507898+406497368+408531218
3555+409736457+410598417+412575438+414452910+414899556+415577978+417637574
3541+419703818+421119507+422395792+423928925+424825683+424419953+423568071
3528+423532990+424419104+425220486+425948630+427061639+428344572+429411007
3514+430059582+430311338+430080446+429671427+429409734+428922702+428524822
3501+429174493+430096219+430728102+431939175+432904681+432361703+430732062
3487+429023171+428238021+428327350+428615035+429225629+429834702+429632456
3474+429068083+428335943+426939315+425387121+424480213+424106275+423455826
3460+422424755+421918555+422605040+423592755+423568212+422577739+421016138
3447+419975307+420556690+421975527+422892655+422752543+421752345+420303697
3433+419385896+419653248+420266034+419977676+418647603+417250162+416419675
3420+416346507+416856066+417060753+416490049+416238011+417183430+418160607
3406+418443271+418448151+418471208+418785134+418767098+418002813+417475112
3393+417707241+418056495+418671898+420473726+422404527+422865708+423255065
3379+425209382+427461605+428774916+429759766+430654757+430880096+430818527
3366+431995722+434559607+436889065+438440269+439900729+441420813+443083767
3352+445235945+447695825+449968807+451913753+453937560+455986901+457805703
3339+460108320+462835870+465042297+466640216+467642041+468107148+468930703
3325+470484878+471772903+472527216+473591211+474591975+475144819+476366007
3312+478155669+479113608+479105085+479118099+479920012+481205385+482254421
3298+482676312+482369495+481891657+481645312+481095120+479919693+478808629
3285+477901792+476692593+475652822+475202816+475196168+475528836+475984854
3271+476705359+477383958+477136410+476475211+476184766+475602711+474593708
3258+473819273+473424646+473497744+473608397+473126422+472495565+472140759
3244+471916233+471851977+471467111+470102841+468085010+466112480+464793441
3231+463931339+462847540+462080425+461960683+461579425+460577387+459430287
3217+458424183+457454009+456482420+455637434+455228769+455532262+455814643
3204+454946635+453161004+451547241+450569994+450078718+449758250+449012531
3190+447578276+446522697+446669281+447122258+446928781+445765732+443532429
3177+441276492+440524408+441045035+440906126+439256929+437431513+436565839
3163+436153354+435282128+434074556+433254537+432750848+431896703+430699563
3150+429646071+428716671+427727295+426740428+425637180+424289566+423202585
3136+422736382+422016478+420733616+419849907+419300103+418570510+417828893
3123+417052371+416352731+415831962+414743071+412968190+412003144+412146474
3109+411557664+409926609+408857274+408449068+407605567+406366698+405391077
3096+404761210+404286167+403804545+403293324+402824186+402171049+401091848
3082+399768529+398631261+398095462+398367693+399354665+400346023+400169698
3069+398452319+395903428+393263934+390958524+389042435+387026796+384831509
3055+383094044+381812525+380357193+378672313+377263343+376319091+375498754
3042+374583995+373738514+373009274+372122169+370966264+369673005+368323870
3028+367116192+366245355+365716381+365350046+364780085+364150819+364046743
3015+364396174+364778529+365214779+365858756+366752827+367996895+369659814
3001+371701056+374082428+376901287+380586528+385652731+392077686+398936133
2988+404794594+408543454+409613779+408318858+405673883+402404204+398913960
2974+395344253+391850155+388857800+386512357+384829175+383950275+383609119
2961+383269201+382951810+382965991+383349265+384104533+385173620+386444211
2947+387716181+388592747+388745342+388030390+386479575+384308300+382092643
2934+380289754+378720196+377246829+375641553+373440148+370719565+367545050
2920+363649005+359149192+354430122+349818381+345628108+342145927+339270910
2907+336596795+334085601+331826058+329817952+328235805+327096697+326364274
2893+326135894+326335807+326816473+327379432+327866146+328475431+329244172
2880+329812046+330262760+331118284+332396195+333439785+333765876+333783841
2866+334099818+334299200+333470587+331660484+329450415+326701646+323000315
2853+318421251+313226288+307786148+302654805+297992459+293524366+289157557
2839+285049487+281483582+278602906+275977523+273218287+270591913+268252377
2826+266074329+264310376+263117586+262040612+260817073+259782430+259060741
2812+258382850+257694155+257077779+256459865+255849253+255367190+254916193
2799+254265868+253298276+251986839+250433903+248819786+247185230+245414770
2785+243593297+241986236+240462174+238834071+237358281+236110305+234860208
2772+233593790+232458077+231507034+230675770+229934170+229299918+228690403
2758+228059687+227454840+226865411+226306290+225767768+225081142+224245686
2745+223517720+222883344+222131418+221362429+220728177+220158587+219605372
2731+219085610+218599551+218107002+217629748+217287124+216971501+216511770
2718+216102768+215929432+215826028+215545485+215022789+214418030+213885856
2704+213389435+212899591+212497963+212186106+211802266+211192061+210426467
2691+209700728+209083256+208495136+207873986+207271332+206638017+205830481
2677+204919541+204104049+203440197+202762500+201939192+201131940+200505132
2664+199931688+199274467+198651354+198112089+197538062+196999416+196604419
2650+196228394+195776001+195325800+194945956+194683290+194542913+194390760
2637+194123320+193825290+193622531+193501799+193449443+193488785+193511931
2623+193465003+193459981+193594399+193806901+193939304+193998255+194121057
2610+194347740+194602059+194797074+194925887+194996968+194950465+194796667
2596+194676235+194640641+194619264+194544858+194374121+194101111+193719552
2583+193247267+192736382+192222880+191732046+191256949+190738019+190095438
2569+189369576+188706767+188196076+187787022+187283192+186647154+186039053
2556+185490381+184999813+184618395+184343052+184144076+183908110+183511080
2542+183085086+182809707+182624789+182544760+182622737+182668640+182614710
2529+182595808+182619219+182623869+182595171+182590910+182679762+182795526
2515+182895517+183042083+183236921+183447955+183632608+183772861+183903195
2502+183992913+184063959+184206246+184295116+184179688+183987503+183828400
2488+183649317+183399436+183045920+182667278+182330790+181949762+181495370
2475+181017657+180565847+180163511+179782677+179391481+178928992+178372310
2461+177820810+177342176+176909322+176493371+176015251+175436538+174890607
2448+174437029+174009284+173587233+173170045+172790590+172457957+172093302
2434+171673514+171249324+170881415+170587452+170297698+170005185+169771164
2421+169595158+169473011+169384000+169260491+169042119+168764070+168584226
2407+168536114+168470832+168321030+168145360+168020101+168026785+168142725
2394+168169478+168022665+167856260+167726722+167466814+166965955+166234894
2380+165237030+164028396+162829241+161714003+160515113+159146051+157806076
2367+156680689+155852519+155444649+155355496+155417366+155808968+156755130
2353+158215449+159612678+160022440+159199910+157882250+157104544+157084935
2340+157413801+157758759+157978033+158056453+158119896+158324069+158679636
2326+159127503+159644895+160282736+161012454+161675262+162185917+162513564
2313+162644694+162700569+162860856+163143396+163386010+163479141+163510226
2299+163637536+163884660+164097462+164157316+164130969+164150862+164255839
2286+164367041+164395386+164335302+164245531+164145115+164019131+163906426
2272+163832073+163768383+163667490+163494472+163309695+163213576+163191756
2259+163129993+163000402+162875479+162758672+162644163+162607155+162634491
2245+162621972+162572056+162513264+162410072+162317860+162305005+162314784
2232+162314642+162324792+162339556+162342916+162306296+162269023+162328912
2218+162441139+162449732+162384592+162430742+162550997+162591719+162587669
2205+162592532+162628745+162753756+162925713+163081120+163237164+163372431
2191+163398565+163286744+163137190+163044236+162979078+162908862+162835571
2178+162747267+162660395+162567848+162458043+162387828+162351173+162318709
2164+162334216+162318355+162178792+162067784+162090682+162138547+162164098
2151+162219124+162302406+162376034+162402964+162384733+162397641+162448601
2137+162479969+162520248+162593416+162663118+162728223+162822716+162925766
2124+163004080+163063438+163072315+163061882+163118022+163203267+163252936
2110+163299669+163414991+163611049+163827105+163998584+164116824+164221200
2097+164375122+164614218+164874160+165131946+165432557+165727032+166013569
2083+166375466+166760897+167067220+167318268+167554464+167782437+168037924
2070+168248287+168247898+168164085+168332930+168690212+168955495+169118133
2056+169268678+169417047+169490834+169496899+169561898+169650060+169613671
2043+169526445+169662844+169998625+170214522+170261078+170276957+170316228
2029+170451531+170705780+170939235+171069940+171082353+170916902+170841843
2016+171231712+171830937+172206891+172391950+172644979+173018228+173353831
2002+173616727+173898719+174210558+174377847+174211955+174075592+174490711
1989+175254785+176022677+176714891+177320233+177862274+178325029+178730193
1975+179180801+179739127+180138598+180103428+180154175+180889781+181823141
1962+182411261+182743770+182874971+182887649+182995951+183137159+183075078
1948+182715356+182014831+181115067+180986147+181985532+182869277+183126285
1935+183132491+183086058+183065600+183106498+182893095+182090316+181416155
1921+181419373+181579395+182197239+183240510+183646559+183382037+183333482
1908+183941229+184746625+185307267+185645841+185777837+185555964+185245097
1894+185292591+185258482+185080867+185629804+186524299+187092279+187557192
1881+187984052+188345666+188647250+188732618+188087085+186281738+184864634
1867+186208411+188708535+190147087+190617834+190855781+191235271+191716999
1854+192095004+192174873+191728067+190655974+189422816+189813676+192198620
1840+194032682+194696393+195229133+195557787+194626903+193331132+193831072
1827+195242854+196735743+198641364+200100444+200857162+201450604+201708443
1813+201231560+200940232+201889135+203186001+203576861+202826863+201974733
1800+202367856+203229941+202995725+201919619+202617101+205789424+208191608
1786+209027116+209362083+209604149+210237570+211387588+211478579+209808022
1773+208622393+210782882+214552696+217707707+219133829+219348506+220465069
1759+222220588+223917491+225705492+225922467+224326475+224062006+226942805
1746+230655046+233598882+236002268+238892262+241321075+241554849+242367441
1732+247234315+252833081+257842683+261511992+263883657+265537080+265333755
1719+263348141+264960418+272246327+279165440+283764556+286105702+287258177
1705+289372304+291978308+294046992+297402235+303288067+312955295+322322565
1692+327761928+331936535+335398063+337844965+345261101+357544553+367261891
1678+374774429+382110360+390490871+397363605+403866892+414009835+422693096
1665+426733497+429141463+432365699+434326312+432817014+427729664+424942915
1651+429324295+431275429+433049709+440375101+447632559+451673950+453089993
1638+452909106+456913224+467012386+474974506+480566712+486649027+493671845
1624+501778144+512186423+521518648+528458078+537340792+548166967+556518267
1611+562632798+567870692+572426593+575604114+577291752+577830203+576880257
1597+574125547+570089638+565619530+560818840+555480052+549822388+543887577
1584+537821459+531741973+525183342+517052076+509502866+506573105+503726449
1570+499017069+496790697+497248448+497085314+494899716+489381068+486973349
1557+495474274+503291119+508833143+513163776+517401295+520603182+521813159
1543+522727599+529026341+549737373+568739973+580906866+595574483+613007632
1530+625708732+634817492+643004244+649522242+655531919+661354592+664152869
1516+665632284+666840670+664714307+657842670+648274319+647405781+657395882
1503+663827592+666515746+667869973+671576326+678287623+682721908+684074578
1489+688712488+700295663+711931601+720653268+728075168+734148288+737517057
1476+738573307+740083984+746909224+756617544+763108312+766268151+770290021
1462+775408032+777328435+775544395+779197631+789391145+797736964+803204936
1449+806729872+810840788+816729521+823251621+828326629+829949339+830053450
1435+833220998+837275191+839280467+841756155+845660546+847344506+846572724
1422+845484222+844305825+846090289+850541406+852720391+853018438+853662133
1408+853215203+849368597+843627615+839008872+834412126+829567125+826249563
1395+825391139+827828422+830179416+828561587+824433767+823133364+824752820
1381+826096579+825456987+821911257+816872886+815139133+817695239+820084992
1368+820103594+818039472+814253479+812067422+813473138+814532642+813547261
1354+812686149+812551200+811875183+810978708+810384523+809381955+807041994
1341+803898847+802665707+804507814+807280630+808813657+809541588+811033522
1327+812815228+813504612+812913964+812604459+813860727+815871521+817705919
1314+819704194+822326713+824997822+826873596+828471975+830946955+834375206
1300+837824605+840139811+841327686+842435497+842906898+841995074+840806987
1287+839891273+838775258+836930958+834410782+832799672+832869976+832844089
1273+831179650+828372885+825860772+824625086+823633410+821201786+818264033
1260+816155069+814741996+814157572+813686524+812516544+811874052+812689332
1246+813990088+814997112+816018776+817483409+819266742+820721614+822328127
1233+825143521+828586908+831672341+834162103+835868060+836710499+837686615
1219+839312790+840639574+842477650+845875205+849311024+851287798+852126913
1205+853272210+854986017+855976419+855816362+855787152+857594107+860965493
1192+863663762+864645960+865248561+866780385+868893098+871110063+873682790
1178+876583340+879137748+880563763+881861054+885368732+891065368+896728832
1165+900953408+903744896+905198141+906336436+909290103+913089321+915614802
1151+917866919+920467017+922752164+924583733+926389981+929132243+931891903
1138+933072705+934987591+939377459+943639662+947727945+953878088+960164028
1124+963544042+964298072+964590815+964970694+964047413+963131982+965400649
1111+970273871+974656948+975488566+973122577+973582945+978084209+980722641
1097+980994378+982803314+985512121+986982766+987765511+989648075+993925202
1084+998677620+1002341041+1004701443+1003298980+1002308860+1008216123
1072+1015410704+1016030634+1013402810+1014229831+1019491844+1026008781
1061+1030664302+1032264238+1031671538+1031574499+1033446525+1035055301
1049+1034258835+1031759241+1030069976+1030438610+1030810921+1029194223
1038+1026649293+1027618053+1034976652+1043791608+1047440389+1046900452
1026+1045415238+1044048916+1044443507+1045313672+1045057213+1046625179
1015+1048984874+1047509702+1043260654+1039792371+1037614024+1036393543
1003+1036499352+1037570031+1037892621+1037052232+1038119303+1041892989
991+1044835976+1046124992+1046282856+1043405222+1039566679+1041058966
980+1046321403+1046794785+1043181510+1042022704+1043197919+1045038329
968+1048082527+1050788859+1051287066+1051049915+1052082401+1053580771
957+1053982364+1053546114+1053671939+1055833949+1059026181+1060168436
945+1060043814+1061623309+1064477886+1065880349+1064145465+1061054020
934+1060749112+1065438795+1071165489+1071243997+1067090573+1064986278
922+1065176253+1064882308+1064357578+1064730879+1066028594+1067183510
910+1066057805+1064711783+1067708735+1071902120+1072891179+1072993168
899+1072516463+1071112302+1070759158+1069881142+1067037032+1064453555
887+1064161308+1066030575+1067439474+1066134686+1065526709+1069583802
876+1073741823+1072457546+1069290281+1067702653+1063397305+1055264448
864+1049442766+1046527504+1042155602+1036401111+1030856046+1025511494
853+1021379995+1018393299+1013355352+1006088911+1001011994+999150365+996418713
839+992030968+989053183+986711029+982695383+976926393+969618506+962410840
826+957661817+955140085+953292107+952358853+952473220+951730082+949222991
812+946630319+943981136+940141178+937981998+938141913+936685768+933321808
799+929914139+926622181+924276279+924798746+925505176+920670713+912756193
785+908418735+908285908+908765514+906656621+901246646+894917137+891670374
772+892203096+890890387+884631253+878835386+875973524+873352420+871188995
758+869762061+867987922+865990850+864357602+864081975+863928991+862188024
745+860408228+858739828+855651142+853029401+853221639+854840530+855708149
731+854646523+851254626+848507697+849479357+851229447+850309560+849517762
718+849959175+848217501+845642299+844475076+842369295+839842330+839201182
704+839377223+839193826+838723415+838133191+837871215+838182983+837131542
691+832222391+826038158+822854272+823197585+825974715+828406410+828261489
677+826685813+824976603+824137912+822249973+817459220+816191281+817860601
664+815932064+813667923+812692939+811785571+811631738+809153999+802844365
650+799051583+801777294+808228383+813253175+812757372+806930032+798163665
637+794542964+804387860+813337482+806382810+799395391+800680092+800788094
623+799786516+801208783+800085837+793327717+785885589+781253478+776634099
609+771922067+770777336+773710492+777747781+779178818+777705273
##END=
