##TITLE=Sample description
##JCAMP-DX=4.24
##DATA TYPE=INFRARED SPECTRUM
##DATE=25/8/2023
##SAMPLING PROCEDURE=Instrument type and / or accessory
##ORIGIN=Default
##XUNITS=1/CM
##YUNITS=ABSORBANCE
##RESOLUTION=4
##FIRSTX=4397.6552
##LASTX=599.8556
##DELTAX=-1.9287962
##MAXY=1.8609724
##MINY=0.33143914
##XFACTOR=1
##YFACTOR=1.7331656e-009
##NPOINTS=1970
##FIRSTY=0.53471506
##XYDATA=(X++(Y..Y))
4398+308519309+308515973+308869577+308933303+308962741+309345818+309354691
4384+308610134+307756456+307444223+307847797+308242155+307701121+306843557
4371+306647117+306974138+307304460+307431877+307566207+307865508+308226404
4357+308354268+307696685+306317036+305668257+306306444+306644710+306358236
4344+306364289+306352218+306368381+306756101+306700285+305818269+305010536
4330+305007854+305549059+305926324+305601574+304750612+304050797+303711740
4317+303790254+304471463+305454967+306082870+305897230+305352654+305217430
4303+305125779+304531441+303924481+303673051+303353871+303068739+303414605
4290+304160572+304597815+304294592+303773437+304046567+304678839+304570543
4276+304101180+304236025+304509706+304099976+303482630+303166408+302942353
4263+302576506+302284461+302362837+302570453+302891111+303379836+303521251
4249+303265625+302999682+302810156+302782230+302852319+302665818+302107555
4236+301514764+301396048+301711169+301836763+301411764+300768900+300714082
4222+301323518+301622235+301222237+300986421+301521367+301910841+301180453
4209+299979911+299523341+300026166+300596569+300625938+300577688+300733512
4195+300809825+300801227+300667310+300160324+299377077+298548126+297734065
4182+297345864+297987318+298999296+299365144+299431827+299435232+299244192
4168+299306680+299536822+299209217+298236959+297341703+297177040+297839094
4155+298722383+298929690+298588844+298398320+298224441+297827986+297475551
4141+297217931+297031259+297136735+297423552+297518058+297436483+297255451
4128+296796439+296404008+296589511+296989027+297235504+297429330+297320002
4114+296789871+296313836+296155776+296078776+295833124+295603979+295547819
4101+295268189+294853610+294938039+295422947+295870609+296029563+295663268
4087+295150676+295131693+295385908+295554904+295591358+294998704+293987482
4074+293670401+293947348+294025002+294011796+294244896+294327193+293809029
4060+293359613+293521214+293649732+293443044+293119360+292846848+292888908
4047+292945034+292570176+292285834+292613095+292923643+292850666+293168091
4033+293841803+293968361+293498104+292887876+292555732+292539121+292363729
4020+292036089+291731217+291317876+291131616+291535843+292166567+292382059
4006+292046235+291570131+291142999+290739253+290531465+290675218+291038555
3993+291249404+291070126+290731309+290626693+290647534+290517228+290292622
3979+290051235+290050478+290524106+291044367+291061459+290576930+290033661
3966+289805789+289865766+290003500+290068808+290012029+289735391+289105045
3952+288250731+287456617+287133414+287513275+287976792+288152081+288469885
3939+288780329+288574776+287793989+286807614+286470517+286787685+286553605
3925+285762105+285683935+285975413+285765802+285883796+286897649+288152150
3912+289002699+288638468+286604297+283532939+281275504+281263588+282576708
3898+284385620+285898670+285923414+285001625+285329591+285835735+284666437
3885+283233036+282744964+283042271+284493934+285248189+284292370+282856183
3871+281603642+281374326+282231357+282377088+282605390+283942308+284478355
3858+283043337+279533808+275888110+277760662+281670360+283825775+284128654
3844+283111224+281149514+278329586+276455762+277585029+279588954+281186828
3831+282543297+282860001+282431786+281953962+280340354+278415614+278811898
3817+279843805+281544387+283945799+284879246+283841870+282133946+281274335
3804+280233503+278841680+279393168+280953109+282791065+284846214+285887734
3790+285720802+284888893+283847012+283373745+283373040+283247617+283876209
3777+285148164+285444301+284382749+282886619+282442894+282883575+283344633
3763+283498669+282565668+281194910+281015442+280741315+278367330+274655670
3750+274034576+275811041+277153186+278683775+280186044+280265177+278162190
3736+274867482+274705588+278473941+281956146+283000985+282123594+281380172
3723+281958519+283032642+283798968+284125283+283641871+282207542+282598219
3709+287161820+293282887+299478014+306558424+316161833+326901715+336447452
3696+344369366+349631303+351322015+350669316+349687223+347929759+344186580
3682+338417966+331430479+323976449+316698258+313214248+312450982+309808166
3669+307531816+307622779+307419496+306046107+303785095+300748541+297197503
3655+294700090+292951533+289091496+284042677+284207769+287093486+288294011
3642+287603362+286024557+283765592+280814550+277865296+275023134+270760967
3628+266369370+265388756+265012230+262729295+258252908+253989314+251968314
3615+250247115+248086094+246079470+244049134+242701864+242160040+240920086
3601+238689734+236536107+234691789+232860007+231460446+230232426+227890545
3588+225258304+224966620+225606010+225265354+224152388+222976005+221947312
3574+220860758+219445670+217230329+213889899+211383218+211549239+212150593
3561+211847320+211029528+210074775+209214012+208565818+207826798+206628818
3547+205438851+204948423+204939499+204970141+204694637+203958248+203106100
3534+202357141+201350373+200004840+199127655+199001253+198910513+198714057
3520+198709758+198792725+198782219+198443849+197647070+196742992+196270139
3507+196255282+195933179+195059984+194545294+194788212+195240776+195283558
3493+195005836+194794334+194549335+194226304+194028953+193915894+193926039
3480+194064118+193888089+193480010+193227566+193050660+193029699+193147212
3466+193067340+192675115+192283474+192263579+192377481+192379888+192300910
3453+192058474+191700227+191346124+191233391+191400478+191532280+191869841
3439+192685827+193368567+193417918+193313525+193614013+194016779+193987942
3426+193601684+193358405+193644432+194303425+194928113+195502299+196256640
3412+197216414+198084794+198729842+199360377+200152410+201281403+202571567
3399+203650401+204820713+206138373+207051994+207908338+209415180+211382840
3385+213415274+215283613+216895708+218617991+220703558+222990655+225409812
3372+228003793+230802932+233803978+236926406+240224088+243813283+247344684
3358+250518956+253849722+257878291+262371340+266753617+271031587+275414878
3345+279487123+283272447+287496957+292089360+296057557+298965594+301537187
3331+304451689+307682310+310847932+313440332+315283359+316732993+318265921
3318+319972349+321388073+322221427+322963267+324076457+325188959+325803692
3304+325996554+326119845+326263185+325704268+323822861+321123403+318210001
3291+315383299+312818274+310106057+306804214+303518190+301111190+299138716
3277+296835885+294379604+292160721+290415982+289118423+287756967+285891672
3264+283854113+282418580+281793702+281357749+280346270+278977007+278054651
3250+277368678+276367292+275454702+274997101+274477785+273502347+272439264
3237+271775559+271364677+270713972+269724571+268442231+267113944+266280763
3223+265899010+265632087+265472153+265230972+264690970+264190982+263972550
3210+263668812+263104686+262432160+261660194+260984813+260796662+260923443
3196+260784178+260411143+260249335+260413946+260624382+260431932+259869078
3183+259371343+259039577+258755802+258475020+258361961+258561942+258686402
3169+258456071+258238911+258268332+258441902+258618446+258673832+258761494
3156+259074741+259524364+259857781+259829598+259555470+259346461+259295443
3142+259419266+259631817+259663526+259540837+259585579+259663250+259603239
3129+259804905+260254477+260358594+260166523+260289624+260730185+261115102
3115+261445390+261719397+261759772+261584276+261447866+261440369+261434901
3102+261486469+261638287+261785530+261781369+261527566+261308653+261437583
3088+261784309+262066708+262148558+261991100+261718864+261584706+261506897
3075+261282241+261143492+261264323+261350368+261120845+260627065+260232983
3061+260212692+260386159+260504548+260426189+260161055+259902781+259596722
3047+259326841+259518380+259973248+260049578+259854462+259890968+259874237
3034+259386458+258888086+258880881+259144657+259290697+259351689+259604374
3020+260016219+260226053+260157065+260170633+260313612+260169498+259777238
3007+259675683+259925118+260129845+260343119+260903222+261603294+262088271
2993+262540353+263226067+264171276+265254701+266142117+266728752+267306962
2980+267868647+268161036+268351010+268599843+268611794+268362290+268176168
2966+267987569+267662458+267473447+267556793+267634137+267486704+267302027
2953+267255599+267205819+267316918+267783324+268164114+268235835+268289296
2939+268352248+268241166+268051570+267926646+267723020+267467497+267360095
2926+267257353+266961439+266589092+266318438+266078684+265676657+265083419
2912+264648550+264821001+265357822+265701453+265799741+265759728+265691634
2899+265931681+266498748+266856857+266753909+266497303+266406203+266559585
2885+266835002+267175383+267471710+267542641+267618971+267759525+267623820
2872+267335764+267129833+266935543+266911229+267221501+267606504+267851004
2858+267954709+267868320+267683625+267380214+266674484+265859409+265627066
2845+265986620+266448417+266772583+267031011+267335007+267674116+268026173
2831+268354328+268547122+268736047+269118969+269585513+270009222+270327146
2818+270519545+270743617+271124906+271561907+271861346+272002348+272138965
2804+272326514+272466054+272610701+272895541+273188653+273406208+273648232
2791+273874058+274106297+274405462+274554872+274487930+274473572+274602537
2777+274786647+274947922+274988211+275015689+275199644+275432159+275641048
2764+275887491+276137958+276421767+276717354+276810965+276707948+276713726
2750+276960994+277229138+277400180+277587815+277846209+278213638+278586416
2737+278827305+279031963+279169061+279178983+279273781+279522391+279721891
2723+279843651+280074360+280473343+280958251+281357113+281520262+281580240
2710+281731386+281914534+281984501+281988233+282119313+282460089+282986799
2696+283591008+283967551+283928999+283741192+283726782+283841079+283973277
2683+284171470+284323322+284284443+284285630+284542906+284852129+284992168
2669+285052145+285121545+285115716+285130556+285292088+285427071+285552735
2656+285866549+286199021+286328518+286395873+286596765+286863705+287035263
2642+287072904+287047317+287056190+287135237+287259318+287405753+287589915
2629+287762023+287818561+287895269+288175587+288499977+288676126+288744976
2615+288808529+288932370+289121931+289409643+289754340+289955938+290063099
2602+290260123+290465263+290551205+290534388+290637148+291032984+291395839
2588+291444536+291449936+291550081+291577422+291557097+291587395+291647544
2575+291677636+291712130+291837896+292012876+292176197+292257187+292187374
2561+292053629+291992860+292064668+292184279+292271424+292388731+292473332
2548+292394646+292331814+292490837+292711796+292787696+292711246+292570382
2534+292492143+292569522+292793577+293009757+293089681+293161866+293359028
2521+293564409+293681784+293766626+293821444+293847787+293977474+294304804
2507+294665631+294796590+294729701+294757385+294950798+295065456+295076392
2494+295228055+295558790+295920098+296195635+296344753+296365869+296327214
2480+296366660+296480046+296610936+296768033+296868247+296904495+296968530
2467+296994117+296925198+296835438+296810883+296963956+297248195+297423312
2453+297400236+297295447+297257136+297316185+297369594+297391982+297485112
2440+297700982+297952962+298085744+298054689+297981506+297999320+298154731
2426+298396257+298628772+298811352+298915899+298929827+298950599+299102365
2413+299396783+299705198+299905214+300034867+300154271+300279556+300475101
2399+300746718+300996360+301125531+301166593+301313441+301642147+301947020
2386+302018793+301874628+301514351+300774334+299578813+298038216+296311085
2372+294411897+292445544+290815188+289659010+288867234+288438658+288343465
2359+288575258+289367652+291093133+293761433+296546695+298018579+297496529
2345+295759768+294337166+293893286+294153795+294659991+295189847+295719222
2332+296273633+297061660+298058266+299001188+299964400+301127113+302303375
2318+303345721+304441578+305534512+306322092+306922896+307599153+308259591
2305+308768744+309156360+309535380+309954498+310261090+310361408+310502100
2291+310924554+311481304+311921263+312177680+312266064+312266820+312256331
2278+312198658+312172831+312355135+312668125+312949233+313165550+313281894
2264+313369281+313643271+314098155+314423078+314564733+314806327+315112128
2251+315222935+315195973+315284563+315548855+315840900+316055051+316162590
2237+316263527+316528575+316872378+317140006+317372521+317630932+317906435
2224+318121136+318219012+318234591+318223379+318311282+318573717+318873981
2210+319107597+319282129+319364770+319424231+319615856+319904874+320153381
2197+320329633+320476412+320628178+320748304+320881052+321169658+321496369
2183+321643699+321647550+321659175+321801105+322091086+322448921+322705819
2170+322757921+322813049+323048865+323297234+323349611+323335030+323507292
2156+323766254+323946392+324147439+324387520+324564563+324762756+325072685
2143+325369441+325568219+325658942+325634937+325651410+325885266+326222535
2129+326378049+326436961+326728593+327104242+327207930+327144685+327222649
2116+327482160+327754912+327967584+328167978+328330611+328472404+328751931
2102+329192578+329574417+329770169+329956256+330248852+330552177+330808937
2089+331035193+331322940+331706808+332113821+332524170+332910789+333307863
2075+333820387+334433503+335065121+335634389+336115066+336655102+337390821
2062+338227407+339061208+339841944+340565901+341389075+342309712+343223677
2048+344266160+345435819+346488104+347450732+348494865+349471215+350204114
2035+350763340+351255125+351706124+352053366+352214899+352182056+352092365
2021+352001368+351724145+351367686+351267884+351246149+350953245+350574948
2008+350406640+350290262+350145271+350129142+350111912+350003479+349973834
1994+349990892+350001175+350126632+350343189+350605521+350968652+351426460
1981+351871921+352186630+352408174+352702042+353142173+353453993+353451070
1967+353714158+354662755+355678172+356335102+356870426+357419748+357982688
1954+358650863+359410896+360074910+360472328+360533028+360539803+361331647
1940+362854395+364001907+364641607+365261738+365935210+366442403+366760482
1927+366854540+366469881+366103311+366318149+366690806+367304301+368215927
1913+368593467+368241686+367986714+368389325+368984730+369387169+369740154
1900+370053728+370173579+370274206+370573060+370658693+370606557+371288179
1886+372319451+372886965+373219384+373659447+374213824+374741032+374976780
1873+374484272+373103694+372107536+373186954+375067743+376086084+376376306
1859+376569822+376866407+377073266+377031998+376797385+376351270+375563759
1846+374565537+374443759+375685433+376740572+377081142+377301861+377198380
1832+375986454+374551918+374730130+375702525+376626463+377766169+378468941
1819+378465984+378284298+378064748+377591017+377288139+377712863+378406488
1805+378654754+378182880+377501670+377642294+378250457+378012956+376980618
1792+377265063+379510736+381177959+381560177+381442561+381251452+381411024
1778+381926299+381525992+379628077+378033212+379248026+381810196+383770118
1765+384501675+384427770+384723357+385129201+385336955+385652179+384992773
1751+383033402+381978332+383108546+384649933+385398652+385530230+385836238
1738+385917812+384558042+383216360+384873576+387499850+389590869+390650512
1724+390638269+389971298+388095014+384750904+383508990+386675438+389899834
1711+391267033+390843960+389172850+387650034+386751751+385347994+384033722
1697+384608114+387366930+390123235+390780646+389897392+387952774+384684977
1684+383140323+386052349+388522146+389012625+388094085+387059856+385958015
1670+384885131+386313648+388416945+388427984+387738486+388314736+388485382
1657+386354986+381864878+379616419+382339950+382426304+381784369+385226148
1643+389011971+390408265+389882707+388294548+389603008+395273094+399507989
1630+401854221+403924192+405970744+408221885+411694066+414383550+415235887
1616+417864397+423095830+426722390+428298237+429378515+430940331+432550293
1603+434103167+435928553+437531878+438513249+439529217+441036764+442646486
1589+444330044+446127058+447614658+448716534+449618600+449729991+448809870
1576+449881860+453379490+455029208+455616084+457913068+460795002+462590915
1562+462334945+459359606+459527811+466608152+472271325+476494631+479930736
1549+483205858+485189234+484625228+482258499+482141846+491813074+501514187
1535+506382593+511460540+518241683+523129897+526177457+529262089+532556849
1522+537861155+545947904+553913563+562717081+571348508+577374743+580243540
1508+581580234+590680887+604969985+614141413+620288393+625706705+633546047
1495+643225907+650026584+654601981+661626679+672305242+682609842+691078670
1481+698737324+705806936+711352355+715128514+719174434+728499932+740769062
1468+750279858+757385648+766115570+775655254+781379710+783846619+791755980
1454+803433523+811395777+817190735+823334207+830441373+837319016+843414479
1441+848720264+852090132+855023859+862246440+870952288+876684380+880183832
1427+882550595+882280697+880983827+879803747+874499544+867767923+866484534
1414+866478550+864424742+861527538+858861027+855915676+852576485+848752522
1400+842822341+835863261+831985581+831149820+831369369+831454452+829001025
1387+824588502+824227056+827983200+831830617+834416723+834595072+832339047
1373+831408300+832979057+833669758+832781999+831423156+829432421+828589507
1360+829719376+830703705+831183454+831538846+831951052+832173835+831711419
1346+830801168+829954058+829381041+829248981+830130482+831651097+833417537
1333+835193538+835545767+834950740+835192369+836371004+838008548+839129270
1319+839310508+839989861+841769163+844361665+848743925+854382818+858347644
1306+860276476+862865540+867625477+873820191+879609234+884235254+888570123
1292+892597746+895679697+898051893+900207360+902750133+905902997+909304092
1279+912764476+915947466+917967709+918873489+920111139+921381872+921460558
1265+921225670+920963407+920628718+921743799+923775941+924998940+926411501
1252+929373015+932629188+933967809+933517842+933576306+934279112+934680313
1238+936672975+940253383+941822283+940574522+938908090+938799347+940485107
1225+942759909+944181273+943547454+941657827+940459107+939262176+937087038
1211+934782247+932462737+930037648+927909900+925280325+921368873+917798988
1198+915961291+914517091+913070484+912551255+911262982+907954948+905268559
1184+905286029+906841448+908121192+907947038+905637226+902524944+900671771
1171+900262453+900259977+899087601+897312082+897372678+899067998+901371001
1157+903185587+903332023+903663755+905032089+905842882+906531382+907794481
1144+908920705+909610994+909754403+910370820+913417417+917602962+919776381
1130+920457040+922214813+924961799+927517366+930324260+932831474+933397337
1117+933183496+934967682+937454674+936864256+934841674+935622617+939737523
1103+944764469+947755697+949041425+950791495+953826467+959019039+964862074
1090+968143971+969067291+969894592+972928188+977253222+979262597+980235508
1076+982573933+986841396+994356848+1002138483+1005858173+1006663326+1008396888
1063+1011156598+1011529324+1012203174+1017207904+1022441950+1023271314
1051+1020889213+1018668061+1017946683+1018083833+1019520329+1024400221
1040+1032152005+1037681123+1038465091+1037467970+1038000956+1039512423
1028+1039131994+1037094006+1036022326+1037713037+1041454737+1044701968
1016+1046841478+1047608389+1046489524+1045818082+1046472879+1045826817
1005+1043911397+1041850092+1039179247+1037461573+1037123101+1036599331
993+1036563015+1038037203+1040767819+1042426135+1040286281+1037165883
982+1037302344+1038655684+1039251536+1041645880+1044867731+1045751433
970+1045039134+1043123508+1039682588+1037640060+1039156274+1042431706
959+1046437801+1051117677+1052834594+1048621743+1044284054+1047942528
947+1056123576+1059455064+1058040647+1056755813+1057172971+1058230758
935+1058505470+1057971384+1056685725+1055898936+1057899439+1061447932
924+1064333924+1066875254+1068186018+1067581224+1066427694+1064102544
912+1060472476+1058845181+1060896719+1064704380+1068394975+1071293004
901+1073286216+1073741823+1071663460+1068052720+1065458360+1065778606
889+1066302581+1063089534+1059202843+1058130406+1059353199+1060717269
878+1059208139+1056144416+1054074239+1052197198+1049300339+1044656023
866+1039014447+1033530175+1029654970+1029079271+1029141931+1025575968
854+1019685954+1014485267+1010001142+1007198307+1006503341+1003855057+996468295
841+987225265+980202287+976290216+973742215+969232435+962134898+958100671
827+959385711+960587801+958548713+954563802+950078371+947152623+946837467
814+947379395+946960379+944311476+940109836+937714529+937600077+936600686
800+933423405+930557084+929009025+927420315+925801205+922780470+917069151
787+911164143+908562355+909019888+907513166+902356567+897443798+896203878
773+898614592+900612412+899151017+894893664+890790588+889062597+886754642
760+881190858+874562410+870040524+869745315+872495052+874457037+874395822
746+874108041+873906512+871710189+867264926+864302174+865350262+866981960
733+866578076+867137887+869212192+870335389+870539739+869228149+865428260
719+861408891+859483497+860714613+864845614+868507803+868598594+865171362
706+860148474+855350226+850955930+847948401+849068641+852471593+852199013
692+849244446+847760078+847042277+846755184+847381712+847810288+846379294
679+844783707+846329497+847602638+846958226+846724232+843957438+840562740
665+843095815+847162025+847740682+843766845+840155692+839370142+837650473
652+836137010+836697027+832871689+824179047+819289801+818852352+816103854
638+809473204+805284013+807511494+809625348+809917737+813351778+813197983
625+807095643+803183572+798852348+792400254+791486977+796868697+804454236
611+815685182+825136826+820762476+808312176+799455422+792850703+784846216
##END=
