##TITLE=Sample description
##JCAMP-DX=4.24
##DATA TYPE=INFRARED SPECTRUM
##DATE=25/8/2023
##SAMPLING PROCEDURE=Instrument type and / or accessory
##ORIGIN=Default
##XUNITS=1/CM
##YUNITS=ABSORBANCE
##RESOLUTION=4
##FIRSTX=4397.6552
##LASTX=599.8556
##DELTAX=-1.9287962
##MAXY=1.9308944
##MINY=0.61188734
##XFACTOR=1
##YFACTOR=1.7982855e-009
##NPOINTS=1970
##FIRSTY=0.72753668
##XYDATA=(X++(Y..Y))
4398+404572394+404571797+404544684+404483399+404404646+404150488+403918703
4384+404100670+404544353+404773088+404311342+403218675+402553284+402464256
4371+401909106+401246002+401300525+401851731+402925074+404062288+404389233
4357+404469610+404372428+403433456+402768363+403255930+403674356+403030178
4344+402223522+402327797+402594881+402296773+402204132+402628789+403266073
4330+403823211+403963118+404329770+405062281+404966822+404248565+404065338
4317+403963747+402932167+401816001+401981826+402832964+403206378+403447841
4303+404162685+404579719+404394105+404816078+405843117+406105395+405711464
4290+405982128+406574600+406142551+405295756+405013458+404320191+402841648
4276+402387988+403401637+403575848+402387127+402060381+403249699+404550186
4263+404504313+403088480+402367306+403274160+404260033+404364938+404138688
4249+404205741+404434012+404780314+405020949+404328743+403375485+403091331
4236+403036575+403208665+403699812+403961029+403786420+403432164+403187386
4222+403497891+404333052+404729105+404526090+404415385+404546242+404739578
4209+404483763+403965007+404057350+404076607+403422916+403148042+403376877
4195+403356360+403046054+402486264+402136681+402838698+403888905+404035805
4182+403686089+403514563+403423944+403339489+403243037+403261167+403409028
4168+403113936+402201811+401552264+401843180+402870815+403966167+404472461
4155+404415550+403982740+403219073+402696604+402696770+402529751+401824419
4141+401398006+401864724+402742974+403297793+403142640+402736246+402876417
4128+403376148+403651817+403888010+404172264+403849794+402804326+401829292
4114+401393432+401279777+401396017+401732441+402290806+403163256+403643332
4101+403112776+402371847+402673966+403780388+404086086+403571672+403343964
4087+403302831+403374292+403672997+403442472+402540092+401977617+402037776
4074+402370653+402915727+403128122+402628159+402195514+402171086+401992333
4060+401945002+402372079+402552588+402249077+401894356+401771652+401777320
4047+401520411+401330058+401890743+402684506+402692892+402213644+402089018
4033+402130317+402006752+402003769+402443838+403168360+403168360+402032704
4020+401063868+401244112+402126837+402980659+403470944+403391859+402803829
4006+402512515+402543937+402111259+401592767+401333604+401010074+401297973
3993+402629551+403428352+402611851+401411894+401007952+401444078+402327299
3979+403067400+403073664+402435386+402077484+402143509+402076556+402126936
3966+402640986+403195042+403254538+402680992+401526908+400509713+400617501
3952+401518986+402281360+402693223+402564487+401675299+400887801+401069901
3939+401653920+402220240+402639097+402360279+401766382+401707748+401485509
3925+400860953+401187102+402323090+402569426+401982125+402156436+402873368
3912+403064251+402760375+401848881+399815817+398049008+398377080+399312970
3898+400004082+400630693+400446007+399774617+400270802+401160553+400786476
3885+400004015+399629076+398985826+399375184+400329104+399974914+399168059
3871+398924010+398827922+398913768+398953311+399548169+400917167+401651368
3858+400944877+398126270+393511588+393961767+398771608+402285570+402735152
3844+401120746+399573790+398476284+397940391+399009525+400330198+400645177
3831+400607657+400613126+400542129+400338551+398737568+396328106+396944741
3817+398783607+400165201+402107215+403661230+403345091+401316800+399873224
3804+398742507+397043017+397550901+399303656+400772588+402689809+404338256
3790+405049851+405061121+404332787+403476611+403009429+402150668+402211026
3777+404425991+406123161+405452500+403340749+402176256+402583612+403280292
3763+403670942+403319470+402558786+402744930+403354836+402634921+400616474
3750+401467147+405232316+409002225+412563219+415412386+417121753+417209986
3736+415368966+414523132+417679588+422113430+424436846+423680704+421169287
3723+419041858+417778096+416914032+416483077+416202072+415310961+415865449
3709+420481191+426552276+431858800+436811332+444076607+453739578+462308424
3696+468418620+472634963+474924306+475959267+478332368+480392313+479261397
3682+475033420+469313609+463025091+454232680+445749714+441926474+438190274
3669+435015323+434587682+434231769+432594094+430008101+427212762+424268170
3655+422099608+420820665+417952042+413722408+413519294+416168728+418512628
3642+419884179+420260245+420091337+419728264+419028368+417343396+413030866
3628+408262091+407756792+407680955+404748594+399175251+394490599+392813880
3615+391086183+388520508+387336228+387461318+387427145+387196454+386810643
3601+385997358+385000183+383816168+381886119+379833831+378690883+377196396
3588+374112329+371407510+370048885+368811374+367398391+366270988+365191779
3574+363915819+363073929+362383812+360496255+357731277+356441960+356396882
3561+356234338+355712963+355214392+354561530+353512051+352845467+352935987
3547+352772978+351720550+350373294+349309265+348858854+348685339+347985145
3534+347176102+346556386+345674589+345264184+345642935+345358681+344356336
3520+344187096+345026699+345714827+345378270+344415400+343585609+342856977
3507+342441666+342622142+342886244+342895359+342783460+342209616+341089240
3493+340336147+340261504+340458188+340761633+341023115+341183472+341225567
3480+341176843+341290465+341656488+341813232+341644191+341824038+342120191
3466+341678066+340850031+340669224+341208862+341615587+341769679+341985090
3453+342011076+341814459+341499115+341118375+341036440+341072701+341064514
3439+341544093+342313461+342919356+343714776+344488022+344335056+343572583
3426+343615440+344600649+345192789+345015197+344973335+345520530+346484659
3412+347454291+347944542+348040697+348358891+349178507+350270345+351433645
3399+352581531+353494551+354117218+354715688+355732585+357417856+359197226
3385+360777891+362887388+365404041+367546120+369462479+371517121+373797648
3372+376262197+378605832+380699220+382669441+384929285+387903907+391270106
3358+394809159+398762493+402818413+406402708+409436229+412309293+415615997
3345+419672911+423581632+426571434+429694414+433478310+437353754+441165360
3331+444451977+446629455+447872999+448672563+449564137+451243906+453450253
3318+455059124+456247713+457923637+459585143+460400152+461194080+462141438
3304+461909355+460997993+460127300+458834403+457946309+457110153+454589622
3291+451760673+450436222+449093607+446420342+443715191+441717394+439250790
3277+436421079+434692653+434010690+433539596+432801617+431422310+429565015
3264+427550081+425690036+424820602+425180560+425541114+424866972+423503244
3250+422177699+420922123+419364097+417825659+417114428+417059540+416691296
3237+415749772+414888525+414758165+415209205+415404166+414856043+413815315
3223+412863814+412308862+411721860+410687695+409842159+409647895+409394532
3210+408848398+408644355+408753204+408407334+407785727+407718144+407876976
3196+407896267+408254567+408745316+408566729+408115556+408165042+408315687
3183+408215224+407862856+407620863+407957420+408231332+408019998+408195602
3169+409374778+410359656+409676300+408101270+407887351+409488068+410494126
3156+409566059+408520690+409220254+410842251+411344567+410632342+410533669
3142+412014466+412977005+411871378+410839997+411906247+413873451+413926815
3129+412136706+411447782+413506666+415995245+415195384+412629775+413175048
3115+416892686+418272789+415426373+413156652+414940132+418375042+418141733
3102+414568143+413312567+416443402+420221067+419604234+415884142+414769600
3088+418113493+421278368+419692434+416494645+416293056+418773415+419871551
3075+417424171+414963433+415797567+418816437+419945531+417768020+415671681
3061+416086362+417926321+418037524+416116955+415080569+415774697+417037200
3047+417328182+416380062+415625775+415687028+416108635+416496468+416247547
3034+415294820+414888459+415359652+415408375+414925283+415331512+418199770
3020+427070867+442481061+453339614+450335560+440400201+432475799+428264494
3007+425867197+423792271+422458174+422267257+422609780+422756382+422623071
2993+422643257+423556210+425190702+425752647+425042444+425083113+426881376
2980+429189214+429608004+428071722+426870372+427194400+428838206+430032430
2966+429217288+427772320+427815442+430212044+432681598+431819158+429469954
2953+429000584+430648235+433048549+433543739+431725755+430113337+430166834
2939+432041198+433644070+432665821+430781744+430539486+432347063+434264781
2926+433390774+430378798+428597803+429522556+431638152+432005865+430133953
2912+428313649+428167710+429717052+431082703+430673359+429865245+430124109
2899+431391054+432915570+433221468+432145307+431208655+431289961+432281568
2885+433118353+432561247+431365764+431258705+432266951+433135588+433191074
2872+432708512+432312824+432457735+433148780+433867535+433886461+433421400
2858+433507942+434248838+434764910+434271941+432854351+431629534+431435336
2845+432032580+432799529+433359816+433607245+433686894+434108468+435123608
2831+436115480+436488895+436621907+437171223+438062731+438620930+438399918
2818+437693659+437210036+437280337+437665750+438359447+439369350+440083697
2804+440354129+440585185+440841166+441122967+441410535+441569533+441648982
2791+441843512+442077617+442117059+442194918+442560444+443069157+443761031
2777+444473886+444630929+444403817+444431593+444667919+444910045+445131687
2764+445205502+445441098+446171686+446896606+447090672+446888320+446760048
2750+446948943+447149505+447217718+447440487+447958216+448606537+449070571
2737+449349919+449700497+450100659+450364330+450495651+450642286+450876921
2723+451242447+451691996+452163488+452637929+452980850+453287013+453707030
2710+454089658+454344579+454529098+454643648+454585346+454462311+454626115
2696+455085939+455445929+455462336+455357763+455527135+456026038+456593253
2683+457030671+457332889+457635141+457888105+457901397+457914091+458241301
2669+458546172+458308089+457845746+457650089+457507730+457602194+458203582
2656+458825752+459392602+460077715+460529518+460695841+460983210+461385295
2642+461569218+461475053+461338395+461544227+462129340+462611935+462699339
2629+462478791+462158342+462127749+462635435+463447693+464206090+464545166
2615+464382091+464341952+464823818+465346751+465545887+465750825+466164080
2602+466538323+466758639+466866825+467018233+467523963+468208347+468442783
2588+468217926+467999432+467862410+467816073+468005995+468410168+468923158
2575+469389346+469617650+469536013+469370950+469425706+469632731+469826830
2561+470037800+470231766+470299183+470286654+470390697+470709356+471150884
2548+471582667+471861551+471954358+471953264+471917467+472064467+472466618
2534+472791110+472962902+473081628+473103537+473133766+473181296+473199559
2521+473392962+473737374+474019175+474347877+474784798+475127255+475398084
2507+475717439+475967586+476051510+476005770+476038119+476294233+476549385
2494+476817331+477294225+477745664+477968102+478007611+478061306+478416425
2480+478852053+478967862+479046748+479290863+479362589+479395933+479684463
2467+480026058+480351776+480738018+481074376+481197478+481101390+480994397
2453+480978984+481077028+481396449+481739635+481733868+481618854+481768935
2440+482039500+482483945+483032433+483172637+483121494+483448174+483964709
2426+484208725+484196030+484192848+484294969+484616113+485132318+485461715
2413+485453561+485371660+485480277+485877158+486426607+486792630+486838503
2399+486828394+487117851+488444524+492097629+499007985+509946849+525832412
2386+546291524+569392181+593000291+616059848+639107737+662817074+686741655
2372+710538296+734330296+755873590+771766080+783050849+793124290+801022011
2359+800964669+790097067+773518801+755474256+737352283+726716101+730968903
2345+745289512+751814223+744639268+733791885+725306366+721588263+723985726
2332+728978132+729483398+725243854+722921565+724803420+725516772+720112239
2318+708993793+696819671+691799954+696173935+700499259+695361412+680505175
2305+662436897+649103487+641582893+634863951+626680253+617213502+605746434
2291+593521003+582787838+573380351+564610977+556955349+550683537+545487387
2278+540965047+536913569+533415551+530457900+527824376+525551241+523694278
2264+521949942+520320952+518936342+517582457+516352635+515390263+514466140
2251+513660080+513261575+512999462+512398041+511663608+511361025+511391685
2237+511305706+511176274+511134080+511080815+511081942+511126257+511102028
2224+511124932+511386646+511856315+512261781+512500692+512851634+513313778
2210+513546093+513667737+513958354+514276317+514460074+514797360+515579091
2197+516378290+516781668+517084847+517500887+517918219+518268697+518551061
2183+518834221+519026000+519003991+518965609+519011714+519080656+519224772
2170+519517942+519963381+520266428+520128544+519773160+519625631+519729872
2156+519785192+519772365+519941439+520147403+520128709+520021683+519909023
2143+519939682+520391916+520872191+521070598+521420049+522035954+522610560
2129+523104822+523661132+524198782+524530234+524754396+525110243+525498706
2116+525765161+526144044+526574535+526655210+526628363+526991568+527555402
2102+527792524+527644828+527473931+527445957+527609131+527951157+528207867
2089+528521985+529131195+529797646+530347228+530584150+530598237+530780569
2075+531170722+531790240+532543267+533053406+533326026+533673289+534049454
2062+534557571+535556967+536742871+537771800+538729532+539506225+539906454
2048+540229256+540978571+541920095+542666990+543331453+543978283+544451465
2035+544729753+545041649+545285201+545394978+545700180+546064247+546080853
2021+545879230+545838395+545807537+545527261+545308933+545389376+545521295
2008+545528089+545694578+546065705+546231631+546093879+545871706+545649699
1994+545501639+545707140+546137366+546358743+546542798+546951645+547445775
1981+547829332+548133207+548453888+548707217+548810763+548835324+548984676
1967+549329254+549612249+549709828+549937238+550546083+551272660+551779319
1954+552094729+552445207+552830852+552979144+552770893+552408018+552652465
1940+553885269+555127819+555824831+556282368+556676598+557125517+557623889
1927+557790411+557633965+557773043+558157130+558271747+558655436+559647673
1913+560337558+560339481+560461323+561166389+561783951+562127071+562482189
1900+562683779+562730845+562822458+563034588+563230211+563279730+563653476
1886+564486549+565357673+566046498+566292370+566138310+566053856+566277719
1873+566302645+565256381+563785726+564306571+566476392+568249200+569179919
1859+569602653+569779914+569943585+570283788+570703208+570673775+569932250
1846+568740213+568210618+569303882+570462375+570763533+571124021+571673171
1832+571074170+569603913+569655818+570808677+571440028+572148010+573242997
1819+574196321+574676198+574514914+573730233+572966168+573247770+574288664
1805+575113583+575231779+574528304+574252602+575180802+575419978+574070767
1792+573687740+575745597+577637330+578368514+578514884+578262383+577956187
1778+578186547+578112434+576363359+574035633+574904437+577871402+580001449
1765+580910491+580786925+580527530+580872307+581268261+581795204+582046047
1751+580876948+579183159+579348023+580784605+581771406+581580622+581092525
1738+581311151+580758354+578956578+579530388+582012372+584305759+585946516
1724+586661724+586342204+584417657+580483248+578447533+581934878+585912310
1711+587531124+587019958+585268629+584069897+583847294+581970145+578561155
1697+577806570+580631076+584676787+586694936+586230571+584234629+580841681
1684+578824527+582051417+585286593+586023081+584458824+582630465+581829476
1670+581229216+582650020+585170983+585367136+583959391+584134133+584890773
1657+583877588+580115469+575790078+576977607+577975080+577517675+580082920
1643+583875666+585686458+585229849+582397785+580510494+584592664+589368101
1630+592147000+594096737+595517409+596515280+599165045+602406585+603919136
1616+606104470+611097008+615198469+617000113+618024566+619665456+621474325
1603+622974878+624732438+626777368+627853993+627978486+628887064+630964278
1589+633232010+634997194+636250616+637503308+638714170+638774826+636857373
1576+635873621+638959313+641860849+643045660+645017140+647624876+648938821
1562+648275452+644357549+641499566+647750563+654323202+659054556+662696425
1549+666354270+669380366+669536347+665230645+660056869+666412672+676959626
1535+682291108+685344715+689990885+694878154+698215617+700104565+700664389
1522+702055893+707757541+715438558+723240157+730117467+734307294+735076463
1508+733175980+736643902+747758967+755782374+759777770+761937714+766347426
1495+773039455+777701004+779880968+783172558+790922318+800046082+807470488
1481+813295635+818242897+821785263+823221845+824307949+830151128+839080196
1468+845342065+848695570+853680949+860439666+862830831+858114791+857418475
1454+866998185+876370273+882506058+885606664+889226525+895382130+900567375
1441+902959402+903728306+903954622+906833553+912800363+916651312+916658008
1427+917764728+920724268+921707290+918341256+910595076+905180532+906471806
1414+907844948+906051988+902878196+898941666+893644390+889229574+886734796
1400+883736078+880291888+877539373+875899743+876307562+875435974+870363225
1387+865233730+865268334+868050414+869618252+868504107+866719964+866939650
1373+868048691+868429132+869095750+870047483+869458823+866639089+865391303
1360+868263141+870859608+870179401+867783065+865852353+865143111+865761403
1346+867214955+869240064+870606776+869295085+868439938+871266698+873981428
1333+874977377+875900605+876267059+875215293+874702337+876811304+879548572
1319+880269018+880326160+881573416+884060570+886975497+889506735+893455727
1306+899778584+904671090+906131536+907570969+910971076+913381598+913258696
1292+913838141+917428834+923239795+928864413+932139629+933633950+934717336
1279+935312758+935226845+935283059+936510362+938331562+938517242+937040952
1265+936998459+938924796+940548052+942102830+944962139+948476995+950896268
1252+951877301+952741464+953453425+953708975+954398794+954697698+953990046
1238+953485443+952841165+951948829+952421613+954376984+956048367+955942236
1225+955648569+957320748+959058487+959551490+959871541+959641446+958734990
1211+957298606+955497891+955330308+957599367+959022624+956857509+954377780
1198+954644400+955671572+956196858+955932624+953531581+950425539+949768732
1184+951181582+951762950+951037268+950317021+950194450+950950758+952142927
1171+953327738+955037370+956934671+957886935+957761447+957487866+958177354
1157+959157061+959372704+959914762+961385152+964078735+967739165+969556454
1144+970078690+971706123+972874361+973638160+974708354+973977833+972315001
1130+972350334+973627620+975481898+979859658+986104358+988521974+985731607
1117+983389761+985203868+988285714+987226524+982049499+977718607+977656228
1103+981374264+986134653+990471777+993908476+995621689+997177594+999513075
1090+1000507499+1002354287+1007889612+1012878637+1014719458+1015487832
1078+1015626909+1016827497+1021535781+1026765905+1028476863+1028530294
1067+1029848017+1031092754+1031093151+1032555454+1035737134+1036385920
1055+1034360943+1034675359+1038897601+1042847655+1043294188+1041308322
1043+1039835148+1040395502+1041066296+1042228369+1047758457+1055190155
1032+1056660611+1053209394+1051090218+1048428521+1044907036+1045505838
1020+1047486069+1046678783+1046604604+1048314236+1048633624+1047804065
1009+1047351300+1047675196+1047839397+1045747003+1042648120+1040687512
997+1039981319+1041815113+1046348656+1049938619+1049575414+1047537908
986+1046906491+1046530027+1046510736+1049430503+1054026358+1055721142
974+1052882383+1049186620+1047914239+1049079958+1052014839+1054549987
962+1056116432+1058106673+1058580782+1057516157+1057890367+1061260047
951+1067595432+1070959013+1066994309+1061337142+1058241773+1057053449
939+1056369861+1054274616+1051919380+1052321300+1056284412+1060828628
928+1061938397+1061470850+1062594077+1064686736+1067934574+1071257254
916+1070074631+1064326514+1060600787+1059215580+1056055975+1056939230
905+1064539174+1068847792+1067006308+1066071612+1068900096+1072570735
893+1071521488+1067888966+1069601516+1073741823+1072963506+1068129269
881+1062892716+1059342262+1057774491+1057645953+1058414062+1058374022
870+1054966159+1048697329+1045578294+1048130214+1049962219+1046120816
858+1039128425+1034178246+1035174990+1038728825+1036819327+1029933067
847+1023244155+1018418801+1016150406+1014093941+1007494255+998264095+993999096
833+996543326+998515867+993926110+987415054+983810043+980984476+979051776
820+980213650+981616026+979566455+975570794+973550259+973805013+971854481
806+966494693+962093930+957630589+952036531+951257551+954531441+951051918
793+937504654+927957294+931353689+937198856+936486034+934105143+935289490
779+937953441+937015430+931578944+924557518+920951976+922622431+923222161
766+918521235+912986573+909515601+906543399+904472749+904018990+903359664
752+901427826+899368577+898129209+897096469+896803001+897567132+897259411
739+896276389+897130410+898850782+898439184+896673735+896981787+898033486
725+896929019+896392066+897914892+899459329+900242419+899158502+897607901
712+898071802+897686521+892740585+884414893+878432173+878686000+882235460
698+885489131+888852116+890083330+887439398+885684224+884638093+881474643
685+879151293+878857560+879685131+880454963+880251981+878084612+875708627
671+879544064+886187170+884739584+881739143+881378323+877264665+867730298
658+860379076+857922084+852071017+845008558+846379247+855112294+863570037
644+866093651+865634920+865489479+859818325+849414557+842388425+836553400
631+826185231+815494690+807999155+804425499+813351120+835160040+850037622
617+849644055+848099618+846320116+837037719+823916172+811181829+803376120
604+803256797+803507176+803915393
##END=
