##TITLE=Sample description
##JCAMP-DX=4.24
##DATA TYPE=INFRARED SPECTRUM
##DATE=25/8/2023
##SAMPLING PROCEDURE=Instrument type and / or accessory
##ORIGIN=Default
##XUNITS=1/CM
##YUNITS=ABSORBANCE
##RESOLUTION=4
##FIRSTX=4397.6552
##LASTX=599.8556
##DELTAX=-1.9287962
##MAXY=1.9441851
##MINY=1.1082937
##XFACTOR=1
##YFACTOR=1.8106635e-009
##NPOINTS=1970
##FIRSTY=1.1719255
##XYDATA=(X++(Y..Y))
4398+647235413+648433455+647154302+645114002+644788041+644829453+644806410
4384+646801150+650714325+653087498+651571659+647868110+645614234+646546491
4371+648230479+648677909+649721695+651981035+653584504+653182896+651326480
4357+649873977+649486853+648740982+647063314+647097023+649599830+651801892
4344+652694120+652856870+653729478+654679906+652833892+650814529+651815388
4330+653513597+653941342+653532295+653417343+654261444+654458495+652626439
4317+650724727+651236942+653949638+655265924+653175325+651607606+652516556
4303+653520313+653945293+654298576+654455927+653134901+650560265+650136668
4290+652530909+655122794+656720600+657210167+656524998+655341900+654855955
4276+655268887+654741135+653000724+653180526+656158284+658453571+657865578
4263+656184092+655156766+655183891+656158876+656192980+655169933+655062618
4249+654299629+651753896+650545254+651769961+652619723+652610835+654679313
4236+657990866+658659708+657596040+658179359+658937607+656129908+652470733
4222+652621238+654496549+655104162+654510704+653117783+652118240+652643622
4209+655595177+659452521+660028664+658120434+657619083+658295759+658607433
4195+658941558+659684203+660184962+660280558+660439686+660061648+658729627
4182+656931214+654937725+653726515+653493517+653469552+654293901+656156308
4168+657978423+658855311+658774792+658577938+658808500+659576625+660553256
4155+661670713+663473801+665105777+665197949+664295517+663384855+662813452
4141+663600077+665723529+666769421+665886542+664336928+661747348+658437836
4128+657789536+660446204+662805420+663827347+664830906+664396709+661394657
4114+658469109+658633175+661837545+664891542+665335220+664637147+664858887
4101+664891740+662886729+660809297+661347913+663229413+664807995+665486580
4087+664771192+664661770+666147126+666702201+665702198+665173853+665539382
4074+665326003+663684875+661853544+661585191+663019391+664308948+663414416
4060+662268187+663616075+664845720+664521734+666043498+669156749+670012503
4047+668323841+666943693+666678697+665448395+663336991+663137043+665097021
4033+667066084+667988070+667495146+665600018+664050470+664906487+667722219
4020+669599242+669094204+668192495+668338786+668686078+668292107+667919007
4006+669243457+671266310+671497662+670418127+670081501+670287769+669745072
3993+669290860+669338263+668853897+669221665+671440845+673331825+673255980
3979+671654618+669987024+669542227+669909468+670221537+670195794+669508979
3966+669231936+670250374+671517084+672557644+672540065+670991175+669976951
3952+669844552+669202440+668587322+668581792+668561580+668952917+670427608
3939+672186189+673431239+674125626+675085732+676418609+676267973+674646333
3925+673613082+674602157+677121620+678207871+675618817+672803283+672076372
3912+672028904+673733169+677413807+679453184+677755173+675038856+673268094
3898+672211076+672432092+673496813+673801311+674461989+676525266+676566019
3885+673720397+671729541+671591875+673433807+675698678+676794672+676897378
3871+674839566+672725265+674148866+673894734+670136080+670249188+674363760
3858+676852411+674108376+665037372+661833332+668201449+674896713+677422892
3844+675659965+673050699+671610047+668865024+665807340+667297305+671514319
3831+674044251+674881570+675778143+676680378+674951885+670212780+668845470
3817+668939091+668370849+671343537+677071716+682306641+683771654+680777766
3804+675117202+669220677+670830664+677502029+682466428+684591921+684906097
3790+684212171+682948292+681366418+681255416+683546819+684718131+682907209
3777+682008990+683308685+684718592+684019729+682429033+682525353+682479267
3763+682152318+681374121+679070274+679327303+682500664+682591848+675849511
3750+671288168+675572731+679824178+680168244+682504351+685915120+685395005
3736+679458056+674072956+674993099+678788293+680623575+680730824+682293078
3723+684058310+683955669+684257270+686458476+688192632+685471047+680795410
3709+681882978+685753358+688238784+688118697+687013419+689048847+693047478
3696+695269686+694120429+689358875+684821957+686930925+690960763+692615585
3682+692400099+690226150+686553413+681484332+678692960+679415328+677590316
3669+677000809+681912604+685938953+686205595+684644723+682607847+678969477
3655+674979931+673339133+671402264+666808989+665643273+668513058+670847979
3642+671601093+670998549+668992024+666347140+665009589+665128030+662211962
3628+656023317+655768066+658923781+660220251+657005149+650524516+647358726
3615+648040933+649336415+649376180+647274389+644829782+644527523+645565449
3601+646182937+644800485+641701125+638869724+637424397+636844765+634671079
3588+630014337+628458732+631031063+633198034+632957991+630794378+628627473
3574+628144754+628444972+627501786+623832144+619003567+618471667+621025893
3561+622053153+620915549+620231170+621382007+623465891+624535419+623073500
3547+619706644+617300157+617606235+618993033+618780049+617162952+616898747
3534+617592738+616667723+614520833+613807815+615243793+616404308+615517874
3520+613866476+613024350+613328255+614007368+613906571+613733155+614521294
3507+615174730+614618470+613703726+613777398+614105795+613811963+613397714
3493+613156025+613269594+613910916+614731052+615139968+614373621+612713269
3480+612092554+612704578+612931783+613479418+615478108+617141160+617098497
3466+616019226+614295604+612696480+612914863+614741059+615900323+615451905
3453+614835141+615338731+616394498+616972155+616825865+616075187+616250907
3439+618860107+621979942+623154414+622420525+620895864+619869921+620586758
3426+623473330+625965933+625234875+623440938+624066459+626970347+629052124
3412+628337131+626740114+626622397+627959685+629245357+630380524+632596083
3399+634778986+635701894+636693339+638443032+640419272+641566817+641648851
3385+642415329+643597834+644332052+645991021+648445504+651674167+656451062
3372+660544302+662078444+663642213+666831901+668930466+669840865+671737968
3358+674023907+676824233+681117223+685884572+690196721+694448365+698111292
3345+699979559+701444703+704375914+707312720+708934229+711202391+715160467
3331+718978638+721009720+721916630+723786411+726373160+727599776+727145959
3318+726332473+726450651+727656264+730621974+735659058+739604164+740688702
3304+740694298+739362211+735858282+732116416+730445727+730733173+731051497
3291+730761351+729661538+727257224+725603851+724982610+722188670+718734974
3277+718695472+720886210+722000243+721094716+719581840+718674930+717559185
3264+716371216+715096407+712550608+710611238+711205485+711885585+710354472
3250+709157022+710492138+711399508+709808944+708452892+709537562+711905337
3237+712510513+710047999+706876153+705172085+705350570+707024879+709225164
3223+711572265+712132739+709655016+707444066+706622547+704433456+700840119
3210+698726476+698434751+697935441+698129332+700498028+703064631+704415416
3196+705488499+706604969+707429977+706891822+705329765+706389747+709605177
3183+710090267+707834416+706908742+708738626+710101459+709006715+707811833
3169+707423393+706680287+706571589+708391334+709633487+708059645+706558290
3156+708461253+712226162+713520590+712351450+712161378+713377921+714722912
3142+715062962+713616713+711847992+711142742+710515773+710663776+714512956
3129+720230799+722500805+721347795+720205517+719631811+718918595+718069029
3115+717632001+718471032+720428113+722363666+722900306+721233370+719073444
3102+718834059+719899110+720224544+720606335+722745193+724889779+725029420
3088+724626364+724738221+723910185+722446291+722759085+724744278+726241025
3075+725959438+724379605+723993469+725644933+727074196+727224832+726768579
3061+725727888+724305736+724474938+727913228+732059466+732745887+730410965
3047+729123450+730771622+732614146+731584845+729234583+728224572+728259664
3034+728919947+730849968+733141174+733959862+733677156+733611845+733511180
3020+733672877+734521520+735056119+735384845+735809233+736124923+736678615
3007+736708374+735803439+735644705+737480316+739872187+740661380+741246674
2993+743506541+744651189+743397646+742835000+743848895+746432089+749698346
2980+749908828+747768258+747279614+748824750+750375615+750941882+751186402
2966+750867354+750625929+752273113+754237963+754492359+753419342+752136040
2953+752222353+753342641+753848338+754205966+754718378+754229470+752889285
2939+751936553+751974739+752808503+754167320+755321054+756042697+757834329
2926+760233178+761219554+760781274+759181558+756863952+754900748+753902917
2912+753896465+754037686+754336390+755716736+757293606+757387096+755549575
2899+752957493+752244606+754015762+755505925+755436006+755928601+758253383
2885+760400274+760428649+759555712+759525756+760289008+761911241+764122849
2872+764970373+764059382+762729270+761959697+762739277+764008753+763549077
2858+762387772+763148390+764884587+764842254+763290533+760737624+757990495
2845+758638269+762730784+765747912+765610378+764018365+762828618+762897023
2831+764135292+765278229+765763121+766095599+766606431+767933976+769213788
2818+768543827+767079934+766925677+768041225+769626983+770373250+769946755
2804+770623695+773003584+774298933+773892585+774261077+775546156+775661832
2791+774791660+774419943+774919516+776582304+778722216+779182287+777986154
2777+777480523+777937171+778161084+778852574+780244836+781106055+781437480
2764+780763174+778921637+778807212+781044694+781923886+780427074+779761063
2750+781168403+783271314+785707822+787213127+786041618+784498785+784774512
2737+785405826+785502344+785725137+786162824+786409056+786427688+786920678
2723+788243943+788598740+787353558+787858004+790310775+790847547+789764259
2710+789567669+790269363+791282995+791955721+791600792+790934123+790850773
2696+790905615+791015300+791887579+793166799+793851771+794047308+794457080
2683+795111042+795902670+797094195+798409888+798867590+798494753+797776665
2669+796240745+794693436+794686523+796444314+799372891+801599050+801317068
2656+799158393+797767908+798967860+801506219+803385151+803992632+803344529
2642+802019158+801213572+801608793+802288762+802402002+802334650+802115280
2629+801862662+802290934+803481603+805257302+806850434+806998832+806121878
2615+805480556+805671485+806644166+807721397+808445410+808331248+807533694
2602+807940174+810214064+812014058+811588222+810754721+811657548+813596327
2588+814608247+813764541+812252916+811555896+811340147+810869673+809964409
2575+809382605+810878627+813857043+815302172+814859021+814236858+813924328
2561+814435095+815805433+816537808+816391583+816329762+815984445+815264053
2548+815249108+815805631+815755594+815119276+815073585+815240088+814376631
2534+814031775+815788315+817636567+817583239+816894383+817714453+820000918
2521+821442756+820603594+819319831+818965955+818463155+818437018+819882082
2507+820913622+820890315+821339721+821860824+821536443+821158010+821232340
2494+822030750+823583721+824106536+823062289+822900659+824257698+824772941
2480+823926010+823956361+826066316+828723117+829318945+827730618+825892176
2467+824726987+825376801+827815614+828909041+827583801+826200295+825791182
2453+825297072+824821924+825803098+827663267+828625414+828619423+828349490
2440+827912725+827515330+827435404+827183049+827163101+828294713+829519485
2426+829841759+829824510+830270887+831351673+831911093+831553003+831731949
2413+832316519+831487298+829922015+830155408+832166147+833718065+833744597
2399+833214014+833229815+833674217+834760928+836201252+836165437+835068586
2386+834488559+833822285+832412905+830653468+829062508+827547722+824995274
2372+819786223+813095304+810337510+811750906+811020440+807505121+804481475
2359+803713614+806626324+811337447+815052846+818586864+822127992+822911522
2345+819467373+815545902+814656111+815135143+815849018+817075962+818125212
2332+819044894+819741322+819807620+820865560+823663845+826870651+829530546
2318+831235733+833112822+835995971+837634400+837140356+836631763+837356105
2305+839034892+840437754+840810393+840959120+842073022+844228734+846126694
2291+847554179+849032623+849295116+848089239+847186412+846865257+846748330
2278+847608758+848961584+849360163+848821548+848142502+848161660+848698564
2264+848871255+848949865+848851372+848192209+848019978+849039404+850582697
2251+851996554+853274392+853919334+852842828+851342460+851842692+853135080
2237+853345167+853420024+853458473+852635967+851743212+851799635+852744335
2224+853647031+853631427+853219022+853736636+854971876+855562108+855299614
2210+854796222+854997289+856635454+858394036+858487261+857312986+856067278
2197+855276045+855309292+856342149+858104812+859724148+859907110+859222533
2183+859527096+860167036+860000665+859713745+859339855+859127332+859585363
2170+859496680+858387979+857475144+857827242+859503263+861005474+861339862
2156+861324917+861334134+861333278+861926605+862798686+862911597+862600911
2143+862660164+862738116+862545673+862450143+862505842+862251183+861333147
2129+860630925+861278238+862675570+863576357+863585113+863224785+863455545
2116+864440933+865326380+865724761+866239412+866586243+865643057+864036955
2102+863487476+864249412+865221303+866051183+866936037+866510596+864378124
2089+863344346+864494985+865564842+865470234+865078041+865446599+866933338
2075+868246134+867919515+866807325+867239613+868937558+869367279+868854867
2062+869269049+870573353+872101965+873222780+873522406+873066614+872313039
2048+871938227+872040473+871726955+870632804+870541224+872033757+872701941
2035+871580138+870210984+870072463+871133168+871927891+871714907+871296708
2021+871414228+871918805+872301386+872999328+874863381+876641055+876648890
2008+875787210+874831384+873433854+873256159+875583312+877820663+877947268
1994+877347161+876622226+875981036+876597602+877779910+878717236+879694723
1981+879813099+878734946+877643231+877054645+877116137+877479428+876984529
1967+876042462+876410690+878219966+880098043+880602225+880003500+880150186
1954+881033196+881487672+882018913+882914499+883018456+881735747+880046031
1940+879802235+881954327+884935574+885711664+884188254+883107995+883431322
1927+883899228+883655366+883414336+883831942+884155665+884204121+884805743
1913+885781452+885996411+884819568+884097991+885645761+887529500+887510473
1900+885811935+883778021+883422895+885346728+886942033+886705479+886963759
1886+887900164+886969685+885379976+885505001+887077658+889006429+890324690
1873+889914194+887202749+884784411+886465634+889659601+890767578+890530564
1859+890642553+890605618+890063382+889762637+889610289+889933682+891047716
1846+890979640+889409551+890212833+893047723+894949632+895611495+896290542
1832+895982357+892930006+890505875+891120598+892049234+893440904+895774838
1819+897097576+897226749+897313588+896599516+894793861+893760544+893983930
1805+894778587+895406017+894860423+894696488+896298640+897063011+895072024
1792+892784308+894135554+897084014+898560745+898170198+896652318+895789849
1778+897222206+898749962+897078351+892657505+891659806+894895053+897930945
1765+899502680+899824362+900000674+900320051+900036029+900691308+901201876
1751+898181127+894429649+895560076+898461989+899575628+899018644+897425051
1738+895841334+892748558+888540564+891360114+897864318+901903703+902674856
1724+901896790+902769859+903309396+897597018+889792593+891628796+897276719
1711+900516510+900700262+898020550+894556386+893049961+891291051+887519361
1697+884800081+887028675+894434653+900235450+901020034+898862149+893943177
1684+886940387+887492894+891861861+894489890+893646316+890698844+888540827
1670+885901408+885850845+889593171+890854417+889175763+890302832+893863843
1657+895295937+889615819+876722562+875688915+877825008+875291982+877075252
1643+882073624+882821076+879592083+872763038+866351796+870808524+878324582
1630+881565557+881773867+881812711+881382859+882726994+887033020+889730442
1616+890148180+893469280+897756476+898958995+898324653+900070264+904010300
1603+907259571+909650850+911910058+912813281+912570144+913916188+917303981
1589+920258893+921672750+922835240+924630230+926819980+927905704+925102810
1576+920375359+920852614+922217422+919964929+918654239+921279503+924781260
1562+926554985+921342839+909833877+913210478+922149347+926933813+926752233
1549+926268000+927324031+926309806+921517835+913928895+914345514+923855917
1535+930549007+933327805+935849638+936858333+933791497+929975893+927916501
1522+926297166+928427135+932567120+935659698+939270876+941773288+940062044
1508+932524984+926134152+932500295+940812261+945680472+945975818+943833207
1495+944243111+944661639+940454698+936191861+940552466+947837962+951529857
1481+951155374+948785230+945697524+940596182+933829090+933750151+940712714
1468+944927885+943319544+940443176+939709222+936864324+929413182+926749402
1454+933044704+938627580+940823321+940880863+942134209+945335747+948343856
1441+950036929+948489554+942819115+940443835+943595864+947569345+951909278
1427+954726590+953568511+951985057+952349005+951047203+948962530+949505556
1414+950780365+950973202+949267291+946594426+943754795+941981269+942101751
1400+941286289+938261919+934408525+930905714+929471843+928067137+924422710
1387+920910222+919250001+918976842+920756689+923237901+924396639+923618046
1373+921820423+920946037+919972303+919183703+920530735+922012537+921338625
1360+920030832+919723108+921446664+924946051+927465054+926962386+924409082
1346+923049343+924025711+924003524+921221172+919160199+920491365+923593884
1333+925979303+926732811+927453335+928991691+929485668+928742957+929043834
1319+931519318+935650744+939224659+941348901+943838079+945494086+945058506
1306+945942636+948621426+950293432+952248143+956160264+960453847+965036851
1292+969795640+971840153+971871624+973827190+977239474+979306109+979863751
1279+979315853+978004109+978623968+982334298+984793850+983133102+981305194
1265+981934731+982217173+981787255+985208625+991746801+993926807+990598663
1252+987786486+987775755+989231550+991532895+993846156+995565565+997041901
1238+997686383+997713047+998635824+999356348+998940650+999204263+1000154625
1225+1001083985+1003367291+1006091443+1005831385+1002962128+1000919985
1213+1001288147+1003550055+1006365655+1008240637+1007926001+1005983074
1202+1004509437+1003873053+1003645651+1005277825+1009283303+1012502618
1190+1012929376+1012492611+1012983428+1015395051+1018952572+1020670927
1178+1020417782+1020161346+1019905172+1019235672+1019066339+1019812473
1167+1019819979+1018939536+1020096627+1023559080+1027229183+1029507484
1155+1027946415+1024384943+1023246681+1024395806+1027039308+1029956824
1144+1029917651+1025957863+1020816098+1018668484+1020680012+1024947589
1132+1028204431+1027267895+1023627945+1021024012+1021398693+1024903215
1121+1028735278+1029951031+1028626383+1025781485+1024485082+1028491219
1109+1034242638+1034949402+1031624484+1030437371+1034860522+1040464663
1097+1041295465+1040573031+1042341883+1042713535+1038832226+1035084895
1086+1035221442+1039081223+1044354860+1047793414+1050235189+1051731080
1074+1048388517+1043409502+1041534520+1041279137+1043326678+1048012389
1063+1052300112+1056731953+1059790493+1058865939+1059706616+1063411679
1051+1062935675+1060251750+1060598910+1059951005+1056405071+1056349833
1040+1061718013+1066686692+1068551865+1070130973+1071386492+1069040246
1028+1064583387+1061092295+1057055478+1053543911+1053671438+1055996748
1016+1058782128+1061431160+1062201391+1061233780+1061840603+1064399898
1005+1063456449+1057603837+1052940117+1050820812+1048303258+1048642650
993+1052495386+1053659653+1053045457+1054438312+1056194260+1056329687
982+1054112022+1052468129+1053523633+1052509672+1049432632+1050155724
970+1053316048+1054356871+1052944725+1051307087+1052429153+1056738010
959+1061909798+1066016534+1067733967+1066016732+1063375140+1063420501
947+1064208180+1063356310+1061878327+1061037189+1062392583+1065286595
935+1066840884+1065550471+1063752585+1065419389+1069562665+1072819442
924+1073741823+1069420523+1060701946+1055879689+1058293615+1063602015
912+1068513547+1071286353+1071575774+1069184891+1063341233+1058878975
901+1060742501+1064699524+1064984863+1064200279+1065032068+1066011267
889+1067651012+1067567794+1064235963+1062965960+1064188297+1062999932
878+1059212441+1055031309+1049591300+1045668908+1048223529+1051804949
866+1051359560+1050975399+1051130380+1050608421+1050310244+1049160855
854+1045038055+1038892335+1035320593+1033452261+1028293839+1022939155
843+1023003807+1025445451+1023204348+1015226244+1006189870+1000703511
831+1000769020+1004455845+1006016915+1002597389+999702915+1001947311+1005258534
818+1005278812+1003518980+1000633065+996063427+991095998+986071621+981265955
804+978770325+980066135+982693046+982143172+977807453+972306084+969213111
791+969513856+968309033+963924726+961677566+962784818+962287219+958342180
777+953899936+950551448+947253787+943723391+943327972+947343984+949535710
764+945473018+938827396+933914745+929644731+922951904+916473574+914688197
750+915375210+913897820+913158795+917107851+919315180+913995983+907967652
737+906811680+906118083+903154415+901150062+901671428+905447135+911421018
723+914383568+913042790+910523853+907555905+904406246+901768078+899554297
710+899015089+898928184+897808619+898992836+900637848+898878213+896863393
696+896318654+894960693+890072665+883137358+880252497+882065855+883024776
683+882187062+883541863+885393999+882765575+877555470+873433328+869627468
669+867149350+872913410+880438553+876731055+866055528+861515911+867912668
656+875311404+871706546+863056110+863444156+870714706+870900038+860532433
642+848979294+843849050+847871647+858815592+870502841+878658443+876931859
629+865785266+857979655+848121829+826249146+818454662+843011929+866878166
615+856383890+835693054+830076206+836374668+841921135+852510547+867229737
602+862367649+843933586
##END=
