##TITLE=Sample description
##JCAMP-DX=4.24
##DATA TYPE=INFRARED SPECTRUM
##DATE=25/8/2023
##SAMPLING PROCEDURE=Instrument type and / or accessory
##ORIGIN=Default
##XUNITS=1/CM
##YUNITS=ABSORBANCE
##RESOLUTION=4
##FIRSTX=4397.6552
##LASTX=599.8556
##DELTAX=-1.9287962
##MAXY=1.9254524
##MINY=0.60815829
##XFACTOR=1
##YFACTOR=1.7932172e-009
##NPOINTS=1970
##FIRSTY=0.72432029
##XYDATA=(X++(Y..Y))
4398+403922222+404230812+404834664+405342355+405457728+405120984+404618079
4384+404196277+404006715+403914410+403717802+403659468+403421045+402985581
4371+402850797+402268484+401317585+401779739+403459270+404234269+404040286
4357+404315704+404622001+403996444+403501383+403938376+403966562+402934460
4344+402213740+402562084+402878785+402410681+402041795+402426934+403378100
4330+404163702+403746022+403060568+403593422+404031378+403463125+403390465
4317+403894866+403828587+403469075+403553469+404129765+404910449+405673548
4303+405848584+404975630+404057072+404208276+404772507+404526838+403759284
4290+403392193+403190400+402873965+403164640+404150839+404800926+405053110
4276+405485449+405740458+405540061+405060157+404506462+403952037+403203795
4263+402579368+402643952+403133461+403520396+404296293+405692062+406038246
4249+404599232+403396049+403836598+404882594+404923578+404051288+403979226
4236+404840613+404780085+403728771+403196582+403251526+403207418+402983720
4222+402730905+402965638+403895497+404508723+404118664+403417256+403313051
4209+403860962+404587732+405194276+405186099+404413825+403652920+402862132
4195+401570699+400898774+401669053+402836305+403582619+404114908+404286487
4182+403535387+402348956+401908739+402580365+403658537+403848365+403201468
4168+402975842+403065754+402816595+402844017+403958319+405372669+405715529
4155+405047991+403895364+402341976+401091693+401005870+401544108+401755641
4141+401880420+402390870+402835707+402572820+401960625+401957767+402766769
4128+403349515+402838433+402011979+401982297+402594858+403127445+403488254
4114+403653418+403409544+403044979+402549619+401921669+401705749+402039967
4101+402567236+402692813+402383491+402163582+402037806+401813344+401871744
4087+402568167+403102184+402902251+402685367+402709798+402507306+401909072
4074+401505684+402175482+403375740+403373646+401856388+400419635+400278402
4060+400952089+401242066+400924235+400980110+401741547+402173853+402007758
4047+402117380+402504847+402614568+402668648+402831220+402597251+401978009
4033+401625145+401654096+401782132+401840034+401952748+402501888+403224869
4020+403505738+403272733+402480283+401433622+400923703+400802082+400641471
4006+400574894+400337302+400036922+400430504+401353416+402151350+402642921
3993+402772453+402770825+402776907+402455321+402124427+402394626+402729642
3979+402315218+401609888+401352153+401202777+400906618+401012883+401774753
3966+402642821+402988938+402729076+401990972+401145972+400552391+400184170
3952+400409198+401344076+402125258+402290522+401886735+401237845+401281454
3939+401999050+402817326+403524484+403485229+402836272+402475397+401934998
3925+401250509+401451106+402134698+402179969+401509373+401295315+402230924
3912+403396348+403789199+403241654+401484245+399235531+398665483+399457534
3898+400723405+402187215+402402304+400546142+399294497+400367283+401158902
3885+400294058+399226257+398803989+399545451+400094824+399158782+397993790
3871+397465358+397652659+398328141+398266483+398470935+399777026+400399060
3858+399456503+396338158+391822415+392820182+397254091+400492096+401890957
3844+401511833+399784339+397111762+395235490+396304587+398180028+399256804
3831+400091400+400771203+401093953+400719816+398480508+395255566+395216909
3817+397087863+399122817+401277964+402062037+400449782+397773050+397210082
3804+397607221+396569701+396471480+397912255+399658962+401754743+403407118
3790+404171081+404138275+403200970+402363747+402355404+402133102+402259776
3777+403632777+404263918+402876292+400828839+400217343+400734640+401654894
3763+402574615+402091254+401028905+401702957+402410514+400802979+398463423
3750+400056400+403464056+406121177+409463818+412761088+414640684+415103469
3736+414384511+414329999+417279756+421369077+423250534+422017402+419692936
3723+418267252+417496374+416789182+416049682+415179188+414248331+415527997
3709+420402023+426056698+430905495+435511249+442559135+452384832+461459728
3696+468188653+472892495+475302518+476111820+478260119+480426002+479715054
3682+475830519+469535196+461605116+451871989+444268780+441059893+437421658
3669+434472798+434390698+434345061+432877329+430555622+428029529+424881037
3655+422463934+421333112+418218124+412532238+411307948+414237794+416891259
3642+418326716+418984681+419246338+418740242+417161193+414771944+410484320
3628+405912237+405507586+406006370+404314873+399743089+394429080+391379507
3615+389150802+386861869+385483949+384993508+385522007+386656918+386848540
3601+385501864+383711681+382492045+381542575+380428538+379035561+376611311
3588+372854779+370080657+369159972+368505962+367139908+365475800+364484948
3574+364106024+363744882+363048394+360827534+357363936+356055452+356037470
3561+355091489+353972500+353639679+353312009+352537243+351926743+351963472
3547+352273691+351810507+350794691+350183228+349684245+348859587+347923844
3534+347100249+346046176+344973688+345018494+345878253+345766769+344303724
3520+343051879+343032301+343606138+343739626+343481027+343335441+343039847
3507+342661189+342662418+342776661+342531823+341836663+341002266+340637535
3493+340980129+341384946+341023473+339961921+339143678+339414907+340398348
3480+340763046+340517509+340681643+341051892+341187241+341467279+341652021
3466+341187042+340637170+340970058+341807413+342006614+341586009+341232812
3453+341054684+340807486+340681510+341039195+341447867+341494701+341787702
3439+342559843+342992348+342925804+342930856+342863780+342509087+342330594
3426+342617346+343167684+343766018+344347600+344913891+345720966+346998538
3412+348030175+348232102+348501271+349157973+349417868+349620293+350546696
3399+351897460+353151066+354149564+354796627+355585420+357399502+359780574
3385+361466951+362595845+364072020+365989608+368008641+369900136+371776807
3372+374103932+376787976+379183008+381407093+384270993+388017653+391865061
3358+395094557+398065620+401201647+404420074+407833880+411515857+415456666
3345+419746916+423992394+427652799+430836657+434169426+437729051+440336713
3331+441701205+443474868+446351565+449210746+451332089+452560932+452886209
3318+453405102+454991862+456797501+457697180+458114661+459672238+462184005
3304+463804703+464187050+463493453+461437259+459010650+457084021+454823008
3291+452097149+449767532+447767611+445945818+444156997+441901835+439468545
3277+437432261+435633702+433732268+432136466+431478701+431089240+429742398
3264+427747630+426237053+425318760+424410240+423621580+423135361+422321705
3250+421394305+420819703+420094795+419397143+418987573+418513552+418060505
3237+417679354+417092720+416082988+414941895+414147218+413401835+412665293
3223+412476463+412321204+411720809+411216175+410732781+409886119+409048863
3210+408676155+408620513+408623504+408686559+408601068+408361249+408618984
3196+409379923+409591755+409050724+408354767+407811410+407620852+407401508
3183+406793601+406207233+406163789+406829798+407673469+408004695+408102284
3169+408779162+409480172+408865783+407274402+406789911+408374977+410065376
3156+410151731+409647696+410127334+411159669+411053869+410030010+410110448
3142+411779243+412582894+411175557+409911480+410873415+412880449+413027432
3129+411134440+410512174+413159590+416119983+415573102+413215198+413284701
3115+416254900+417661439+415244968+413190336+414888181+418075596+417893513
3102+414565564+413255683+416053671+419375305+418337120+414487485+413435971
3088+416951455+420499446+419095732+415804246+415857595+418875192+420232371
3075+417780301+415317096+416079066+418682340+418948018+416070822+414076286
3061+415117995+417803535+418737749+416883016+414998268+414745951+415489307
3047+415364761+413881473+412910364+413635039+415143755+415832765+415257831
3034+414272396+413857940+414003626+414130000+414373708+414990856+417357203
3020+426543782+443210352+454606124+450845969+439997376+431732015+427245821
3007+424454947+422392271+421283519+421119419+421124438+420659658+420197371
2993+420614918+422435116+424599968+425174204+424561843+424708560+426520016
2980+428747856+428821613+426941785+425898215+426791046+428545996+429111723
2966+427786552+426249052+426091366+428330940+431237187+430956849+428410314
2953+427148165+428413505+431066106+431823455+429934818+428199945+428599743
2939+430893130+432034556+430481233+429047173+429401699+431155984+432919908
2926+432399353+430230977+428736355+428883870+430079906+429631380+427013481
2912+425318993+426135973+428534196+430243409+429782152+428692114+428776674
2899+430100215+431574130+431569044+430290974+429534156+429960213+431125338
2885+431851675+431214052+430296757+430458498+431336106+431802382+431265905
2872+430303139+429873559+430058766+430542061+431022397+431188957+431260454
2858+431577952+431978515+432008031+431458791+430701342+430132291+430059265
2845+430813324+431869491+432284313+432157340+432129918+432386855+432866327
2831+433278889+433436209+433747990+434460965+435231610+435710351+435853511
2818+435832171+435919689+436284454+436801286+437226312+437464602+437720276
2804+438232056+438864294+439290484+439410909+439379199+439279116+439281775
2791+439598110+440023801+440431676+440907326+441357414+441754553+442194969
2777+442643695+442815175+442619065+442536100+442808826+442955376+442609858
2764+442153819+442375025+443423746+444382989+444700055+444854949+445069772
2750+445132860+445277881+445826988+446414287+446549603+446331456+446192517
2737+446430574+446778819+446973499+447339826+447865965+448126060+448203805
2723+448460344+448851699+449182293+449562613+449910160+449954102+449991163
2710+450335618+450730863+450963535+451107161+451461953+452256796+452977017
2696+453098738+452948498+452950958+453292721+453729913+453598120+453225279
2683+453490858+453982462+454128315+454431819+455023705+455505238+455881270
2669+456162405+456384674+456615020+456634165+456425358+456339568+456661587
2656+457161368+457519651+457908014+458316388+458503490+458581435+458676665
2642+458588914+458250409+458121575+458496510+459060708+459515051+459848570
2629+460051295+460082805+460161083+460475889+460809242+461049194+461421537
2615+462032369+462619801+462819301+462639644+462525003+462832663+463350924
2602+463639339+463689064+463918878+464464030+464844284+464790237+464727216
2588+465109796+465678282+465789865+465537482+465412703+465486892+465778398
2575+466197873+466529664+466823962+467080068+467224824+467322779+467341692
2561+467324939+467343387+467325538+467461717+467835689+468218601+468538227
2548+468641268+468525929+468516156+468713828+469122435+469613208+469938185
2534+470188640+470453754+470608880+470623239+470602764+470734291+470888187
2521+470792692+470750312+471044842+471436131+471757552+472083061+472524806
2507+473030969+473317854+473301268+473323405+473618068+474058318+474574785
2494+474953709+474806792+474476630+474575449+474837073+474887463+474987247
2480+475289655+475684001+476159219+476626625+476892935+476971013+476992519
2467+476905865+476831410+477016750+477165195+477028184+477010401+477326836
2453+477661519+477867634+478094589+478262080+478248519+478299308+478491363
2440+478697976+479035584+479303589+479190976+479038376+479191242+479604368
2426+480102786+480389572+480383722+480411476+480724488+481145991+481416589
2413+481645539+481974239+482259728+482545649+482864776+483024689+483306190
2399+483903061+484617300+486107534+489619927+496082408+506604062+522252691
2386+542617991+565785368+589767930+613519348+636824168+659679131+682689720
2372+706792274+731297219+753834020+772949138+788969045+800973222+807353304
2359+807613366+797851022+777522816+754739582+735263290+724465620+728526621
2345+743148897+749495607+742068830+732330485+724521993+719995447+720906659
2332+724560417+725474355+723254127+721442272+721800322+721696683+716946638
2318+706746737+695213555+690202718+693959516+697677824+692599645+678277117
2305+659935736+645401942+637433304+631421177+623883582+614987778+604274335
2291+591956847+580165797+569957387+560986728+553352707+547209685+542132204
2278+537757793+533891871+530264107+527016762+524583871+522644844+520676998
2264+518911678+517582619+516454290+515114029+513541528+512224369+511291651
2251+510461242+509549997+508685718+508258930+508252581+508150006+507727206
2237+507390828+507483531+507690743+507649826+507458636+507352603+507424765
2224+507676384+508107293+508638086+509044499+509049917+508812358+508894558
2210+509378118+509984895+510629298+511242391+511712289+512027694+512366365
2197+512774274+513067208+513249591+513341662+513375234+513549904+513961270
2183+514609130+515212815+515447183+515582931+515991006+516548223+516842820
2170+516758925+516627731+516592398+516517810+516402072+516271974+516053794
2156+515880918+516015303+516292715+516354673+516218759+515998252+515725692
2143+515745569+516385884+517329438+517978329+518251054+518537840+518897518
2129+519228279+519712936+520258753+520603873+520802509+521049208+521493314
2116+521994856+522173715+522014700+521970658+522384117+523064518+523468937
2102+523453115+523444905+523725541+524151665+524614317+525095252+525310773
2089+525306452+525531114+525932208+526221586+526452497+526790803+527025271
2075+527161949+527660666+528313080+528760111+529155654+529644832+530320380
2062+531158567+531989573+532729638+533523783+534381182+535208399+536162257
2048+537135028+537799907+538306435+539064150+539860655+540189720+540214982
2035+540384966+540834090+541313363+541550788+541629099+541921469+542475396
2021+542683970+542347360+542018194+542127949+542267486+541916649+541689927
2008+542016965+542414236+542647806+542602768+542361254+542109236+541787317
1994+541666327+541875666+542083642+542304116+542614933+542751246+542718539
1981+542957128+543634106+544316268+544742392+545125205+545388291+545330854
1967+545286413+545634990+546127093+546423883+546690426+547142210+547648871
1954+548063461+548330270+548448467+548705438+549253714+549747678+550240977
1940+551011589+551723932+552241961+552734463+553184684+553477685+553631316
1927+553763640+553854449+554062126+554431610+554636495+555053311+555923739
1913+556478530+556529020+556716255+557353479+558123193+558704808+559149014
1900+559737941+560224626+560094595+559727504+559469370+559165766+559432276
1886+560389890+561168146+561506918+561773560+562263901+562787016+563021949
1873+562871310+562057288+560962131+561450411+563459639+565126572+565844799
1859+565953025+565823726+565865075+566153123+566416974+566472018+566053407
1846+565126240+564938373+566196268+567206333+567389080+567635780+567921435
1832+566961362+564968288+564570950+566054603+567771860+569315078+570391620
1819+570746546+570631473+570379189+569971148+569660696+570066012+570822995
1805+571295387+571350232+570890670+570695890+571368181+571646191+570651017
1792+569849360+571058660+572999747+574339942+574785343+574451292+574163110
1778+574529204+574413134+572541515+570265578+571167550+574183187+576544880
1765+577379310+576918486+576927859+577850905+578199581+578288196+578173123
1751+576593076+574644743+575100980+576842435+577904752+578073273+577991505
1738+577743410+576082992+573796618+575104770+578119542+580405583+581827944
1724+582357773+582072383+580394415+577195034+576163031+579472832+582991905
1711+584714347+584120700+581706755+579944825+579740206+578175782+574784812
1697+573901985+576853936+580823663+582600749+582016342+579978795+576324838
1684+573751679+577070720+580858032+582049648+581097751+579822040+578995122
1670+578342376+579513915+581261951+581039649+580118000+581131921+582252405
1657+580708855+575170383+569504274+571874543+573619055+573300693+576589221
1643+581435126+583820752+583202707+579928471+578435710+583271046+587681056
1630+589178603+589853154+591144354+593021424+596280369+599410680+600514811
1616+602274281+607173701+611565762+613905983+615123592+616149811+617005847
1603+617935740+619621087+621667010+623247987+624716218+626472231+628170874
1589+629672078+631155066+632725141+634154416+635213807+635371493+633975324
1576+633817905+637289380+639859814+640102325+640983822+643380948+645287733
1562+645265330+641425833+637984273+644678729+652142268+657051859+660010058
1549+662527243+664725268+665163756+662427327+658679703+664575494+674499046
1535+680076807+683555395+687775611+691475836+693823968+696196298+698426232
1522+700368849+704122722+709645904+717154448+725276184+730968486+732640737
1508+730298057+733736226+747305094+757494758+762343588+763581207+766111954
1495+772581781+778537069+782369985+787106600+794575723+801984218+807766199
1481+812944493+818257871+821422285+820830034+820364090+826730943+836944539
1468+844651785+848645178+851782669+856700237+860167857+859820177+863535759
1454+873504251+881807804+887013887+889572421+893176586+899561987+905116214
1441+907728795+907246099+904513991+905168798+909481351+912416749+914740084
1427+918203582+920112162+919699866+918142489+913931780+909137594+908217873
1414+908405407+907538934+905712986+901849358+895252491+890509560+890567130
1400+889182528+883162291+877479895+875064620+875140006+874606787+870873322
1387+866776756+867351789+870305867+871342523+869996080+867762756+866263015
1373+867264238+869626796+870299552+869696930+869226998+867850241+866972732
1360+869017326+871336274+870958481+869210843+868792232+869006224+868753675
1346+869240360+870928765+871394974+869474229+868664129+870641846+872744608
1333+873448410+873669449+874247341+874589170+875664583+878120874+879846773
1319+880419813+881542425+883018167+884316813+886624194+891109456+897905358
1306+904613840+908573396+910894605+913112041+915719237+919260514+922561540
1292+924811019+927440551+929834752+930478391+931149818+932496460+933415783
1279+934521709+936055354+937496461+938933447+940181636+941483340+944158011
1265+947105640+947731795+946760487+945432658+944114800+944100840+945987615
1252+949061087+951868980+953371779+954127300+955970001+959013226+960788850
1238+960175458+958591357+957614531+956969363+955370437+953438191+953136182
1225+954443137+955616737+956646280+957845940+957517540+955725562+954605011
1211+954101241+953837257+954579948+954663710+953534451+954424124+956576878
1198+955639938+952871400+953120293+955901462+956153879+953216952+951549355
1184+952144930+952676155+953077282+953773505+954541657+955406468+955834519
1171+956554474+958263156+959280998+958641681+957606886+957549183+958671729
1157+960261880+961157603+960734803+960529985+962657876+966152751+968169623
1144+969182015+971623482+973380758+972022881+971504620+974089878+976123370
1130+976226610+977194794+979118531+979451585+979610534+980850214+981149431
1117+981410024+982211947+982487099+983566433+985189558+985957311+986653401
1103+987616997+988521296+988966233+988604792+989542131+993202868+996989449
1090+998068318+997788114+1000813057+1008329379+1016850514+1022807398+1024400474
1076+1024081979+1024530970+1023910067+1022761595+1024441292+1028445321
1065+1033055297+1037324972+1040621677+1044438571+1047374832+1046839087
1053+1043781437+1038451307+1033665763+1034122067+1037420700+1036972905
1042+1033275604+1033460014+1038771597+1041988927+1040791793+1040612702
1030+1040446973+1038400384+1040207320+1046322820+1050909196+1050812736
1018+1047367453+1045358425+1046128306+1046470933+1045515512+1046107764
1007+1048177819+1048883548+1048904489+1049834980+1051155962+1051607745
995+1051473526+1052128932+1052321186+1051545057+1050388408+1048201950
984+1046423600+1045059807+1043061016+1044136761+1050157730+1056011240
972+1055951876+1051580290+1050311294+1054125861+1057902337+1057593082
961+1053224421+1049391771+1050289755+1054603106+1059011387+1060146364
949+1057369051+1054360661+1054035185+1057344920+1061633142+1062132125
937+1059824811+1057909849+1056654480+1057339934+1061488021+1067244540
926+1069878527+1066196251+1060181132+1060120970+1067601593+1073741823
914+1072256707+1068061088+1065482411+1063734242+1063112142+1064395631
903+1065689623+1064129852+1059388583+1057159048+1063319221+1071599972
891+1072424165+1068386631+1064494151+1062726371+1064037847+1065194495
880+1062895225+1057927798+1053760100+1054674769+1059666926+1059324698
868+1050236373+1042038387+1039962482+1040894568+1043346871+1045170160
856+1042346977+1036202227+1028921170+1021055640+1016324408+1015068641
845+1013510599+1010753163+1006783569+1003930139+1005485987+1007843359
833+1005849422+999952035+991746471+983714214+979929894+979318098+976711035
820+972313389+970455864+972476260+975449351+974798333+969666573+963774704
806+960387390+959732184+959771273+959639913+959768481+959730389+956926884
793+947198576+936364077+935037577+939550296+941695205+942911484+942514611
779+937531894+931463460+926525882+923262017+924350992+927763900+926772183
766+920071877+914620956+915042426+916688950+914936261+911335885+906537378
752+899988841+895365038+895963605+898857720+900869075+900608415+896471297
739+893496744+894992762+894242825+889091720+884293678+882591512+884777238
725+887928423+889703649+893391044+898208430+898647384+895617588+892741754
712+891695858+892252743+891980583+893041237+895977698+893320910+886280835
698+884128015+888481386+894356768+895949379+891730892+887187261+884960784
685+882536136+880956887+881229447+880545988+877729519+876149606+880284796
671+886943553+884939976+872343813+866283490+867407764+869277122+869776105
658+867169507+863901521+862083151+861363860+863839098+865327338+860089080
644+854284630+852931407+851417838+848415231+836235685+802945954+776655811
631+787089582+812983715+818247900+812385215+813285924+812884996+812068913
617+821571993+833876850+837973351+839891902+847411548+856355284+861456398
604+861130456+843610143+818148050
##END=
