##TITLE=Sample description
##JCAMP-DX=4.24
##DATA TYPE=INFRARED SPECTRUM
##DATE=25/8/2023
##SAMPLING PROCEDURE=Instrument type and / or accessory
##ORIGIN=Default
##XUNITS=1/CM
##YUNITS=ABSORBANCE
##RESOLUTION=4
##FIRSTX=4397.6552
##LASTX=599.8556
##DELTAX=-1.9287962
##MAXY=1.8778086
##MINY=0.78876805
##XFACTOR=1
##YFACTOR=1.7488455e-009
##NPOINTS=1970
##FIRSTY=0.85096985
##XYDATA=(X++(Y..Y))
4398+486589492+488073094+488484433+489095119+490163122+490441744+489506663
4384+488090987+487349323+487836052+489926897+492982578+494203781+492313611
4371+489716303+489115330+490134663+490967498+491204199+490607521+488948088
4357+487580264+487935572+488805113+488642507+488571547+489431341+490625721
4344+491481049+491487423+491414044+492120774+492606072+492106016+491841538
4330+492112083+492048110+492584906+494097785+494796199+494583662+494888766
4317+495166537+494623197+493911491+493296953+492929581+492464664+491241076
4303+490744736+492190472+494268776+495468881+495219262+494191341+493879317
4290+494791325+495990442+496170396+495075162+493242831+491647916+491513189
4276+492312453+492965060+493864117+494837370+494893981+494465567+494997796
4263+496004382+495799786+494913987+494691975+495517278+497123303+497966226
4249+497503218+497740840+499311454+500127758+498917940+496997608+496343807
4236+497035166+497836543+498360081+498828235+498950625+498136706+496956402
4222+496920139+497768038+497714460+496704636+496321040+497056331+498285441
4209+499370007+499702071+499752478+500332763+500475636+499797774+499450066
4195+499378255+499432207+499775791+499938329+500533508+501627106+501735931
4182+500684526+499299797+498321636+498657108+500064911+500947812+500854427
4168+500843554+501112293+501196613+501601476+502331280+502112881+501417261
4155+501703007+502107496+501336282+499714136+498868827+500149571+501807504
4141+501870419+502048193+503555993+504899516+504899823+503774324+503265066
4128+504153557+504402699+503202696+502444092+503454734+505212426+505855013
4114+505184069+504218961+503854349+504065046+504218893+504665098+505847651
4101+506761022+506428175+505835313+506137385+506416212+505398379+503388206
4087+502030538+502480663+504131983+505935890+507270689+507472490+506798070
4074+506749741+507285378+506897454+505993251+505941855+506801955+508038392
4060+509236180+510018198+510180498+509671411+508711619+508333340+508857696
4047+508637729+507208114+506508609+507046018+507505550+507871491+508521645
4033+508579482+507878785+507390454+507495802+507716417+507827968+508434122
4020+509458839+509888924+509938275+510319008+510507176+510450123+510723531
4006+510829901+510415188+509997339+509810671+509612619+509497046+510006235
3993+510933409+511688707+512102295+512152464+512161360+512037368+511865389
3979+512601464+513872904+514423742+513963358+513050669+512469532+512251542
3966+512342916+513056735+513945738+514398487+514536827+514682767+514881739
3952+514747660+513893830+513362658+514438397+515599444+515065136+514283220
3939+514779901+515219120+513948328+512036653+512074416+513584159+514065469
3925+513277043+513118390+513579524+512419295+510549950+511916138+515730081
3912+518269245+518374969+516461214+512780260+509285735+508882542+511234458
3898+514403531+516415374+516164494+514527215+514583451+515806528+514696741
3885+512470759+511899812+512161837+514294433+516792051+516689736+514177190
3871+510346785+508789463+511269052+512929949+513592407+516665981+520179046
3858+520920233+516565506+506975400+505034618+511586426+517180282+518364948
3844+515864979+513398104+512492980+511660214+511486258+513169480+515739488
3831+517575398+518087042+518480487+518881227+515975678+511170792+512412683
3817+515486495+516913520+519721117+522242183+521848055+519206065+517438422
3804+515700464+513197529+514785798+518511945+521655354+525060038+526947242
3790+526630515+525464594+524042886+524039273+525417970+525286378+525175304
3777+527596475+529125406+527152962+523406979+522069215+523471292+524946919
3763+526262836+526211508+523767706+522465660+523107328+521432524+515127438
3750+511894052+514883069+517137100+518275585+521137338+522818923+520575321
3736+515618803+514305715+518757065+524100349+526757267+525730232+523885971
3723+524784244+526900413+528224441+529276663+529376013+526045459+521643903
3709+523234863+528051780+531546169+532621771+532763383+534460340+536528930
3696+537180754+536178666+533296328+530521178+532345194+536319290+538446024
3682+538246029+536181188+532000622+525653853+522703964+523062407+521683233
3669+523348187+528828277+531964051+532064662+531396854+529536541+525302976
3655+522403085+521690663+517173636+508315583+507309474+512437051+515598013
3642+515876294+514941690+513434367+511138312+508790247+506797865+502671080
3628+498271603+499662331+502299413+502137045+497935825+491825042+488734631
3615+487817886+487501568+487384291+485897179+485015538+486446279+486618156
3601+483929643+481720089+481348285+480483277+479287807+478479954+475467899
3588+470638235+469751550+471888373+472883473+472102546+470785982+469950011
3574+469831848+469585944+467525023+462890787+458981038+459796832+462670241
3561+464141061+463666772+462536059+461214791+459716704+458698598+458026632
3547+456990871+455805081+455703413+456618079+456742446+455720523+454963998
3534+455243780+455993862+455847513+454898697+454617075+454554363+454012216
3520+453623474+453228154+452783482+453148742+453913821+453809734+453269734
3507+453364960+453422150+452913710+452765418+453391476+454381362+454737896
3493+453639527+451967280+451023746+451022144+451498853+451726454+451802253
3480+452525581+453087939+452550598+451745165+451649530+452423232+453662055
3466+454528495+454095173+452952837+452914801+453967364+454759095+454520929
3453+453734309+453853018+454767684+455177456+455316750+455697108+456104255
3439+456914800+458255835+459177352+459178340+459122173+459644211+460111616
3426+460034487+459660843+459618275+460243514+460647628+460717190+461848006
3412+463888921+465048093+464998878+465125017+466441581+468755836+470866382
3399+471952482+472495787+473011963+473661367+474915561+477023721+479151239
3385+480489991+481901849+484109052+486117419+487568267+489468968+491816658
3372+494100341+496908244+499950496+501841450+502903862+504806540+508203146
3358+512297893+516151884+519759050+523100818+525970512+529444519+534143034
3345+538603961+542150018+545893650+549890104+552879904+555093412+557185826
3331+558259315+558597616+559975290+563044195+566324069+567167708+566163439
3318+566851186+569399041+571126638+570860591+569071851+567887526+569035690
3304+570675729+570966689+570761548+570038936+568064583+565884953+564713579
3291+564501110+564173818+562944266+561411415+560120787+558867275+557571092
3277+556093591+553930048+551403051+550136110+549914269+548489050+546472947
3264+545861136+545711514+545201678+544900356+544304734+543358746+542854704
3250+542593224+541734214+540183232+539103096+539064618+539398931+539838797
3237+540265711+540604830+540681890+539311987+536844941+535918244+537082631
3223+538377996+538738075+538230045+537016681+535815111+535753388+536770710
3210+537649180+538216582+538879585+538825939+537537629+536469695+537409207
3196+539535396+540294852+539808600+539968411+540631823+540927180+541301881
3183+542064131+542408157+541924530+541241282+541618028+544166122+547247876
3169+547686617+545911203+544671971+544623744+544937915+545299698+545817135
3156+546606242+547973283+549859260+551247840+551506627+551085063+550461323
3142+550065083+550477206+552016327+554024796+554696933+553422017+552444162
3129+553369939+554815539+555569951+556394094+557875719+558851461+558172780
3115+557260500+557807964+558911991+558939052+558048959+557573955+557740958
3102+558266166+559683818+561603060+562361697+561516150+560466484+560452510
3088+561331083+562462308+563648678+564120547+563101010+562172029+562949889
3075+563942672+563345755+562505047+563595067+565795283+566747916+566229150
3061+565872820+566429588+567173638+567568720+567667831+567391219+567006362
3047+567526560+569303576+570732408+570598090+569893063+569412742+569208828
3034+569302997+569175461+569068783+569923397+571351069+572136598+572232642
3020+572645855+573532676+574052022+573838599+573569894+573864774+574395367
3007+574929709+575661251+576264303+576565590+577389700+579108265+581067451
2993+582787038+583714621+583617419+583771062+585228965+587020262+587871160
2980+588223571+588876247+589405476+589340447+589203573+589632396+590636801
2966+591854493+592775123+593116014+593066663+592930334+592896456+592916497
2953+592781531+592355366+592020405+592609688+593974342+595134026+596102508
2939+597325312+598259644+598083779+597070036+596603995+597483250+599126424
2926+600858622+602089743+601561740+599041219+596792470+596515654+596642303
2912+595529721+595019237+597052927+599321102+599066917+598058218+598733319
2899+600490125+602202350+603320795+603454942+603127684+602394506+601330798
2885+601553628+603088694+603904420+603321476+602539833+602839007+604175919
2872+605771106+606542797+606022497+605851404+607105632+608849009+610177263
2858+610692042+610848412+611280234+611405521+610408955+608720450+608095381
2845+609066522+610106986+610698518+611021004+610604178+610214277+610903761
2831+611967265+612921364+614299243+615756465+616649420+616934962+616660190
2818+616676823+617763843+619046086+619758270+620199022+620226424+619539121
2804+618852022+619252352+620643387+621804434+622621590+623974998+625052952
2791+624713152+624357401+625334267+626430149+626788286+627176006+627713347
2777+628346800+629379630+630046347+629820791+629386787+629133624+629374245
2764+629979069+629968844+629918743+631012239+632565982+633656683+634006436
2750+633640596+633250150+633277688+633791717+634857334+635695622+635821658
2737+636162549+636868393+637201786+637556242+638375171+639023756+639136364
2723+639334996+640072809+641058264+642465658+644258181+644979976+644225735
2710+643477561+643605710+644567512+645955956+646774953+646754436+646689543
2696+646812989+647270373+648202865+648695081+648530600+648638982+649381225
2683+650455567+651238505+651167069+650156734+649120360+649408559+650758354
2669+651919878+652599343+652877863+653085901+653810218+654485047+654677476
2656+655090826+655776357+656434145+656841700+656734000+656733114+657435482
2642+658104245+657975209+657694166+657739223+657828246+658144939+658461768
2629+658363406+658219988+658330687+658746287+659475238+660310800+661067699
2615+661949067+663050061+663785488+663852835+663735592+663725435+663923521
2602+664453637+664846606+664990365+665542430+666305668+666613704+666682823
2588+667098354+667988242+668882698+669175805+668860953+668439151+668372213
2575+668852160+669536941+670150013+670937178+671785554+672480764+673358519
2561+674339476+674738102+674609884+674726855+675233181+675581229+675334542
2548+674575189+673967433+674328978+675750755+677179279+677481112+676924003
2534+676603084+676951882+677816959+678907387+679768442+679814181+678938130
2521+678059829+677978168+678966759+680922264+682621129+682840960+681566760
2507+680290174+680878707+682571778+683513608+683811691+683835208+683521719
2494+683455327+684104867+685071986+685601420+685834816+686479107+687295173
2480+687922014+688461878+688710542+688945369+689644737+690009827+689292327
2467+688759825+689596409+690554053+690541510+690333404+690487865+690890308
2453+691594926+692301724+692271254+692065466+692646432+693105452+692856788
2440+692654544+692853107+693532980+694446590+695200422+695660942+695729243
2426+695717655+695792363+695806950+695872729+695677438+695089314+695042212
2413+696064271+697364033+697959587+698305181+699602285+701229032+701436252
2399+700404582+700003093+700794756+701208992+700074256+698644777+698662773
2386+699462957+699716188+699483406+698380980+696144092+693930925+692242012
2372+690344038+687861143+685309199+682993103+681227845+681274538+682833598
2359+683563709+683289414+684232744+687159048+691072649+694100246+694320554
2345+692050674+690209617+690042887+690392503+691117705+692550525+693260186
2332+692517260+692498174+694421028+696632219+697809080+699201954+701798138
2318+704146748+705650458+707508965+709807679+711012965+710882634+711309140
2305+713018230+714421738+714464477+714222970+714789963+715688440+716313100
2291+717028828+718090764+718836552+718996534+719036888+719185350+719653368
2278+720369914+720881489+721201181+721631095+722006068+722115540+722335507
2264+722799572+723218170+723470652+723795524+724622156+725592206+725833167
2251+725444629+725215665+725338224+725730716+726298186+726694427+726980650
2237+727046837+726840640+727040975+727780970+728732888+729402946+729169618
2224+728592128+729010249+730358681+731517547+732201987+732520043+733043070
2210+734092054+734378686+733520494+732605317+732609611+733764660+734610514
2197+734204594+733535422+733595680+734690062+735834068+735791533+735369662
2183+735785057+736503512+736777124+737186112+738023036+738391057+738201491
2170+738644970+739885837+740550305+740282623+740087809+740439538+741260921
2156+741885104+741606652+741195824+741421380+741576318+741556892+742457005
2143+744090909+745025582+744827836+744476925+744674670+744812499+744557564
2129+744373724+744518710+745075887+745490055+745142348+744604938+744561381
2116+745133963+746127734+746841145+747060157+747146726+747094581+747236567
2102+747959793+748920232+749695127+750021703+750200158+750789304+751463588
2089+751723023+751576810+751010498+750461501+750971713+752295878+752813247
2075+752524706+752570240+752827970+753177109+753525089+753542539+753873206
2062+754441766+754679251+754998398+755487683+755791424+755432197+754528676
2048+754283147+755191508+756520853+757341350+757595400+758094637+758891753
2035+759294538+759064755+758673286+759108039+760634312+762029982+762342516
2021+761909603+760993812+759772371+759426504+760297443+760915559+760816039
2008+761010308+761673754+762036048+762047568+762588318+763744797+764413151
1994+763928842+763379299+764715188+767223235+768202283+767235437+766122650
1981+766580443+768873227+770863155+770823551+770083079+769628763+768891699
1967+768495867+769050454+769499250+769675523+770343332+771293068+772304085
1954+773007271+772786077+772636319+773051237+772817842+772198226+772722070
1940+773983796+774812337+775455674+775977814+776431109+777350649+778037202
1927+777397137+775854368+775369377+776343790+776506022+776302141+777655617
1913+778843589+778101345+777169876+778668679+781237528+782081065+781772211
1900+781860893+782033077+781949098+782284059+782625291+782199262+782453925
1886+783663437+784086534+783849185+783842778+784032616+784268125+784695039
1873+784827006+782998151+779828499+780190248+783940799+786534665+787171390
1859+787519438+788124739+788675100+789208215+789617816+789415367+788485603
1846+786725934+785944496+788709932+791763909+792425378+792292866+792415358
1832+791151587+788803522+788603936+789906288+791051317+793063944+795111062
1819+795678395+795406760+795407918+794700098+793117316+793228152+794704051
1805+795018358+794177412+793618667+794537457+796318597+796796158+795338800
1792+794544273+796616476+798990921+799705012+799392751+798913486+798533877
1778+799195142+799756545+797312709+792665590+791994714+795548815+799538759
1765+802159687+802323281+801142126+800247739+799725530+800701033+801049899
1751+797492050+793814640+794867033+797376034+798639396+798642804+798967949
1738+800139289+798129320+792925092+794610870+800645274+804761801+807264462
1724+808375954+807530100+804317027+798019371+793774355+798166266+804471829
1711+807570317+807020570+803863528+800898642+799167330+793835839+786035359
1697+785357804+791136182+798107576+801524529+800735593+797847733+792075694
1684+786477679+790636467+796732492+799031819+797571189+795532387+794008977
1670+791189895+792254626+797272219+798654051+796142801+796142255+798428154
1657+797758164+789628450+777581454+779615144+783346199+782470625+785430603
1643+791468007+794033448+791694177+784374189+777947975+782758280+790452423
1630+794306243+794859944+794454024+794587694+797435746+801251939+801783827
1616+802118720+807750680+813494090+816607847+818963546+821326062+823124175
1603+825161955+828126704+830715390+831918290+833158203+835469800+837468998
1589+838806182+840334636+841479937+842250061+843902574+844680673+840758484
1576+836183414+839178497+842284688+841104555+842138066+846303739+847915558
1562+845116312+834172833+821095666+829062808+841122823+848887994+852602554
1549+854269313+854172861+849399842+839312304+829761358+836945903+851556159
1535+858120202+860485581+865480066+869138595+868223485+866340371+864208661
1522+861672939+864106482+867962074+870182808+872914912+874930129+874210788
1508+869405664+868563558+878649392+886246809+889621978+891986129+894665269
1495+895601918+892738325+886112866+882502871+888222900+896293721+902112793
1481+906456375+909531892+908596061+901619281+892805876+892371463+899148793
1468+902778147+899372441+894516193+893588133+890753987+882111129+880323036
1454+890960934+901699716+909416694+913826123+916213383+918458860+920322479
1441+921494636+920114031+915901802+918329483+927094764+933431683+936386685
1427+936391865+932674238+929217409+926123556+918623681+915543666+921698721
1414+926562944+927309755+926699137+924396266+919960729+917969711+917241986
1400+911072002+903520732+900669681+900372483+902199294+903533683+901404018
1387+898589230+898131710+899408500+901499244+901794328+898421818+894631255
1373+895621277+899689747+901821049+901752475+899388187+894899483+893916413
1360+898030213+901083985+900920595+899711696+898932916+899566301+901825343
1346+902929132+901102185+897933215+895618073+896037899+898936733+902219198
1333+904331277+904271087+902912704+902866216+905078292+907946998+908860744
1319+907177147+906382212+909096661+914358488+920491731+925799910+929965583
1306+934516522+939428460+942758572+944274211+945143922+946814568+950440718
1292+954230872+956497344+958319314+960069576+961313920+962554106+964468508
1279+966682425+968462406+969310373+968477402+967114043+966992096+967022429
1265+966190958+965966083+968181295+971837097+973176872+971744870+970912922
1252+972101235+973918025+975180637+976588917+979314818+982828360+984908674
1238+983896840+981532961+981446596+984569965+988122770+988663656+986465894
1225+984839556+984250886+983630248+984763961+988032043+990402329+990719158
1211+991396237+993310366+993007920+990251958+989975006+992848823+994130794
1198+992747463+993041729+995819094+998833536+1000268809+996268094+990293061
1184+991344159+997457634+1000626945+1000184898+999499776+999327320+1000366966
1171+1003901162+1006963728+1005939828+1003038948+1003308198+1008945476
1159+1015941546+1018296291+1016300637+1012976660+1008441944+1003910569
1148+1002120295+1003735249+1007875292+1011426189+1010680128+1007484369
1136+1007428201+1011903954+1016191096+1016937771+1015651506+1013577940
1124+1011622026+1011177797+1013232754+1016428650+1016145835+1012171228
1113+1008853658+1005944122+1001765634+1000402002+1004034083+1007857365
1101+1010055059+1011896184+1011555633+1008363964+1005594029+1006705316
1090+1010065011+1013389056+1017986415+1023626214+1028462831+1030321337
1078+1030014120+1032394017+1036527039+1036306391+1034249525+1035941983
1067+1036809990+1033534274+1031362210+1032889097+1036344358+1039484291
1055+1042502481+1046824660+1049922671+1048816701+1045535736+1043182218
1043+1042832807+1045757612+1050556533+1052372710+1050608406+1047152872
1032+1043346904+1043153657+1046210497+1046673812+1044667319+1044499635
1020+1046312471+1047768330+1048789026+1049617225+1049487576+1050114622
1009+1052139519+1052338014+1049363653+1046196046+1045691765+1046133062
997+1046334011+1047794846+1048173432+1045928023+1044646052+1044971674
986+1044471210+1044475573+1047409239+1051249767+1051957588+1048590190
974+1044828597+1043965429+1044788243+1045997755+1046610282+1045053949
962+1044525401+1048169001+1054018952+1059033342+1060288320+1060611283
951+1065622810+1069281339+1065028620+1060162011+1058311002+1053929452
939+1048963732+1048730064+1050054501+1050190149+1052157514+1055181294
928+1054607758+1051527333+1051445740+1054787576+1056900609+1056765780
916+1058165539+1061730886+1063930898+1062513279+1058924551+1056749079
905+1057483757+1059456985+1062302514+1067964535+1073741823+1072634899
893+1065113553+1058591976+1056866799+1056919968+1054366660+1049392282
881+1046242807+1047413533+1047646111+1042969204+1038976533+1038918797
870+1038713349+1035680572+1034415915+1035079156+1030903531+1026608141
858+1027386580+1026514619+1022537013+1018755106+1014667959+1011540637
847+1009486907+1005480330+1000170720+996020793+993204847+990839537+988179483
833+984896814+982298381+983181657+984871934+981996003+977651262+977461696
820+980354327+979908804+975392356+973318858+973398134+970687843+966173235
806+962446747+960087435+960476314+961455498+957099646+948023194+943045408
793+948479624+956159179+954557312+949039050+946498693+944523966+941290034
779+938851311+938879940+938703735+936057109+932279361+929084147+927472873
766+926600639+924557475+919381194+910465747+900918073+893950905+890528498
752+891864115+895593875+895756311+894133858+895418624+896029447+893458961
739+890827877+888045536+885088012+885681998+889385174+892042024+890943211
725+886373527+883478715+885118618+887228311+883667530+875535566+872141312
712+874393401+874933673+873322127+871818007+870248655+869771162+869909331
698+866585287+860946782+859602304+862903378+866017544+865439236+859223309
685+850633347+847486530+851313834+854730447+853261296+852755310+855321229
671+848579958+831229691+826909285+837335396+843057947+844376522+843915457
658+840037303+834677114+829379432+821390341+812483619+809960848+818030919
644+829181142+834721557+837494628+833299031+809288745+771126338+752417824
631+775573939+806396796+798100214+777731211+780997725+804898266+838572923
617+872760246+898635173+922133816+931896481+894167463+842296276+806368303
604+776981947+758927812+771955560
##END=
