##TITLE=Sample description
##JCAMP-DX=4.24
##DATA TYPE=INFRARED SPECTRUM
##DATE=25/8/2023
##SAMPLING PROCEDURE=Instrument type and / or accessory
##ORIGIN=Default
##XUNITS=1/CM
##YUNITS=ABSORBANCE
##RESOLUTION=4
##FIRSTX=4397.6552
##LASTX=599.8556
##DELTAX=-1.9287962
##MAXY=1.8117895
##MINY=0.09659189
##XFACTOR=1
##YFACTOR=1.6873605e-009
##NPOINTS=1970
##FIRSTY=0.09659189
##XYDATA=(X++(Y..Y))
4398+57244371+57269032+57409583+57502176+57658609+58015428+58343104+58359578
4382+58159714+58056753+58325437+58893367+59301211+59285085+58995215+58844138
4367+59050921+59343671+59551169+59731084+59932172+60294253+60702906+60686829
4351+60167373+59632079+59371532+59207160+58967587+58772765+58668616+58490229
4336+58320377+58382173+58598255+58737145+58769237+58764535+58673818+58511066
4321+58461908+58627075+58825783+58949475+59094476+59166246+59092816+59074098
4305+59183837+59208163+59067537+59019584+59116192+59112023+59158002+59624670
4290+60279828+60614904+60640845+60589493+60549952+60707705+61075624+61329508
4274+61297933+61082976+60996613+61154309+61250263+61297875+61403133+61257133
4259+60862368+60731982+61144873+61737512+62044311+62046536+61992053+62162704
4243+62561841+62690280+62405660+62391274+62777977+62891619+62595549+62426369
4228+62772418+63325533+63678783+63829525+63821211+63950532+64275934+64319458
4212+64247874+64492569+64727793+64829685+65195052+65649719+65827925+65891491
4197+65884497+65603373+65247588+65313344+65842805+66364128+66546127+66414439
4182+66093386+65813901+65852833+66155906+66397342+66321744+65973708+65667756
4166+65663023+65919830+66129801+66239200+66435170+66583183+66568461+66517661
4151+66493565+66510984+66528766+66479303+66355174+66274564+66463195+66740684
4135+66702455+66593974+66795962+67078194+67145235+67135097+67309157+67552138
4120+67562987+67360293+67264348+67457514+67708995+67732844+67544500+67377116
4104+67435405+67673331+67876035+68003396+68201878+68369818+68333143+68279671
4089+68315839+68298216+68332865+68590007+68900397+69040744+69044497+69118612
4074+69332478+69525273+69656312+69821903+69954179+69944231+69848886+69810878
4058+69923699+70083099+70097401+70009748+69995976+70027773+69909648+69741850
4043+69819324+70001271+70098889+70295305+70567235+70542110+70195518+69918365
4027+69844762+69902120+69964224+69864707+69817779+69957703+70037279+70092747
4012+70209926+70210248+70195236+70382105+70528753+70455257+70359440+70270794
3996+70216598+70288876+70321392+70423284+70714047+70696217+70297380+70113959
3981+70239250+70310847+70285224+70408302+70685496+70809793+70764026+70827954
3966+70896726+70666743+70404368+70526250+70949875+71293456+71022904+70035305
3950+69071339+69096720+69720324+69702423+69558018+70431091+71626457+71779835
3935+70236428+68155793+67981040+69323642+69568532+68795334+68833740+69020565
3919+68336203+68323681+70075765+72018229+72897338+72486743+70236287+66191777
3904+62746556+62310174+64318650+67611121+69987922+69686457+68154054+68477085
3888+69229971+68346769+67305134+66847995+67161108+69121385+69806590+67662716
3873+64802216+63408597+64702050+66380068+65933725+66120860+68488018+69678191
3858+67860377+63030218+58450490+62195150+68684508+72218813+72240303+69609962
3842+66045177+62869228+62218455+65110932+68146675+69923297+71101213+71515720
3827+71352213+70470605+67480364+64654181+65892286+68431711+71790176+75440896
3811+76861193+75323982+72617062+71263126+69815081+68645285+70545298+73164287
3796+75955728+79076400+80955188+81375987+80703379+79488377+79006785+79041447
3780+78735733+79606925+81794261+82818530+81697119+79592151+78827320+79708879
3765+81236783+82179197+81021738+79241443+79401338+79356353+76231204+71604512
3750+71680689+74369266+76061851+78734709+81674379+82189477+79428132+75395919
3734+76616149+83184427+88289338+89641795+88999760+89048348+90681960+93187222
3719+95769050+97215019+96240001+93028555+92259141+97096400+102227213+104659336
3703+105361193+106998363+110075444+112753265+114281549+113912738+111738384
3690+111913636+118434959+125786824+130509915+133236634+134123986+133001799
3676+132582801+137908329+143893165+148847507+157710240+167471763+174883096
3663+180605280+185419102+189584742+194275088+199981800+203388747+203517133
3649+206470571+218823900+232360802+242624457+251002685+258695428+265592159
3636+271549884+277181796+281785563+285642399+294082620+305656980+314580366
3622+320208569+324243334+330137316+337532012+344379324+351387785+358192319
3609+364484971+372262545+380464611+386503210+390900684+395707564+400779765
3595+405602188+411412877+416676676+419297166+421313647+426387826+433129801
3582+439064265+444072635+448634507+452836108+456469802+459088207+459388851
3568+457171729+457168019+461584921+466621868+470584889+474341688+478659682
3555+481524191+482036568+482651880+483772293+484117764+485520381+488796559
3541+491837866+493528835+493729830+494570086+497070050+498757628+498709445
3528+498320385+498675746+500077905+501903247+502843224+503122285+503673731
3514+504590853+505364205+505363004+504939608+503949471+501876966+500701695
3501+502565540+505090266+505998380+506879401+507654626+507135572+506519518
3487+506589072+506749549+505895940+504158909+503568076+504729288+505915439
3474+506029890+505405817+504649279+504086741+503260367+502341514+502210744
3460+502777273+503297422+503491069+503652925+503610041+502729197+500690391
3447+498531729+497895541+498490789+499588382+501013148+501652940+500924272
3433+500139475+500045477+499711628+498697824+497958771+497639864+496540575
3420+495641433+497237310+500006868+500776405+499671359+499021393+499181553
3406+499055022+498569809+498690971+499634904+500496673+500868036+501154268
3393+501779542+502994658+504559520+505599606+505791310+505637226+505535634
3379+506228164+508127016+510026327+511097322+512340380+513913295+514775170
3366+515525527+517162874+519128524+521002931+522861796+524253110+525462858
3352+527446029+530135507+533291441+536442040+538278227+539101634+540890345
3339+543637402+545927893+548106901+550409685+551982530+553028691+553961921
3325+554499873+554648411+555322962+557613771+560465670+561563193+561282683
3312+561518437+562697170+564167045+565155168+565651332+565583863+564795780
3298+564394462+564763458+564911184+564747068+564100918+562026787+559858200
3285+560016982+561631863+561640058+559461686+557434430+557102242+558367766
3271+559976677+560212325+559528025+558872160+558530787+559762507+561451356
3258+560680194+557855671+555365740+554569427+554899284+554880668+554093645
3244+553047519+552771531+553368015+553274972+551660303+549375428+547452626
3231+546241395+545585531+544540571+542561180+540877028+540380900+540469528
3217+539931788+538774779+538567179+538908305+538179390+536871335+535751982
3204+535035007+535105302+535449219+535325019+534689431+533338704+531624633
3190+530579673+529759516+528272827+526739545+525726306+525085207+524430862
3177+523086458+521596766+521233987+521146030+519932467+518271418+516968555
3163+515801409+514601093+513176786+511109508+508673340+506960188+506136887
3150+505216515+504036510+503371285+502914967+501695788+500189741+499160889
3136+498027371+496211036+494401696+493393543+492670740+491523339+490129800
3123+488851594+487861104+487126325+486398152+485500670+484399545+483183156
3109+481944019+480497034+478920621+477713912+476645072+475190351+473723620
3096+472640969+471923570+471438110+470727387+469766604+468992263+468036920
3082+466102532+463919144+463323966+464081105+464324807+463475542+461982636
3069+460047118+457756061+455587227+453604232+451449315+449495711+447978714
3055+446360336+444217146+441998399+440429510+439465372+438775985+437940214
3042+436653601+435285248+434044556+432580510+430553467+428137221+425903779
3028+424245873+423308192+422877696+422485633+422011017+421513264+420812432
3015+419976662+419575132+419799617+420247952+420796925+421562859+422467123
3001+423640275+425418671+427740425+430568303+434602361+440313647+446706018
2988+451796270+454123251+453844649+451932974+448870755+445243985+441909947
2974+438871678+435532341+431908467+428967198+427263795+426069166+424896121
2961+423981683+423360331+423029590+423033865+423333202+423942191+424709503
2947+425113541+424783013+423969673+422934816+421552792+419759418+417772679
2934+415916782+414174239+412345365+410529171+408496865+405728684+402346464
2920+398603760+394367824+389827888+385549599+381796368+378513408+375557727
2907+372924379+370795249+368983754+367203203+365621562+364416724+363523976
2893+362705868+361887548+361460513+361562459+361766915+361891786+362116272
2880+362546132+363190975+363930663+364493554+364648522+364557986+364493766
2866+364314567+363882375+363094293+361703791+359724011+357139093+353472937
2853+348528539+342958973+337504600+332520781+327976606+323619862+319560123
2839+315928725+312575541+309599090+307124842+304805809+302290585+299806941
2826+297790318+296199670+294625995+293095963+291952536+291100464+290410476
2812+289895361+289288492+288415437+287445964+286614080+285902491+285032845
2799+283877567+282484611+280865421+279150590+277467004+275676986+273730464
2785+271859324+270104506+268252706+266408324+264883167+263594487+262327461
2772+261101553+259882656+258644190+257533916+256534188+255551363+254722569
2758+254098126+253468984+252702838+251954318+251328303+250629008+249773632
2745+248857005+247971480+247282217+246672151+245854396+244953876+244192622
2731+243559648+243014260+242534575+242084669+241635168+241231960+240881509
2718+240449035+239901810+239317036+238776982+238321370+237815581+237172486
2704+236527325+235987360+235423904+234733510+234063869+233391367+232500933
2691+231484903+230560928+229684641+228751729+227831234+226987586+226178185
2677+225354460+224533420+223766249+223043940+222331451+221588866+220776904
2664+219916460+219101778+218465377+217962096+217364711+216627053+215900806
2650+215242716+214697717+214415547+214309486+214091677+213751576+213454129
2637+213192783+212932426+212795085+212839841+212916229+212832882+212533386
2623+212230781+212225730+212453377+212617334+212680388+212798883+212968403
2610+213010351+212944524+213025381+213210763+213214436+213056696+212912821
2596+212718891+212367027+211988404+211765509+211618295+211311187+210757727
2583+210028441+209257438+208556836+207923473+207325611+206704294+205953407
2569+205102925+204301436+203599757+202956803+202348750+201785541+201317302
2556+200904680+200405319+199819485+199249141+198758223+198358795+197993366
2542+197684297+197537631+197511844+197474277+197403717+197308218+197189882
2529+197153886+197261449+197437946+197616368+197784476+197944159+198087293
2515+198204852+198285709+198324777+198343764+198358477+198410774+198484478
2502+198440588+198311266+198248548+198207589+198102429+197913039+197612960
2488+197251611+196890191+196452224+195867768+195232851+194656961+194146173
2475+193688548+193295760+192887042+192325299+191694974+191175037+190717042
2461+190210175+189685716+189198472+188753140+188330574+187865090+187308981
2448+186685915+186055290+185494360+185053779+184741107+184453338+184030084
2434+183529487+183123912+182787396+182453018+182184395+181977519+181743001
2421+181458571+181183431+181001370+180891211+180772328+180641717+180538217
2407+180492984+180434664+180243189+179997916+179861123+179817179+179773872
2394+179685844+179553696+179411181+179202062+178764359+177991219+176871566
2380+175445281+173789230+171957176+169965721+167905350+166007293+164467193
2367+163105534+161730080+160713980+160429302+160739625+161431838+162656104
2353+164666775+166842268+167880870+167238623+165614770+164388561+164110542
2340+164415549+164865261+165155149+165310823+165585433+166100849+166651341
2326+167036039+167433419+168132590+169083712+170005320+170724026+171236015
2313+171580532+171822184+172133814+172614912+173100991+173393811+173547171
2299+173760493+174091746+174411077+174583512+174639236+174706051+174782723
2286+174801868+174817552+174857645+174794274+174568640+174354470+174282974
2272+174236134+174143390+174094431+174085017+173991726+173772839+173555578
2259+173410272+173257424+173103305+173003867+172932159+172857607+172788036
2245+172737399+172666256+172520491+172355403+172297524+172305260+172224227
2232+172142345+172187083+172238780+172214018+172133814+172022985+171989250
2218+172050131+172022013+171900021+171930806+172112991+172203968+172133320
2205+172026129+172032946+172131554+172164493+172152854+172220058+172310771
2191+172289347+172142857+171986195+171906327+171813583+171653600+171570676
2178+171564689+171475054+171324802+171174215+171005206+170856721+170712581
2164+170548765+170415363+170313523+170263116+170289309+170353669+170418154
2151+170465841+170543343+170628350+170573651+170418507+170359180+170393550
2137+170405331+170406338+170421015+170386274+170315113+170324986+170415752
2124+170488237+170545109+170588770+170571213+170552032+170617347+170744549
2110+170899110+171059994+171176900+171298945+171489077+171651410+171767379
2097+171979589+172289047+172527873+172681640+172917711+173237625+173518364
2083+173815917+174161494+174381722+174451964+174590506+174856921+175097973
2070+175204529+175111820+174974657+175136901+175530836+175824380+175905184
2056+175865727+175884837+175976698+176055488+176124300+176132813+176025004
2043+175930900+176039098+176258214+176384268+176475952+176671560+176906166
2029+177032149+177079731+177152570+177260556+177278889+177070441+176938611
2016+177262022+177768924+178115048+178334605+178535512+178765772+178975934
2002+179135652+179380625+179799447+180051502+179700945+179267747+179641777
1989+180539206+181361800+182035503+182588927+183058845+183483707+183893856
1975+184315115+184747677+184947665+184669328+184533153+185280260+186303178
1962+186829208+186998994+187045003+187026352+187055177+187063372+186858209
1948+186353903+185452589+184316386+184083247+185181970+186172637+186368951
1935+186251657+186222533+186295583+186299257+185890574+184849446+184066503
1921+184106366+184246674+184867143+186096637+186614684+186159974+185821109
1908+186359290+187244956+187838844+188171103+188280608+187990385+187595902
1894+187597280+187452468+187106415+187730381+188879459+189577183+190069108
1881+190508717+190878102+191210732+191307786+190475336+188167129+186258881
1867+187685908+190592082+192258889+192800833+193152380+193688265+194265498
1854+194687428+194764258+194174626+192796029+191236254+191651048+194445810
1840+196536684+197154681+197597823+197916907+196805166+195177886+195662464
1827+197267507+198957981+201177153+202864501+203624607+204165173+204383229
1813+203728089+203208029+204207138+205767902+206338106+205566590+204597400
1800+205026112+206071902+205847788+204475955+205117725+208882313+211825048
1786+212790034+213081246+213363186+214165805+215462115+215426596+213311578
1773+211832837+214445184+218928177+222612226+224334457+224622631+225872860
1759+227919420+229907660+231938589+232145995+230314206+230235098+233895073
1746+238258087+241613179+244626332+248329809+251233546+251470147+252566381
1732+258643360+265583822+271714865+276151902+279008534+281093721+281105696
1719+278996559+280881705+289414493+297727300+303304530+306194650+307892684
1705+310836637+313997022+316119441+319916685+327047121+338676657+350209829
1692+357113942+362178301+366175940+368886118+377332591+391929183+403631593
1678+412287574+419975991+428440833+435519518+442233128+452913927+462315885
1665+466850098+469706871+473650181+476490458+475645080+470765784+468316299
1651+473825001+476251490+477649339+485132910+493134511+497347097+498028254
1638+496089415+497580838+506367518+513857554+518190384+521961029+526295449
1624+531930117+540737144+549186797+554970003+562377133+572297402+579919303
1611+584943745+589025773+592759081+595039117+595297690+594644545+593326317
1597+590297162+585646096+580702652+576089701+571541005+566856805+561918907
1584+556723672+551031532+544253879+535561161+528160319+526372526+524353925
1570+519904844+517683517+518228110+518603041+517187248+511877668+508775922
1557+517004198+524770857+529565798+532042271+533628645+533672589+530784801
1543+527083602+529430224+548040562+566597137+577687874+589957237+605132722
1530+616698569+624830480+631653772+636065057+638457988+641291695+643023710
1516+643552443+643607761+640248077+631937919+620427249+617788320+628456438
1503+636066258+639026707+639790840+642824835+649485635+654463026+656991178
1489+663169168+676178643+689532389+699603387+707173785+713020433+716145352
1476+715869753+715999817+724361477+736717526+744580691+748722382+754724456
1462+761867644+765099807+764241571+767287929+776345193+784418113+789941050
1449+793586154+798178581+804782298+811535153+816293463+817225173+816723287
1435+821290635+828361831+832480420+834513751+837258935+839915103+840293637
1422+836760370+830499298+828598362+833440320+838744742+841435668+842336364
1408+841053389+836299460+831738683+830494565+828545729+823344101+818618713
1395+818080725+820762114+822496391+821174277+818629734+818668237+820451332
1381+820163369+816815201+812330018+808438493+807290456+809058997+810734918
1368+811621061+811308018+808041590+805486591+807062262+808533162+807622574
1354+806510428+806332111+805383445+803586715+802620881+802060498+800041155
1341+797001226+796609339+799512847+801997126+802636918+802820675+802867514
1327+802418191+802703751+803177661+802163362+801281670+802329315+803953804
1314+805463419+807816858+810389872+812493286+814935671+817835363+820583374
1300+822735323+823966583+824454552+824936444+825308479+824271855+821801634
1287+818948217+815675925+812669978+811338679+810641239+808979589+806857311
1273+805024833+803970406+803561423+802641793+801244933+799393027+796281107
1260+793540656+792884050+793511337+794715327+796162912+797309959+797969886
1246+798294445+798939606+800592425+803065047+805715987+808324325+811185231
1233+814547882+817981888+820934002+823632487+826373079+829161006+831757616
1219+833312729+834210599+835768325+837599602+839276795+841025059+842280623
1205+843184569+844659071+846799434+849167215+851326795+852871592+854113238
1192+855677040+856782969+857130983+858612763+861644426+864571530+866449081
1178+867187993+868639534+873017120+878411477+882052624+884614476+886650986
1165+888288404+891532083+896378138+899955207+901392195+902456372+904636157
1151+907872984+911494490+915446702+920156406+924769675+927503555+929095334
1138+930828410+932814124+936289035+940597668+943516647+945696927+948427204
1124+952296263+957790659+962088482+961808644+960112730+960934300+962288064
1111+962830926+964605472+967604213+970370098+972894364+975438059+977746637
1097+979136644+979985908+982388447+985104807+985331942+986179228+989798120
1084+992914915+995624563+999092551+1000904188+1002044735+1005714212+1009902178
1070+1010956252+1011750693+1016528855+1022106262+1024546740+1024768293
1059+1024115643+1024587645+1026794630+1028157791+1028598566+1028403011
1047+1025161946+1021007892+1020574605+1023266167+1025942681+1027646155
1036+1030931729+1036254802+1038998856+1039770619+1041493803+1041284190
1024+1039343832+1038423354+1038316745+1039913470+1043738868+1046642516
1013+1045732494+1041623090+1036918331+1034688245+1035225949+1034809195
1001+1033591852+1035482474+1037560666+1035711869+1034680968+1036761563
989+1036745102+1034862463+1035580746+1038119990+1040356929+1041597727
978+1040890961+1039800150+1040694629+1041907662+1041181679+1039589123
966+1038591992+1039542000+1043185549+1047051712+1049045409+1049434893
955+1049002384+1048976385+1049200482+1050009830+1052778964+1054927099
943+1054587775+1054095779+1053372552+1052562427+1053452031+1053732576
932+1052565889+1052690159+1055466429+1061612414+1067635471+1068570503
920+1067003733+1066270827+1065593804+1065016536+1066164501+1069907877
908+1073540404+1073741823+1071624915+1069374057+1066815385+1062904078
897+1059763193+1060366318+1062877939+1065350420+1067236308+1065627291
885+1061698746+1061212332+1064256006+1065165180+1061602947+1056313008
874+1052715451+1051078528+1047769499+1042724074+1041216296+1042723014
862+1041253316+1035973621+1030856841+1028811641+1026991174+1020949395
851+1013906881+1009737638+1006556341+1002498934+996766806+989084996+982838548
837+979852312+975834679+969261978+964769659+964198891+962896841+957100353
824+949196919+942993567+940849671+941680778+941383137+938413432+934830075
810+933812739+935941869+938422757+939128959+937343462+933148008+927726663
797+922256359+917444285+913388644+910468111+910376409+912359792+912224641
783+907952675+901966567+898199524+895857177+890418382+883714769+880859585
770+880804974+879987219+877646355+874294867+869825367+864201403+861374973
756+863545574+864107794+860029616+856388822+854307521+851614051+848317527
743+844932127+841746379+840170073+840507277+840759351+840507701+840522608
729+839355850+837872870+839651019+843082623+844792384+844697009+843057260
716+842242755+843506513+842075389+835952223+830438046+828210008+827647223
702+828860821+831182468+831882311+829745056+826261172+824393088+823797169
689+822448350+821197379+819951000+819128088+821662952+824730010+822402004
675+817888138+816711489+815852405+812507698+813180200+818925963+822024954
662+820773418+814716944+805339713+799816705+800540215+799709885+793982138
648+789239300+789352267+792418407+794173595+794314609+794996507+794753336
635+792531727+788258630+782466875+779255412+779821588+782053229+787704111
621+793018777+786046488+772604644+768304630+769036618+767107352+766445447
608+771413441+782942975+793563405+795596383+792439319
##END=
