##TITLE=Sample description
##JCAMP-DX=4.24
##DATA TYPE=INFRARED SPECTRUM
##DATE=25/8/2023
##SAMPLING PROCEDURE=Instrument type and / or accessory
##ORIGIN=Default
##XUNITS=1/CM
##YUNITS=ABSORBANCE
##RESOLUTION=4
##FIRSTX=4397.6552
##LASTX=599.8556
##DELTAX=-1.9287962
##MAXY=1.9457315
##MINY=0.86477327
##XFACTOR=1
##YFACTOR=1.8121037e-009
##NPOINTS=1970
##FIRSTY=0.93726742
##XYDATA=(X++(Y..Y))
4398+517226154+517017484+516896374+517282301+517163954+516538536+517188360
4384+518081425+516748357+514149059+513182381+514507292+516440385+517426568
4371+516810886+515737176+515997290+516842397+516950087+516781908+516418972
4357+516031629+516251845+516014295+515182707+515611559+517631850+519767791
4344+520612208+520260784+519500046+518772398+518423178+518279076+518156453
4330+517896109+517470611+517395090+517542942+517663131+518094977+518326606
4317+517922390+518010673+518656288+518628263+518406502+519224966+520632272
4303+521238185+520989419+520700820+520693716+521375873+522300285+521702167
4290+519928471+520026655+522228382+523649338+523727392+523264035+521862189
4276+519789829+518410811+518854925+520661744+521587800+520830713+520388374
4263+521215062+522227395+522407712+521562571+521301931+523305611+525674004
4249+525544144+523978066+523396888+524146344+525101279+524708510+523013690
4236+521646349+521903535+523689500+524897017+523704170+521603226+521424850
4222+522909750+523718873+523150918+522126974+522122764+523377514+524386032
4209+524327187+524075165+524443002+525204529+526290410+526876521+526031940
4195+525246895+525824125+527124498+528174131+528474209+528014997+527210446
4182+526668772+526365602+525817909+525155125+525306989+526339847+526932998
4168+526981810+527296000+527675579+527692420+526929215+525575228+525087004
4155+526003751+527580684+528825501+528523976+527662389+528021247+528106668
4141+526888527+526555326+527488618+527629464+527510097+528441712+529304778
4128+529529960+529499370+529187056+528566045+527844614+527337641+527014045
4114+527325998+528379051+529211133+529537065+529496278+529426908+529872667
4101+530663732+531592354+532247803+531812635+531495091+532676195+533021928
4087+531185013+529436776+528739323+528926745+529960951+530762180+530729879
4074+530696625+531554429+532744677+532844111+531913155+531382796+531877795
4060+532767768+532946736+531720207+530330334+530775435+532900917+534835589
4047+535121161+534726024+535618134+536713159+535843119+533871114+533086661
4033+533361675+533395423+534104848+535958967+536948768+536195398+535153692
4020+534662344+534087415+533562221+533853089+534852265+536585964+538539878
4006+538467942+536217633+534954002+535819042+536754275+536503699+535419332
3993+534185501+533776483+534413150+535024819+535600109+536809139+537690856
3979+537520243+537073793+537071885+537516855+538203124+538754797+538521129
3966+538370942+538867158+538150792+537026230+537839991+538263745+536054881
3952+534005184+534697835+537007580+539342060+541147958+541680060+541495237
3939+541601809+541346201+540152499+538976065+539409720+540783509+540394917
3925+537981429+537169016+538701939+539136910+538516129+539586912+541502079
3912+542445140+542010005+540219665+537596751+535795754+536246776+538338839
3898+540645031+541645556+540478891+537952056+537581291+539150330+538965934
3885+538405676+539923501+540821335+541052241+541516025+540376661+538048957
3871+535726219+534451568+535630831+536810784+537522315+539774959+541947410
3858+542501814+540411133+534033274+533039296+539270947+544333894+545518583
3844+543267354+539642007+536468636+535357428+538009321+542133648+544797711
3831+545314025+544661898+544221533+544396916+543482800+541567568+541810972
3817+541982671+542151969+544967502+547877569+548725965+547822342+547029567
3804+545819978+542788340+541869126+543554637+545711103+548597027+550939928
3790+551434499+550339376+548635840+548582258+550102583+549607847+548311914
3777+549675638+550827633+549550778+548066734+549051338+550914173+551616855
3763+551352038+550054461+549112354+550132712+550742408+548567391+543911061
3750+542179961+543833237+543590326+542386723+544636900+547812540+548410658
3736+546110418+544807086+546723173+549868585+551809803+551199351+549304676
3723+548490422+549473711+551439071+552462719+551489167+548539136+545743831
3709+547063084+551150801+554754604+555966167+555667042+556830714+559288113
3696+561336659+561953196+560674401+558309298+557754467+559798539+562195943
3682+562788666+560921029+557183387+552037353+550514463+553012616+552619748
3669+550501339+551953017+554606719+555224441+553425681+550743197+547962103
3655+546099399+545127393+542607136+538203913+536889035+539009320+541075430
3642+541062108+539425509+537934984+536746380+535533732+533710533+528472038
3628+522530401+523048425+525304950+525350999+522702034+519237169+517316312
3615+515305001+512780435+510915923+509001052+507873595+508495132+508962798
3601+508005165+506424680+505067996+504000173+503912350+504475897+502965769
3588+498462554+495820594+496590148+497479693+496752077+495392005+494905722
3574+494965751+494795532+493854214+490435432+485108588+483229406+485057539
3561+487316334+488223378+487790775+486502277+485250388+485262229+485895805
3547+485559545+484613688+484676216+485389359+485115890+483912616+483063003
3534+482357294+481321706+480722997+480483835+479721781+478901738+478884601
3520+479818847+481101885+481777366+481596885+480565047+479039426+478406640
3507+478448973+477770729+477284874+477894504+478602054+479318848+480153167
3493+480162409+478953149+477619621+477220635+477525285+478181885+478818191
3480+478966438+478891147+479175799+479895618+479947095+478880358+477971308
3466+477709220+477554165+477794708+478824276+479909170+480407031+480438838
3453+480454462+481176091+482356932+482759701+482096917+481167111+481020082
3439+482151288+483480804+483331899+482278484+482838972+484849954+485965076
3426+486162070+486427052+486843734+487434319+488148383+488957341+489718342
3412+490459082+491427174+492310108+492688405+492767577+493590482+495586926
3399+497333913+497651523+497575213+498765889+500682371+501842194+502688222
3385+504236407+506465237+508626406+509917109+510849019+512664357+515080575
3372+517292761+519502151+521643651+523338997+525322350+529033316+534036399
3358+538377125+541713117+544247715+546120714+548941411+553506399+558162005
3345+561298372+563471054+565852735+568676886+572409463+577075529+580263603
3331+580708442+580997632+582701267+584607981+586200702+587786647+588667575
3318+588399303+587787305+587702048+589277007+592129775+593955835+594716639
3304+594676445+592376403+589724082+590243455+591829992+590389958+587688496
3291+586676920+585787177+583409114+581117690+579816068+578517734+577146972
3277+576000141+575132174+574584316+573991725+573226776+571769243+569491305
3264+567589526+566765239+566260010+565596831+565619133+565812212+565127258
3250+564431384+564217648+563877277+562917407+561926290+561781892+561369551
3237+559336860+557398504+557780847+559201080+559781369+560129372+561045429
3223+561913528+561080229+558719007+557196610+557070500+557788741+559135624
3210+559937872+560047601+560643153+561276992+561117595+560730253+560634996
3196+560566250+560022208+559244695+559196409+560190421+561380538+561543158
3183+561169828+562409218+564844053+565663340+564619003+563556048+563404019
3169+564077526+565065486+565882075+566553806+567513741+568495978+568743856
3156+568431179+568764117+570183429+571477487+572330126+573523927+574731740
3142+575080730+574205000+572897127+572312364+572640961+573514980+574053957
3129+573733847+573715954+574794368+575847323+576768182+578673908+580449643
3115+580636802+580564899+581335636+582019932+582208669+582298202+582339318
3102+582399446+582641929+583111700+583400365+583160644+583151829+584296028
3088+586138535+587119324+586582452+585754811+585877171+586644619+587119258
3075+586628765+585691065+585707380+586136167+586068737+586591794+587662774
3061+588110441+587974990+587523112+587296351+588336807+590077611+590546461
3047+589412129+588304639+588239314+588967883+590215891+591420152+591399627
3034+590286478+589812892+590774077+592185034+593212859+593651317+593104972
3020+592259832+592463371+593481525+594945505+597094636+598610126+598177655
3007+596665126+595593093+595902480+597002406+597490136+598235678+600763731
2993+603515452+604545777+604614325+604972591+606131262+608069684+609545637
2980+609662405+609495311+609785686+610384264+611486624+612217298+612312226
2966+612884622+612750749+611148752+610452023+611262823+611866664+612274663
2953+612998693+613309922+613369523+614035991+615398202+616666800+617019868
2939+617021974+617322348+617676732+617960331+617984343+617789553+617902046
2926+618537661+619249060+619471545+618903820+617501481+616442144+616837118
2912+617799553+618586078+618920529+618184790+617578318+618552594+619929277
2899+620324645+620489634+621279909+621943812+621721919+621359707+622038674
2885+623354177+623900719+624095772+624854405+625226485+625000053+625304506
2872+625929792+625785065+625022420+624846050+625540937+626695662+628267595
2858+629708419+630389228+630304628+629771112+629324629+628685001+627267070
2845+625914399+625974921+627541920+629412189+630107536+629424096+628913078
2831+629746837+631503100+632975237+633404748+633619470+634508160+635283963
2818+635296133+635647293+636902472+637861683+638423356+639074956+638991870
2804+638490785+638912007+639996473+640777999+641168039+641528277+642188299
2791+642994231+643205796+642928841+643166785+644099288+644753849+644607609
2777+644550178+645012516+645435119+645908639+646535571+646837261+646878705
2764+647253483+647877782+648035140+647964092+648689307+650156115+651333601
2750+651908497+652289787+652595885+653031776+653791856+654353003+654456746
2737+654432734+654082692+653429907+653353333+654202026+655571999+656919145
2723+657924274+658691196+659257737+659721390+660085970+660228000+660514428
2710+660943676+661237406+661694283+662205893+662618496+663423442+664087476
2696+663798088+663504555+663947091+664305356+664219967+664508106+665419557
2683+666192202+666619410+667183912+668128913+669405801+670597365+670923264
2669+670359815+669725121+669053522+668492442+669114373+670536317+671298304
2656+671670056+672570192+673160876+672695447+672369745+673137785+674299878
2642+674581898+673723667+672958455+673367441+674487168+675343689+675916413
2629+676391250+676349937+675678666+675131927+675606237+676852205+678137513
2615+679490448+680312300+680209413+680511629+681368282+681701022+681634053
2602+681360716+680882393+680960480+682104942+683869626+685463268+686424650
2588+686792520+686825676+686785087+686768180+686379522+685803969+686352945
2575+687622398+687463527+686267950+686290712+687472343+687976190+687381625
2561+687437279+689238802+690865863+690657983+690139926+690608118+691180974
2548+691073152+690640155+690651009+691111768+691157094+690788566+690903690
2534+691678900+692545947+693062952+693183470+693040124+692971050+693139065
2521+693408586+694234978+695544494+695979531+695584492+695637185+695865328
2507+695934468+696761320+697932228+698000052+697286613+697234512+698477783
2494+700479884+702033069+702446659+701950640+701192139+700930709+701227729
2480+701341602+701047543+701163522+702080237+702769532+702753612+703072341
2467+704131480+704638353+703639802+702850645+703984055+705508031+705807748
2453+705585000+705689269+706124437+706475663+706427574+705957146+705491980
2440+705929121+706763275+706530068+706146541+707282122+708868594+709352114
2426+709233437+709284026+709544009+709697617+709465198+709609202+710636500
2413+711401778+711266326+711359873+712450391+713686689+714286583+714476175
2399+714382563+713990155+713808654+714060677+714136659+714061795+714472754
2386+715043637+715594455+716553008+716896143+715360918+712923320+710677748
2372+708236268+705896492+704600922+704243775+703901166+702619477+700956826
2359+700687107+701529221+702721641+705626576+709695906+712761488+714118436
2345+712958449+710033120+709200676+711145677+713008906+713584854+713285992
2332+711945162+710134890+710294879+713168040+716073107+717380716+718211581
2318+719000869+719910347+721433402+722989152+724359520+725741203+726769160
2305+727450627+728084597+729030454+730259187+730889342+730604624+730001968
2291+729543972+729538907+730298921+731896313+733454695+733647248+732709153
2278+731835199+731564165+732052750+733193199+734722701+735968341+735950381
2264+735289308+735406273+735724739+735323121+735171750+736030771+737074779
2251+737403704+737470081+738015702+738378901+738155430+738125300+738578559
2237+739259171+739723416+739502707+738935574+738883012+739494089+740013133
2224+740096877+740501653+741608815+742519871+743039178+744317974+746057922
2210+746609135+746023845+745353035+744977929+745180810+745490065+745130419
2197+745063844+746145153+746978452+746344087+745332116+745561245+746775373
2183+747611172+747913388+748277245+748597816+748412828+747810040+747678996
2170+748510124+749425194+749513807+749455126+750388024+751752274+752257108
2156+752056858+751836018+751483608+751372826+751895751+752038833+751800955
2143+752267699+753147114+754055342+755011988+755735491+756067377+755671219
2129+754948834+754956004+755405250+755633327+756006986+756800748+757555566
2116+757864953+757948697+757988102+757976984+758007246+757479781+756350844
2102+756213683+757526291+759022835+760197887+761142363+761468722+761247224
2089+760949941+760584900+760475631+760921785+761346691+761552532+761579965
2075+761215384+761413857+762597001+762767253+761488063+761348336+763197158
2062+764979866+765292148+764876123+764893820+765345039+765939275+766289186
2048+765611403+764542725+764545554+765382865+765895989+765792772+765633112
2035+766207283+767643305+768962821+769328191+769019264+768730863+769088075
2021+770044063+770592974+770788355+771490413+771834798+771154120+770417328
2008+770279705+771155436+773082477+774520340+774243911+773088266+772391536
1994+772515475+773031625+773254702+773033204+773132342+773913341+774577507
1981+774716379+774811767+775378571+776597568+777690520+777646181+776702561
1967+776165558+777122335+778914451+780234888+780782548+780843860+780639466
1954+780177721+779958064+780617822+781744128+782579137+782489998+781599072
1940+781185218+781710117+782716825+783367439+783223304+783256394+784066339
1927+784689981+784488613+784644853+785549726+785405788+784569463+785142714
1913+786398353+786928514+787059426+787613599+788858252+790473932+791373937
1900+790814304+789611688+788784770+788720235+789372231+790128101+790615568
1886+790586622+790207240+790694904+792051589+793042575+793532870+793839429
1873+793523726+792053891+790187110+790257894+792476165+794501094+795279463
1859+795876988+796888038+797820278+798425434+798532598+798066511+797250053
1846+796152430+795779495+797444843+799136702+799273995+798797120+798489114
1832+797532666+795688646+795025993+795937839+797107234+798879219+800824417
1819+801949012+802717052+803639621+803722511+802712381+802637715+803740470
1805+803770402+802028151+800103413+800139266+801788957+802646399+801484438
1792+800410234+802883620+806465746+807744212+806999394+805897363+805288326
1778+805851380+806265957+804269513+800698570+800900464+804570085+807119518
1765+807673033+807479691+807979262+808911041+809092674+809126816+808849401
1751+807218590+805760728+806700007+808508832+809092542+807830851+806581330
1738+807723819+808368249+805103864+803559824+806315559+809649741+811581453
1724+811624542+810970639+809404824+804663894+800786459+804539297+809844926
1711+812022542+810886960+808141225+807085507+807179908+803008217+797007438
1697+797418200+801262545+805655998+808909989+809585272+807793420+802492791
1684+795980731+798536479+805033277+808396208+806146820+801727777+800309583
1670+801604627+805660472+808510805+806077878+801359841+801178077+803276159
1657+802115053+795260188+788375390+793090795+795941458+792381106+792002448
1643+796670553+799352016+798023027+792106848+785450062+788414401+795596810
1630+800523056+802117619+801539105+801333856+804131101+808349171+810046162
1616+809902290+813036881+817969837+821614196+823639190+825079619+827111061
1603+829924884+832398006+834166439+835636998+837053284+838750866+839971573
1589+840431082+841529692+843372659+845387260+848047738+849609606+846484883
1576+841644486+843121755+846181482+846555470+847230622+850002277+852942144
1562+853894382+847859987+836836785+840419109+848452974+854289882+857492428
1549+859012983+859324081+856146072+849080760+842726782+848431462+859540316
1535+863739374+863158493+865353805+868735221+869603715+868536747+865201512
1522+861985348+864857128+870085722+875272805+880937883+883774138+881795391
1508+874751393+871358136+881600272+891372704+895738724+895755039+894941936
1495+896587680+897986599+895738527+892824711+894810103+898257765+900157702
1481+901001790+900684969+898390453+894510584+890134235+890113907+895488478
1468+898683854+897142577+896123238+897677146+896386115+889873397+888956946
1454+898291578+905613912+908083087+909123083+911875134+915348517+918458899
1441+921254500+921505733+918291674+918757958+923341069+926097133+926941812
1427+927188901+926986152+927391124+926753207+922462642+919973007+923243181
1414+925367248+922423697+917862032+916113071+917278453+919663620+920641186
1400+916953738+909379579+903052375+899695760+899576426+901491757+901242629
1387+897220401+894266127+895028707+897492356+898646488+896404666+892868326
1373+893051998+895878847+896320725+894814379+893810697+892772478+892129824
1360+893369806+894859179+894869967+893444735+891777545+892208568+895688728
1346+899035936+899428146+898186585+896718724+895327765+896242177+899937454
1333+902493399+902393011+902834889+904076121+904213809+903963563+903990535
1319+905124998+908614959+912932496+915863153+917919922+921720784+927316656
1306+931315530+933202968+934606163+935833711+938610168+943134468+946548316
1292+948648437+951081760+953261612+954249177+954644282+954498371+954466465
1279+956785584+960684268+962204166+960637495+960255153+962278700+961910041
1265+958806040+958833933+962372049+963786690+963298763+965803001+969681621
1252+970426570+969536828+969614323+970311841+972356966+976207101+979934612
1238+981811853+981010921+978725286+978265711+979804489+980283272+979311628
1225+978596479+979239856+980885469+981623050+981497664+981478521+981601210
1211+983105187+986015714+988410157+989636916+989566658+987661655+985306485
1198+985119130+988448576+994108259+997027930+994669405+992358311+993388702
1184+993979452+993246278+994105956+994976490+995780317+999140090+1001597095
1171+1001422107+1002336584+1004344869+1005649058+1006195073+1006037979
1159+1005081859+1002863522+1000718075+1001266196+1004782669+1009672865
1148+1013115856+1013898039+1014355377+1015258211+1015984412+1016350045
1136+1014742193+1012155526+1011005143+1009204212+1006494001+1007444002
1124+1012307160+1014516024+1011352554+1010378212+1015029476+1018197420
1113+1016688903+1015895668+1020474963+1025286743+1021739549+1014768967
1101+1012942578+1014641213+1018005130+1024714479+1030033988+1028290159
1090+1022855197+1019616732+1019692450+1020754089+1022621002+1024850194
1078+1025828746+1026945052+1027570799+1027377391+1030381991+1036758665
1067+1040941080+1040509530+1039876941+1041735237+1045513402+1050916919
1055+1053574897+1050293211+1046012645+1044123102+1042870226+1040512490
1043+1038209291+1040933449+1048931198+1054455495+1054643246+1053385633
1032+1052101246+1048476557+1041581234+1037350862+1042824308+1054175711
1020+1060135111+1057915459+1054007565+1052555953+1052560755+1052857182
1009+1053505428+1052924480+1049900737+1046458733+1045152440+1045351637
997+1044880682+1044460513+1045907718+1047334990+1045013173+1040159093
986+1038110745+1039851351+1042541564+1046101915+1049326763+1049142960
974+1048367946+1048908173+1047750356+1046338610+1047841403+1051086052
962+1054607524+1056924473+1054977631+1051330575+1052494180+1055117424
951+1052308272+1048720554+1047769500+1046010606+1046746674+1052443723
939+1057162220+1057678172+1055562460+1053759884+1054437273+1055552263
928+1054383987+1051860276+1051030332+1052818698+1054146042+1053852510
916+1056481740+1061548568+1063156354+1063454229+1066317588+1068830379
905+1067761306+1064647175+1063152539+1063069452+1064018336+1067025501
893+1070933394+1073741823+1072427043+1067794265+1063261281+1057691132
881+1051700813+1050548391+1056487003+1063735723+1064413638+1058530220
870+1052003621+1047603393+1041561564+1035355076+1035719722+1037880958
858+1034713672+1029378769+1026166815+1026328712+1027175563+1025587578
847+1023444039+1021207677+1016481812+1011017247+1008795819+1008293747
835+1005670569+1001543809+997430468+993877353+989843416+983467268+978168284
822+977334524+979820277+984766127+989769736+989766579+983376024+975740290
808+972529125+974072113+976874227+976973496+973762463+970343023+969424138
795+968090215+958888008+946791326+944946648+951350294+953378052+947383917
781+939612009+935817265+936432092+937732333+936285062+934238951+934800492
768+934673592+930316387+924620785+920934390+917244902+910911383+905114406
754+903509318+903750157+903182432+902582472+901437418+899849170+899183755
741+898670763+897587942+895475979+892844644+890388297+888504279+890242649
727+894799446+895468480+890306986+884913206+882740129+881954327+881602312
714+880317398+877248987+875958812+878530809+881998535+882215231+879689480
700+877882892+878234184+878691916+876430819+875218072+877345297+875670936
687+870098418+870375768+873967565+869857185+862248423+862870091+873038088
673+881220232+876998215+867264531+863620567+864341044+866794036+870622528
660+869493393+865191776+864071589+860093897+851598879+848359559+850500335
646+851475993+851891096+849570859+838869608+825377757+829482677+875613835
633+935666420+926899118+883511393+862894037+852407180+837852703+817511513
619+800581407+793576881+787826019+777341070+763541082+764000656+790651749
606+815266204+815938132+814123452+816321001
##END=
