##TITLE=Sample description
##JCAMP-DX=4.24
##DATA TYPE=INFRARED SPECTRUM
##DATE=25/8/2023
##SAMPLING PROCEDURE=Instrument type and / or accessory
##ORIGIN=Default
##XUNITS=1/CM
##YUNITS=ABSORBANCE
##RESOLUTION=4
##FIRSTX=4397.6552
##LASTX=599.8556
##DELTAX=-1.9287962
##MAXY=1.9575216
##MINY=0.61737514
##XFACTOR=1
##YFACTOR=1.823084e-009
##NPOINTS=1970
##FIRSTY=0.74293905
##XYDATA=(X++(Y..Y))
4398+407517727+407273075+406905982+405679844+404231678+403479477+403191047
4384+403123632+403021723+402729206+402458104+402341222+402659796+403572035
4371+404631072+405337729+405376734+404723892+403994970+403796352+404247273
4357+405182398+405544194+404466881+403348961+403464928+403917419+403911207
4344+403722266+403893225+404481953+404849831+404608546+404093151+403541270
4330+403087504+403580634+404536389+404342904+403680515+403400063+403103230
4317+403146714+403808056+404644346+404935228+404438012+404105314+404511640
4303+404827108+404534886+404010762+403419516+403080442+403649129+404813148
4290+404784115+403059714+402096733+403017767+404161058+404383151+403503933
4276+402271942+402031115+402675130+403306066+403566248+403191571+402321899
4263+401773843+402243302+403493275+404395542+404373342+403949688+403544409
4249+403263727+403176564+403219851+403417783+403382146+402720771+402295548
4236+402774815+403244601+402536800+401066990+400485291+401268028+402667447
4222+403989510+404685247+404725494+404192706+403236918+402428058+401883042
4209+401510457+401773941+402907881+403990491+403939847+403090054+402573810
4195+402519047+402078620+401538116+401892230+402481906+402390263+401992242
4182+401621847+401446507+401760504+402149338+401838055+401274796+401554268
4168+402422958+403005997+402894444+402131749+401682201+402190991+403020317
4155+403406700+403173621+402727539+402418054+402098760+401824421+401932771
4141+402259257+402479454+402730154+402917134+402512181+401486819+400540054
4128+400274543+400756230+401625378+402231303+402030200+401267832+400863598
4114+400756295+400386718+400397311+400965409+401458113+402081922+403055039
4101+403748977+403626373+402885387+401920804+401247300+401295884+401585360
4087+401463508+401004282+400587069+400474142+400582819+400566243+400316686
4074+400019854+400019625+400383383+400681588+400838293+400652262+400040582
4060+400021946+400495427+400526944+400732951+401512255+401820335+401180407
4047+400518574+400694666+401554954+402270733+402234834+401717020+401256454
4033+400995814+400913915+401116914+401421986+401305169+401042731+401215455
4020+401472891+401499701+401543348+401492050+400978421+400272745+400026360
4006+400296350+400768883+401388016+401856952+401665821+401033348+400558167
3993+400355102+400311292+400254861+400033618+399927525+400066411+399982615
3979+399652696+399737701+400462928+401276071+401403677+400504777+399350992
3966+399162312+399703601+399800245+399710826+400048134+399912649+399184806
3952+399213904+399973853+400178585+399823622+399636708+399608395+399457608
3939+399293286+399539442+400177048+400344444+399813225+399610781+399777294
3925+399674110+399492493+399520251+399495468+399434297+399817900+400518247
3912+400953933+400824659+399705039+397679196+396420592+396742730+397570193
3898+398786327+399840100+399456398+397591150+396907248+397806312+397651667
3885+396988658+397249526+397093835+397164063+397805429+397439056+395967775
3871+394390139+394440129+396119738+396824434+396953184+398090263+398724371
3858+397716206+394600102+390258351+391757749+396567782+399234338+399255884
3844+397475281+394713062+391753270+390537202+391986185+393932744+395802178
3831+397648529+398687753+398847236+398098927+395361294+392246629+393039370
3817+395302901+397425618+399741036+400953116+400318811+398303430+396599692
3804+394895889+393043358+393927350+396028619+397938201+400204054+401903051
3790+402567598+402433518+401494339+400479406+399999354+399512927+399855270
3777+401431925+402243073+401395896+399813781+399259088+399825616+400468519
3763+400950042+400563791+399444367+399301721+399599371+398565803+396927748
3750+398247065+401475082+404694075+408689756+412559498+414922976+415351306
3736+414016622+413145022+415006118+418076156+419846983+419317268+417321438
3723+415256198+413537355+412365686+411858399+411607797+410876325+411583766
3709+416678012+423359375+428932659+433933497+440774507+449544192+458028226
3696+464969216+469483201+471142540+471554555+474085625+476665279+475896960
3682+471872050+465737926+458134614+448693843+441607201+438925279+434620668
3669+429919017+428870409+428702262+427547855+425758915+423791235+421483730
3655+419908383+418635328+414447600+408320832+408483323+412917698+416486684
3642+418019856+417788543+417192099+416888891+416024549+414072007+410383751
3628+406587473+405882058+405200249+402145350+396838558+391906084+389596649
3615+387994819+386254692+385220340+384886039+385401467+386134704+385365666
3601+383285975+381751529+380501622+378596813+377110918+376329162+374766566
3588+371820767+369340308+368310794+367598939+366307412+364455307+362582408
3574+361483156+361258186+360696431+358638776+355956494+354823797+354748469
3561+354510323+353838584+353039663+352142071+351081922+350373565+350091053
3547+349692377+348934913+348147011+347582117+347125540+346836848+346560025
3534+345921111+345167766+344918929+345268988+345382765+344602088+343352606
3520+342395346+342049505+342253976+342435266+342163902+341598878+340933187
3507+340594669+340728847+340822190+340670913+340519799+340408867+340231369
3493+340090979+340010486+339818144+339657419+339977039+340506950+340431720
3480+340181804+340496063+340850503+340566552+339859176+339660721+340216003
3466+340501817+339906354+339140749+338989766+339394915+339749225+339466876
3453+338800433+338643271+339185933+339827135+340287669+340545660+340745096
3439+341544932+342636467+343074376+342943468+342584418+342291934+342351536
3426+342556137+342671810+342636075+342524162+342841363+343875226+344903824
3412+345388977+346127968+347818498+349665339+350639632+350808891+350582973
3399+350546813+351357307+352935760+354691679+355816955+356390643+357507125
3385+359290997+361015724+362452120+363830974+365572049+367964724+370669728
3372+373304047+375931009+378383122+380494364+382612274+385262254+388666755
3358+392392772+395878454+399312772+403215143+407264410+410798120+413883393
3345+416940875+420069304+423170369+426637087+430753509+434854073+438075813
3331+440148769+441721500+443811098+446450648+448588535+449803982+450741102
3318+451412187+451856863+453127989+455192739+456865548+457839318+458520114
3304+459009712+458954982+458216350+456978147+455655267+454924514+454123893
3291+451992676+449236243+446995565+444996335+442716620+440431608+438234936
3277+435621901+433235537+432340855+432178036+430917242+428538463+426485254
3264+425216482+423957356+422760152+422182344+421701474+420778086+419521117
3250+418367136+417707820+417108042+416449413+416466545+416500154+415033353
3237+413017612+412562637+413335271+413595518+412848059+411754758+410617320
3223+409540301+409060445+409188018+409415441+409397066+409103700+409174156
3210+409838049+410172643+409527419+408462203+407987022+407867590+407215173
3196+406571191+406413179+406036638+405345772+405025302+405241902+405452389
3183+405280874+404825996+404455111+404622147+405046389+404701333+404059934
3169+404971062+406841508+407214159+406117850+405851195+406884763+407294489
3156+406551051+406321013+407455215+408510460+408089813+406997232+407094171
3142+408934048+410279783+409468079+408225234+408898902+410851640+410841799
3129+408867646+408603966+411308806+413413247+411937095+409748433+410626507
3115+413927465+415304161+412939407+410729625+411947459+414667895+414475750
3102+411511446+410281581+413016631+416824450+416583002+413274459+412558288
3088+416131133+419314391+417344357+413274525+412493325+415280424+417172286
3075+415171748+412201396+412296341+415529687+417122787+414468590+411628983
3061+412008793+414213475+414420529+412323673+410851706+410942694+411982834
3047+412594710+412213199+411874191+412008663+412100828+411729485+411191728
3034+410928276+410956982+411148179+411350721+411636960+412402303+414935302
3020+423372682+438914326+450657698+448166515+437624564+428823918+423850151
3007+420700764+418380017+417238656+417038272+417203803+417233294+417044843
2993+417383067+419010627+421043434+421685879+421205795+421403269+423299250
2980+425677931+425862230+423903344+422206799+422067096+423606054+425180061
2966+424901766+423641266+423378894+425219131+427251121+426529392+424775631
2953+424484259+425669006+427731238+428416938+426873369+425344285+425556406
2939+427546972+428978758+427823730+425803380+425348928+427197338+429608126
2926+429431216+426932873+425001844+425274809+426897694+426707053+424249905
2912+422689826+423257368+424931322+426241321+426133691+425139226+424655708
2899+425638404+427270901+427553903+426400412+425448744+425441747+426097106
2885+426644770+426457268+426094000+426393481+427313403+428031700+427797869
2872+427083366+426782969+426978515+427468604+428051905+428234012+427908017
2858+427802806+428177386+428166499+427270345+426235632+426024557+426676843
2845+427308369+427237422+426884453+427006926+427673598+428506357+429328033
2831+430168083+430850840+431191777+431322849+431498156+431805255+431981510
2818+431893334+431934725+432462837+433272187+433848263+434135352+434429994
2804+434670658+434781819+434877973+435000185+435286032+435569492+435480139
2791+435297573+435369860+435588782+436020217+436859058+437674325+437709570
2777+437341921+437562870+438137049+438353290+438355938+438605070+439199127
2764+439761078+439892477+439865341+440175415+440604038+440697054+440652786
2750+440698721+440706699+440917578+441504573+442045894+442294764+442415700
2737+442607420+442835072+442928741+443005802+443221291+443480982+443847617
2723+444425949+444894982+445068165+445245336+445626716+446149401+446604148
2710+446903988+447121275+447305377+447555522+447687412+447628627+447803019
2696+448340580+449059988+449634461+449697333+449506953+449495968+449523137
2683+449431135+449422634+449656759+450095027+450604799+451024202+451218669
2669+451248126+451270457+451263002+451292100+451528514+451867326+452159025
2656+452439837+452673439+452847667+453039845+453146886+453224863+453509892
2642+454044642+454664234+454974961+454960085+454868345+454583936+454419614
2629+454780985+455201174+455519519+456145323+456745592+456909620+457025979
2615+457305745+457564391+457757255+457827744+457854684+458139845+458604825
2602+458976593+459314522+459656342+459855451+459909430+460092551+460594050
2588+461135699+461300773+461095354+460935903+461079824+461454077+461911373
2575+462302856+462455506+462260680+462073309+462325383+462738248+462894461
2561+462891290+462886778+462815276+462817205+463012063+463019060+462807396
2548+463029587+463703288+464096765+464120927+464079634+463896414+463815888
2534+464260009+464985007+465358148+465206054+465000569+465072791+465377994
2521+465799359+466194144+466543418+466830541+467006763+467102329+467187596
2507+467445849+467848481+468139363+468394902+468787366+469043886+469016456
2494+469128957+469449395+469644156+469740114+469836235+470005690+470333779
2480+470746186+471062177+471115502+471164053+471404684+471547885+471590159
2467+471701614+471842560+471999362+472113531+472167542+472318296+472618039
2453+472891004+472975519+472952437+473093023+473530441+474003693+474109852
2440+473878833+473814196+474095335+474337960+474406978+474580684+474962129
2426+475299797+475379866+475521956+476032217+476507169+476505534+476184213
2413+476093781+476448417+476834342+477068695+477316519+477666676+478122272
2399+478516730+479001065+480265162+483383750+489903897+501133149+517215167
2386+537218616+559932857+583937088+607481179+630006184+652986100+677350165
2372+701529442+724225897+745315684+763646782+778207889+789829899+798866567
2359+800330034+789361846+770128055+748598137+728619502+717195816+720224233
2345+732736185+737382060+729856527+721245149+715669641+713343042+715616742
2332+720236068+720613100+716371851+714006411+714976977+714673573+709700624
2318+699534691+687750059+682521962+686189097+689830600+684596030+670499838
2305+653375948+639924228+631476321+624108964+615615612+606162679+595211034
2291+583157850+571894497+562328245+554027071+546572060+540154051+535064121
2278+530994943+527333267+523698631+520239955+517471785+515420375+513649286
2264+511960784+510467271+509295144+508295251+507284961+506376841+505519627
2251+504512410+503555183+502807201+502192513+501849843+501841637+501995072
2237+502097863+501967936+501771540+501734988+501682742+501583155+501685815
2224+502016421+502329601+502404144+502497323+502892501+503398773+504009113
2210+504715573+505210370+505421413+505432300+505413762+505622941+505951258
2197+506075726+506208171+506799940+507630018+508256279+508591593+508677644
2183+508758759+508977387+509083840+509086030+509296190+509604269+509749661
2170+509944945+510362779+510771002+510925581+510831683+510770348+510809418
2156+510684394+510512912+510602495+510724183+510598146+510334989+510091252
2143+510235794+510875460+511437902+511756705+512022445+512257682+512622224
2129+513097143+513511806+513834892+513991760+514101842+514371898+514743372
2116+515215250+515664275+515924686+516248361+516596818+516681300+516594431
2102+516564515+516909082+517698717+518307356+518326090+518310658+518665033
2089+519022873+519152899+519311957+519694841+520184342+520701927+521095862
2075+521224939+521475640+522170298+522941461+523396011+523872303+524643106
2062+525346036+525831450+526256118+526764385+527434751+528293600+529352801
2048+530485204+531326856+531776502+532445266+533339818+533838048+534158355
2035+534549936+534765882+534808516+534971726+535223277+535197514+535039109
2021+535198658+535649645+535950466+535952133+535892270+535739064+535481922
2008+535418103+535627936+535773197+535622018+535407085+535353891+535389855
1994+535409177+535515303+535724188+535810763+535875367+536094877+536391971
1981+536713324+537024706+537297345+537513880+537762586+538031236+538095448
1967+538216221+538791283+539524945+540082319+540438819+540637209+540842431
1954+541272690+541908334+542398227+542507819+542354940+542192972+542650072
1940+543824423+544697690+545245812+546197121+547107202+547308763+547294018
1927+547507905+547554593+547386478+547426136+547581140+547963403+548817675
1913+549569058+549750447+549768559+550259499+551058223+551563744+551703807
1900+551760891+551620371+551298265+551376339+551796005+552175260+552853603
1886+553719155+554116654+554160791+554492508+555143127+555700371+556118467
1873+556200530+555334651+554012097+554493882+556654916+558234645+558671834
1859+558689947+558692039+558816932+559169181+559587997+559639458+558981189
1846+557882068+557659877+558962814+560182512+560425235+560376455+560535284
1832+559741857+557999506+557948568+559375091+560446682+561450924+562567765
1819+563461237+563960546+563873775+563168295+562475893+562673368+563390160
1805+563842781+563936875+563803548+563852720+564213078+564036855+562991419
1792+562759158+564573436+566500967+567370180+567309761+566725577+566510775
1778+566968497+566727604+564872982+563058769+564548588+567790107+569713453
1765+569886734+569406649+569823699+570856581+571262776+571227466+570613269
1751+568870592+567479576+568310275+569933160+570759347+570664730+570484518
1738+570553373+569487993+567632389+568724513+571511450+573799731+575288176
1724+575991760+575799713+573785607+569811471+568681357+572685571+575878179
1711+576735231+576083043+574307279+572623648+571553952+569023340+566048280
1697+566958165+571248456+575254436+576485903+575712877+574330949+571775293
1684+569347145+571267811+573823598+574527901+573462586+571844148+570468956
1670+569589869+571518708+574435179+574899309+573823205+574062659+574607021
1657+572995187+568142422+563932821+566726885+568201207+567355206+569713780
1643+573718387+575544370+574814238+571947789+570710437+575457795+580517254
1630+583088146+584312224+585477060+586927972+589704381+592534278+593646084
1616+595684515+600380281+603854323+605015497+605801536+607737633+609955164
1603+611722100+613275935+614598292+615624177+616812096+618549346+620509637
1589+622268661+623672428+624811370+625749373+626325187+626395741+625847783
1576+626595831+629804656+631805815+632140409+633852877+636592995+638316905
1562+638406357+635059170+631318276+636760652+643635500+648945921+653026510
1549+656348981+658225639+657540692+654294922+651449136+657332101+666292329
1535+671297516+674709046+679351651+683440610+685666445+686372382+685650097
1522+686905628+693839915+702021297+709730833+716834804+722042565+724771371
1508+724258003+726016308+735661419+744190604+749136810+751849399+756696671
1495+764532866+770503256+773812715+777902196+785038142+792583683+799128318
1481+805053721+810000646+813252562+814661691+815602898+820743962+829188861
1468+835781622+839720121+843956858+849377720+852738444+853835275+859302826
1454+868139666+874700909+879262236+882698745+886224248+889953110+893129502
1441+895652202+896792779+896669391+898732146+903189112+906882338+908941497
1427+910759240+912449671+912842200+910052322+903586219+900137417+901657380
1414+902151654+901229737+899814527+896594717+891774385+888173358+885675570
1400+880927428+875485444+872672941+871290229+869913729+867040610+862201381
1387+858453098+858275437+860292420+863052547+864489401+862934259+859617477
1373+857816800+859084623+860989857+861840239+861622298+859827833+858393137
1360+859682866+861501590+862368188+862986701+863007821+862028101+861001366
1346+861130574+863261726+865649987+865745781+864905339+865413868+866204745
1333+866035911+865856485+866495333+867585888+869203803+871079154+872770370
1319+874234099+875233305+876344457+878806738+882299089+885685444+889788919
1306+894994064+899565592+902609833+905074206+908174028+911495845+913798839
1292+915026841+916060638+917709155+920515054+924180750+926914264+927959504
1279+928429584+928937852+929772605+931549284+934080747+935140176+933689264
1265+932564184+933456414+935074460+936578076+937752263+938400854+938875054
1252+940343687+942817541+944361240+945423351+947337477+948951600+950657659
1238+952398113+951899327+950431479+950834144+952524248+952890426+951349015
1225+949573709+947930292+946187877+945085552+945019509+946200235+947876608
1211+947947555+946768464+946171006+945493382+944465601+944370983+945557529
1198+947724906+949803616+950017111+948580322+948264691+949110495+947474532
1184+943433896+941674480+944556622+948659247+949331836+947316161+946578313
1171+947747465+948190082+948024191+949294891+950415721+949220675+948116716
1157+950485294+954206571+955129665+954547443+955645125+958249692+960308066
1144+961752832+964174310+966690014+967766641+968131968+969022237+971200207
1130+973919139+975207364+975046704+975274126+976422288+977092458+976189896
1117+975621471+977781264+980510985+980079549+977142938+975787886+978284888
1103+981713027+983159428+984034788+985587379+988194954+991924863+995106093
1090+996065805+995256422+996680198+1002400869+1007414359+1007466474+1005777416
1076+1007530098+1013107697+1019136415+1023075567+1025189914+1027631663
1065+1030120557+1031569312+1033761014+1035534620+1033715830+1030848792
1053+1030890445+1034635785+1041562225+1047181086+1045433374+1039766126
1042+1037913072+1038984402+1039005196+1039839557+1042902696+1043800092
1030+1038347581+1030769214+1030540288+1038850094+1045142328+1043853711
1018+1042224810+1043288032+1042953961+1042534099+1044411935+1044577369
1007+1041906563+1041120786+1043283847+1045689698+1046244129+1044608428
995+1041478135+1037607968+1036314447+1039155852+1042045514+1042487804
984+1042741774+1044604113+1045055622+1042441836+1039950195+1037516881
972+1036153983+1039727677+1044692649+1047328014+1050795256+1054545239
961+1055643182+1055461859+1054518952+1054191812+1060986690+1072948853
949+1073741823+1061661633+1053053327+1052237144+1052766925+1052781310
937+1055285113+1060649741+1064343294+1064752758+1065244809+1065589997
926+1063172638+1059769870+1057032694+1055305449+1056166881+1057912762
914+1058231009+1058126910+1057356500+1055218024+1054236407+1057405541
903+1063839800+1069186577+1069649988+1066762156+1066156394+1069065412
891+1070855561+1068971906+1065570053+1062461927+1058948521+1056631403
880+1058423187+1059856771+1055897937+1048388359+1039247723+1033491677
868+1035434836+1040253926+1043114817+1045132781+1045061900+1039243538
856+1031582586+1027546462+1024188942+1019123599+1015198570+1011816007
845+1005810437+1000340402+1000540165+1003932536+1005028910+1002521053+996248763
831+987151937+979711737+977874573+981550013+985908962+986023784+983875370
818+983469763+983352978+979855920+975648608+975455122+976622835+974146888
804+968156423+962138299+956530555+950336339+947897205+950693492+951568264
791+946659984+940003665+935615422+935025550+935983430+934449147+930232615
777+925415291+923851779+926049170+925573336+922896841+922861074+921417681
764+915404003+909545755+906042353+902883289+901446566+902356124+901030889
750+896364417+892550550+891753133+891738748+891508514+894630175+899611822
737+899451619+895158125+891036995+886995444+884627257+885604951+888903685
723+893567803+896149680+893622534+890229639+890194787+892119964+894776973
710+896502584+893756777+889777672+889625381+890250237+888456295+884989642
696+880467025+877966884+881249729+887934100+892261466+892725138+889372588
683+883543830+880498150+883544942+890894578+895285437+894918671+897007778
669+896188521+884875865+880638278+884439657+886588464+885978778+882151114
656+875231605+871445985+872952936+874010076+870464434+861248797+851879169
642+853982923+864597358+868468113+863112182+854078849+849923652+855470846
629+858447344+854802114+855880899+862625558+865975361+859841695+851231428
615+851767093+856927120+848913983+829275043+815950701+817341913+833747180
602+850436104+851259349
##END=
