##TITLE=Sample description
##JCAMP-DX=4.24
##DATA TYPE=INFRARED SPECTRUM
##DATE=25/8/2023
##SAMPLING PROCEDURE=Instrument type and / or accessory
##ORIGIN=Default
##XUNITS=1/CM
##YUNITS=ABSORBANCE
##RESOLUTION=4
##FIRSTX=4397.6552
##LASTX=599.8556
##DELTAX=-1.9287962
##MAXY=1.9408731
##MINY=0.61624318
##XFACTOR=1
##YFACTOR=1.807579e-009
##NPOINTS=1970
##FIRSTY=0.73193192
##XYDATA=(X++(Y..Y))
4398+404923898+404984473+406297762+406810949+406463197+406132096+406133844
4384+406052693+405792917+405817549+405821671+405747478+405718460+404912389
4371+403991138+404818411+406753507+407978160+408336036+407832148+406713904
4357+406326681+406671070+406382672+405564104+405599190+406284803+406320020
4344+405777287+405321245+405245501+405294799+404954960+404670123+404662143
4330+404158090+403584064+404390530+406096879+406821304+406634600+406654484
4317+406588369+406362030+406517803+406695735+406712882+406783415+406651219
4303+406130546+405354615+404796384+404941111+405667645+406361634+406600339
4290+406574553+406457261+406036106+405432667+405043432+405000762+405762613
4276+407184884+407619262+406669619+405819627+405731386+405724395+405393756
4263+405298855+405471808+405289325+405145588+405637440+406270459+406534785
4249+406478035+406330770+406223404+405788267+405281345+405491758+405726209
4236+405124319+404478671+404524506+404703428+404367744+403923968+404350201
4222+405696070+406627082+406511604+406298454+406180734+405645223+405197391
4209+405032121+404897650+405263011+405716646+405435173+405341524+405949745
4195+406006165+405498451+405426401+405375323+405183080+405188323+404858311
4182+404266643+404036413+404004922+403954767+404345057+405257669+405961155
4168+406256214+406149441+405545935+405315639+405728418+405555366+404619771
4155+403932080+403785804+404196110+404879942+404998025+404558240+404258564
4141+404503040+405217341+405681462+405073933+403493251+402108142+401903204
4128+402786237+403925485+404585015+404711705+404366557+403883673+404228524
4114+405347130+405953834+405619700+404968348+404496181+404560746+405242138
4101+405726440+404984407+403541559+403017688+403548220+404095108+404100252
4087+403626898+403540702+404381659+405319761+405379181+404810497+404662605
4074+404896133+404793977+404564175+404326657+403755962+403116118+402842097
4060+403011851+403328410+403495460+403789992+404029191+403595077+402993715
4047+402999584+403348293+403378004+403489558+404331768+405112250+405249623
4033+405064832+404537597+403864152+403342952+402969709+403109226+403747916
4020+403913977+403428950+403094882+403163832+403320100+402918137+402318357
4006+403046112+404521868+404540169+403163107+402271038+402409170+402749701
3993+402967566+403178737+402985669+402217949+401753036+402451971+403879057
3979+404979460+405196765+404376120+403167327+402714154+402905573+402907156
3966+402904815+403380378+403734891+403344040+402725992+402450059+402638444
3952+403515476+404946584+405763273+405533438+405196929+404821379+404316534
3939+404255333+404292726+403558673+402141777+401402349+402014428+402772058
3925+402579089+401788649+401477531+402382427+403962582+404453314+403964560
3912+403412693+402866234+402343418+401673006+400890480+400140632+399758816
3898+400996560+403200995+404233536+403137386+401902017+401893080+401668588
3885+401763159+402797020+403131781+403048684+403189091+402570648+401442611
3871+400900307+401154180+401559507+400943800+400138258+400996494+402321292
3858+402591982+401143628+397824940+397085776+399495446+401562145+401867756
3844+400689828+399295717+397850760+396783034+397678334+399346235+400376699
3831+401100332+401577082+401496426+401086713+399771512+397845484+398000399
3817+398981731+400447364+403353998+405618381+405624086+403919121+402954772
3804+402508028+401001704+400440901+401147750+402270774+404156573+405723604
3790+405897942+405062887+404469735+404963599+405483217+404774456+404440981
3777+405558235+406138394+405213944+403740760+403773010+405106018+405696861
3763+405421686+404537894+403651728+404258729+405104072+403814261+400997549
3750+401771172+405487504+408311569+410858348+414647884+418130325+419447143
3736+418426142+417859338+420180998+423816145+425873149+425103450+422713928
3723+420435597+418770664+417322837+415465792+413917095+414091038+417288015
3709+422994577+429063697+434354808+439265390+445338830+452675206+460141965
3696+467256289+473247324+476535411+477280445+479320368+481457303+480124427
3682+475643046+469600207+462230394+452144377+444216366+441473155+437227511
3669+433159734+433541055+434533202+433653532+431366891+428445484+425421460
3655+424131517+423800713+420998378+415690615+414062449+416542850+419507618
3642+421026968+420937078+420323845+419399428+418009901+416029596+412271024
3628+408839562+408678744+408285486+406150133+402530979+398498715+395503841
3615+392450534+389360230+388170003+388726849+389410781+389333752+388301375
3601+386736883+385778634+385369977+384477414+383208377+381734994+378871162
3588+374857496+372908155+372568613+371279527+369009934+366936706+365587112
3574+364828031+364073797+363058303+361533217+359203576+357713674+357757530
3561+358134400+358010678+357666487+357010452+355420471+353854693+353618956
3547+354099531+353774597+352510144+351431338+351000654+350766829+349873145
3534+348656901+348106221+347925156+347497208+346904749+346156945+345352689
3520+344989735+345041010+345035405+344787994+344558391+344475030+344105184
3507+343778173+343980935+344040586+343699198+343170083+342531558+342432172
3493+342717438+342343107+341703758+341917303+342682286+343173546+343252026
3480+343137735+343023049+343053583+343299971+343314216+342692509+342084650
3466+342171836+342466994+342319332+341978043+341958818+342183575+342174738
3453+341936725+341878689+341694756+341075950+340921858+341756715+343078215
3439+344347747+344978589+344849657+344501377+344240777+344273455+344644719
3426+345198004+345902643+346125355+345668390+345867492+346995891+347868901
3412+348363523+348867214+349217143+349878322+351156889+352320406+352850246
3399+352856347+353163771+354646518+356770758+358333436+359351007+360778125
3385+362629465+364146045+365625362+367734599+369810794+371207576+372668329
3372+375095080+378388970+381407851+383598931+386091565+389550198+393036069
3358+396159710+399849497+403969902+407070725+409301771+412476490+416734730
3345+420497457+423558645+426672130+429976935+433459112+437090105+440657720
3331+444088489+447425676+450003485+451272786+452170658+453515174+454631802
3318+455232933+456473348+458627529+460326294+460651591+460620067+461604103
3304+462850981+463026506+462121445+461015469+460428945+459431489+456865089
3291+453642952+451213662+449510873+447586362+445294907+443290729+441409942
3277+439116047+436903929+435074451+433531327+432387826+431156215+429767710
3264+428620581+427503360+426458288+425374866+424124790+423278062+422544371
3250+421482383+420575641+419794632+419147698+419362166+420199497+420187560
3237+418892209+417587361+416851000+415774767+414042400+412786058+412620788
3223+412720174+412664876+412717833+412229080+410924958+410291313+411033544
3210+411762783+411321678+410238553+409296660+408706146+408650847+408804510
3196+408814666+408938025+409097557+408997545+408761445+408693286+408654573
3183+408292048+407943306+408360009+409277402+409413226+408714027+408675710
3169+409794019+410668974+410207854+409316510+409689225+411023981+411243462
3156+410111699+409434626+410386577+411921491+411868863+410418002+410166074
3142+412007588+413220766+411922579+410332037+411024047+413157058+413822194
3129+412784871+412784014+415134659+416995265+415592416+413440114+414338085
3115+417976201+419395108+416254716+413520342+415163940+418662242+418924557
3102+415834979+414356617+417044463+420378814+419244479+415489501+415087208
3088+419358078+422493788+419760173+415807675+415730844+418691326+420691646
3075+419126825+416621890+416722991+419032121+419511444+416856012+414885864
3061+415866173+418404379+419157129+417151368+415039263+414485945+415252247
3047+416072661+416102372+415800883+415708256+415688175+415313350+415058586
3034+415577313+416313015+416667660+416778224+416741259+416754482+418541290
3020+426904537+442890876+454947272+452576281+442289744+433676021+428362783
3007+424805918+422636503+421692301+421362025+421360211+421308771+421268278
2993+421950692+423745249+425515240+425513163+424617599+424876781+426806502
2980+429379992+430081993+428420489+426721724+426449978+427799144+429036658
2966+428565051+427841121+428217595+430178807+432426934+431736374+428937337
2953+427684788+429258578+432037666+432809442+431213756+429972912+430559106
2939+432651987+433936753+432382747+429933442+429290597+431034472+433362364
2926+432952718+430012845+427946476+428618108+430881007+431115623+428588233
2912+426685617+426910901+428298252+429432685+429395820+428825783+428784103
2899+429894960+431612982+432035258+430966379+430275160+430751943+431797905
2885+432445630+432154495+431561443+431587394+432429704+433258329+432987341
2872+431950645+431335367+431577666+432232217+432613670+432742503+433073966
2858+433389074+433324971+432991496+432424230+431676987+431208810+431511585
2845+432422119+433094542+433115416+433103578+433637638+434429826+434862192
2831+434709848+434471671+434745428+435310255+435875147+436611904+437195262
2818+437201230+437138974+437626837+438409396+438843905+438845356+438881991
2804+439069091+439184272+439464360+440002015+440168307+440039244+440475798
2791+441219051+441491852+441568419+441885604+442201635+442261254+442364366
2777+442760625+443071677+443177856+443481686+443892256+444090369+444261179
2764+444522438+444726849+444995561+445390369+445562861+445511816+445643088
2750+445861646+446030510+446420701+446903156+447163559+447287808+447460036
2737+447789356+448195935+448498579+448855465+449358332+449712778+449994615
2723+450354502+450490227+450414582+450441589+450729162+451249242+451702085
2710+451899407+451879457+451807869+452076449+452685230+453170587+453551875
2696+454110008+454536142+454528821+454403879+454362760+454397449+454689079
2683+455129392+455331924+455267821+455299213+455742625+456539496+457304182
2669+457587107+457331090+457039328+457138385+457552054+457972747+458087764
2656+457959360+458052118+458301902+458282249+458147679+458296857+458848658
2642+459550000+459949853+459952491+460027311+460451170+460724795+460651558
2629+460739074+461160690+461742234+462285495+462680831+463022285+463196491
2615+462952708+462542501+462649405+463534319+464578071+464982376+464787989
2602+464725667+465081004+465514722+465817860+465951705+466007498+466245181
2588+466512343+466516333+466485205+466727174+467067640+467129995+467067310
2575+467286494+467715694+467984505+467859827+467657560+467982758+468661116
2561+468883598+468733100+468965012+469383826+469469627+469385343+469307918
2548+469296542+469449809+469636776+469788361+470104162+470427678+470472029
2534+470552092+470723693+470626681+470592816+471023434+471673138+472232358
2521+472513337+472598247+472694270+472785940+473028734+473497010+473910679
2507+474211014+474526419+474697064+474526122+474390529+474690172+475264825
2494+475860944+476253180+476360117+476320481+476281637+476446511+476749583
2480+476857411+476801947+476863214+477162461+477514567+477549916+477505795
2467+477862418+478294323+478433312+478353645+478152795+478233550+478894597
2453+479458830+479245021+478907787+479196746+479697996+479897098+479869762
2440+479935184+480260646+480587592+480778747+480997535+481084556+480961362
2426+481050888+481485860+481855574+481978504+482057611+482046960+481961786
2413+482223672+482725549+483024169+483215918+483436421+483715322+484104953
2399+484436086+484975819+486707625+490563209+497237055+507670363+522985005
2386+543306481+567061233+591861156+615767658+638317706+660947488+685307394
2372+710930040+735705561+757134267+773272488+784927844+795696837+806382864
2359+809457571+797841653+777124808+755668865+736712877+726130984+729988316
2345+744041339+751259534+745158923+735032544+726735149+722754953+724665383
2332+729206020+729122924+724678639+723213963+725241916+724152361+717028079
2318+705606052+693668827+688658562+693036765+697658322+693058331+679133909
2305+661837282+648106818+639365053+631907791+623640073+614052306+602566638
2291+590329408+579094877+569391302+561107953+554004841+547855559+542714187
2278+538522424+534827889+531261494+527922230+525127908+522895082+520942213
2264+519180399+517681462+516241747+514840118+513906501+513355326+512619427
2251+511592359+510614655+509940748+509365501+508764106+508508683+508569455
2237+508483952+508218570+508104411+508260250+508381070+508326266+508417804
2224+508800972+509199704+509471680+509889966+510519654+510972069+511148386
2210+511403215+511738273+511785427+511744966+512111449+512743346+513307875
2197+513834846+514277105+514641378+515098772+515323232+515175010+515144410
2183+515323265+515634614+516203628+516723147+516902464+517091937+517361770
2170+517340732+517215593+517276794+517333379+517271287+517213417+517245138
2156+517295227+517239862+517127715+517099818+517189675+517348976+517426599
2143+517365629+517456441+517981994+518698604+519135949+519472787+520097034
2129+520766193+521164397+521258969+521132082+521154010+521600753+522126175
2116+522444217+522692287+523002118+523478770+523941143+524149379+524292787
2102+524559883+524864901+525126424+525406710+525619398+525685546+525818830
2089+526231115+526761251+526914156+526733849+526866837+527498107+528194800
2075+528695292+529149389+529692287+530375361+530939000+531108886+531307494
2062+531989183+533048500+534214227+535402508+536448570+537067244+537467427
2048+537995156+538583197+539086755+539559912+540164176+540917552+541548922
2035+541856115+542087665+542396177+542525340+542452235+542381174+542371248
2021+542522339+542749668+542800977+542939504+543289862+543407021+543254018
2008+543168877+543261108+543332894+543114732+542736972+542628221+542722101
1994+542484550+542160803+542560557+543360824+543799389+543951139+544107473
1981+544308982+544682192+545288500+545743652+545805150+545864076+546126193
1967+546273294+546274349+546527563+547252219+548249279+548932287+548954809
1954+548848828+549232028+549811331+550154170+550309844+550310900+550431060
1940+551030938+551908531+552922607+553796308+554110427+554163714+554393021
1927+554657479+554772562+554876828+555052914+555302533+555920680+556750129
1913+557138243+557168118+557463243+558144834+558851682+559425511+560127281
1900+561043587+561441197+560971767+560460327+560283978+560221194+560654351
1886+561581736+562259699+562507538+562687515+562921043+563221971+563629079
1873+563878896+563471525+562575532+562892618+564635603+566097114+566639155
1859+566534163+566132991+565975437+566335324+566934478+567323515+567209752
1846+566703390+566760964+567813455+568542859+568642641+568913496+569319746
1832+568821760+567384980+567021333+568104689+569001605+569348698+569647846
1819+570241789+571104081+571677646+571566059+571256293+571438446+571900490
1805+572490476+573040233+572764101+572051713+571904381+571592439+570754086
1792+571174054+573436722+575336469+576069104+575986008+575629352+575663250
1778+576224416+576290761+574924943+573166131+573816395+576102277+577931392
1765+578664093+578349711+578218801+578769942+578999315+579280525+579625112
1751+578574533+576737571+576936277+578465914+579413084+579587521+579836613
1738+580305515+579568066+577749832+578567609+581035051+582841281+583973835
1724+584670990+584722562+583278132+579898803+577719825+579644765+582270025
1711+583641779+583254984+581487664+580572809+580999636+579955652+577326435
1697+577012383+579659010+582620745+583543579+582747699+581390981+579183909
1684+577500411+579652349+582012491+582466027+581383727+580449813+579971744
1670+578919516+579488662+581630049+582289084+581899519+582640003+583185077
1657+581646602+577586013+574298091+576748057+577822443+576368252+577868872
1643+581793143+583850312+583119523+580302482+579556524+584659778+589587210
1630+591835501+592679921+593644567+595458514+598876489+602095691+603227916
1616+604336530+607879018+611377386+613406856+614674871+616240781+618167369
1603+619903957+621126334+622346206+624010776+625796167+627391028+628787975
1589+630335682+632161236+633528769+634338763+635200000+635472966+634608497
1576+635219192+638306825+639968823+639830131+641102630+644122599+646424177
1562+646725304+643871330+641351788+646489402+652472029+657316034+660987652
1549+663829688+665821962+666046191+663345881+659707898+665259543+674682898
1535+679994816+683486985+687870661+691976954+695144518+697719260+698989187
1522+700308907+704634481+711004761+718354063+725380872+730776810+733578353
1508+733409456+737537710+748161283+755846006+760285871+762298260+765083382
1495+772261149+779375671+782838558+785296239+791424153+799573030+806759239
1481+812068454+815692390+818236465+820622262+823822932+829809252+837829000
1468+844165842+847639413+850780465+854601459+855754194+854675982+860640473
1454+870911149+878048358+883479579+888014083+892815023+897757887+900690406
1441+902576963+904259010+905300422+909025129+913724771+915002414+915824345
1427+918865748+920306353+919625488+918631296+914808654+910257070+909676448
1414+908592301+905185867+902135562+898960941+894611888+892463049+892247328
1400+889344882+885214188+883187026+880516393+876755744+874575381+872735120
1387+868519813+864633068+865112324+868440674+870626049+869696290+866379877
1373+864321521+865709829+866890460+866619209+866984175+867121680+866179390
1360+865513496+865346380+865017423+865133890+867354482+870500481+872389808
1346+873264301+873509765+872396996+870043977+869054072+870250136+871681046
1333+873103054+875216412+877700077+878437791+877703836+878676397+880546005
1319+880969600+880955025+882000921+885018252+889013946+891704100+894315906
1306+899000445+905193715+910966490+914562991+916491624+918097302+919629709
1292+921569290+924025718+926072665+927253032+929278150+933034315+935189881
1279+934463643+934913618+937922177+940617607+941639300+942054123+943095667
1265+944474939+944414397+942716984+941742643+943022001+945474934+947210533
1252+947489236+947711882+949739506+953004609+955320961+955370753+954322548
1238+954406238+955548421+956458791+956725953+955999451+954977956+955037311
1225+955494079+955180158+954173370+953406045+953908648+955065142+956779570
1211+958834233+958792421+956981112+955443957+954487290+954419362+954445215
1198+953567952+952861103+952930284+952714365+951570203+950610767+951442393
1184+953043058+952851144+951900413+953226926+955699974+956122381+955497442
1171+955836555+955473634+953973674+954055386+955892217+957364874+958535679
1157+960591595+963731460+966890252+968233318+967132684+965311680+965330015
1144+967333171+969916486+971914564+972306635+972726999+974161800+974963551
1130+976266387+978907739+979729076+978131708+976949098+976897328+979090089
1117+984451404+989602208+991834605+990409036+987054043+986759776+989830460
1103+991386213+989294684+986729835+987557833+991360954+993749191+992929502
1090+993858074+1000483051+1009786707+1016559345+1019873449+1021683571
1078+1022703417+1022929361+1021970848+1021119239+1022444564+1024907192
1067+1027665208+1029733193+1030405089+1032950285+1036904300+1038593008
1055+1040205478+1042998777+1043942386+1043642446+1044580779+1045461075
1043+1045128821+1046306880+1049382576+1050717266+1049975134+1048649545
1032+1046375468+1044427182+1044684517+1045349884+1044470181+1044767482
1020+1047468980+1049020315+1048097085+1046191534+1046067285+1050778665
1009+1057578277+1060494177+1058185080+1053901581+1051816516+1052300257
997+1053488736+1054453119+1053133136+1049591769+1047205313+1046293426
986+1044474797+1042132132+1041181335+1041796778+1044444131+1049741672
974+1055053327+1056722448+1055374172+1053741324+1051992272+1049842246
962+1048429735+1049044782+1051802073+1054490578+1055439594+1055650238
951+1056653662+1059361557+1062971973+1065128990+1064984165+1063140079
939+1060646059+1059698890+1061035822+1062970918+1064057044+1064703219
928+1066527058+1068856731+1069462875+1069345946+1069925512+1069433461
916+1068104838+1069138534+1071758386+1072224650+1072027527+1073741823
905+1073081601+1068288640+1064555755+1063514212+1063549231+1064331592
893+1066034677+1068880341+1071226172+1069615218+1065266561+1064349333
881+1068417836+1073269030+1073540017+1067233709+1059048758+1053214122
870+1050687853+1051426225+1052642272+1050564329+1045124006+1041331371
858+1043084644+1048473130+1050367601+1043555525+1035849566+1034683641
847+1033506439+1028738012+1025947285+1024606659+1020151295+1012183912
835+1006246857+1006925083+1005924231+998564244+994973943+996311600+994427681
822+987516087+980590709+979281739+984096793+990636233+992430065+987146966
808+979940181+974354242+969145468+965046695+964674870+966341287+964522329
795+954736514+939051302+927736180+927976699+935721699+942750354+943789590
781+939210702+935431718+935003705+934320268+931870369+927668911+922378822
768+919615991+920905704+921186386+916418816+910446939+907284255+906847404
754+908440419+911194479+913656645+914727008+913150876+907622841+900330057
741+895849237+895989248+898125425+897808800+894480187+891961370+893943950
727+899920048+905127238+908227402+911450825+912584896+908967951+903199001
714+898053605+894605623+894586036+897439482+899455630+901106351+903891539
700+902760897+898246574+898491182+903527826+907002650+904213901+895081318
687+887171905+888428577+895330147+897022218+893003046+889888373+890918969
673+898174095+906452431+905362876+895379807+889416107+888082802+888252095
660+888624579+887344891+884206807+879041824+873372920+870962788+872868141
646+879501955+885800283+883642475+875514438+868016749+872376815+899752997
633+923868098+911378610+891470506+882370833+874346931+870015882+855811636
619+827383689+813961870+823175570+836580308+834335710+818164580+813503849
606+832915813+863851036+880559458+874415584
##END=
