##TITLE=Sample description
##JCAMP-DX=4.24
##DATA TYPE=INFRARED SPECTRUM
##DATE=25/8/2023
##SAMPLING PROCEDURE=Instrument type and / or accessory
##ORIGIN=Default
##XUNITS=1/CM
##YUNITS=ABSORBANCE
##RESOLUTION=4
##FIRSTX=4397.6552
##LASTX=599.8556
##DELTAX=-1.9287962
##MAXY=1.8072833
##MINY=0.29542699
##XFACTOR=1
##YFACTOR=1.6831637e-009
##NPOINTS=1970
##FIRSTY=0.43439117
##XYDATA=(X++(Y..Y))
4398+258080165+258031916+257943332+257559534+257131063+257013972+257127044
4384+256844967+256542971+257207235+258109097+257898500+257072190+256771009
4371+256958871+257112312+256948424+256487746+256018728+255769444+255839826
4357+255942610+255672839+255445386+255784122+256195524+256110712+255800660
4344+255541814+255322381+255189550+255009319+254638553+254322321+254533626
4330+255108314+255084128+254334025+253821964+253941905+254213074+254104323
4317+253538453+253001886+252978638+253272649+253499163+253798928+254073373
4303+253785259+253164376+252674819+252352124+252324627+252236733+251895519
4290+251869455+251819789+251198304+250732367+251097521+252073200+252868010
4276+252780064+252371548+252401613+252295943+251619869+251096193+251284515
4263+251578756+251280585+250715352+250326330+250246741+250564425+250845492
4249+250444660+249678055+249625079+250294512+250390072+249631701+249343870
4236+249888652+250104065+249570172+249004443+249005311+249342347+249369314
4222+249179008+249295213+249586214+249513849+248997166+248655154+248948899
4209+249172421+248560816+247883999+248060990+248641450+248924004+248790412
4195+248295330+247761951+247744758+248158356+248243841+247797558+247421232
4182+247401029+247406164+247123857+246699955+246492917+246424907+246283435
4168+246087694+245815321+245644191+245802537+245886659+245373960+244755060
4155+244851452+245338494+245309315+244790366+244523463+244485200+244285351
4141+244348456+244781353+244944852+244701817+244362497+244071922+243789137
4128+243618680+243686247+243662786+243290674+242770981+242437716+242486603
4114+242662867+242643249+242485771+242306921+242093863+241898865+241797445
4101+241583785+241240463+241064074+240929508+240772773+240963787+241474396
4087+241689526+241162715+240313848+239956255+240162814+240217190+239832949
4074+239654648+239933998+240007355+239661943+239380664+239303447+239234305
4060+239123500+239003116+238930769+238950529+239020007+238989163+238489089
4047+237599267+237308586+237889329+238353141+238289629+238044276+237761951
4033+237505035+237431944+237434264+237299467+237270128+237292119+236918502
4020+236556766+236639630+236704311+236530295+236392966+236255389+236036099
4006+235898540+235663526+235314751+235235587+235195961+234901047+234702225
3993+234704775+234797608+235224538+235684597+235418598+234666954+234175839
3979+233830711+233213033+232676643+232710887+233132682+233542969+233631464
3966+233282618+232588484+231966149+231938581+232332666+232645976+232465356
3952+231478505+230170004+229711751+229875834+229491752+229283280+230222821
3939+231171569+231017118+229738098+228225693+228058140+228993874+229123819
3925+228532717+228646019+228857448+228136135+227621188+228671764+230188347
3912+230811621+230168375+227667755+223360826+219714354+219246735+221548728
3898+225151111+227331516+226447484+224354530+224511920+225389879+224439537
3885+222939916+222018843+222206758+224314497+225249044+223555629+220945674
3871+218840610+218909770+219889149+219171378+219397804+222104116+223396274
3858+221084951+215608922+211366567+215829699+221981820+224806284+224383745
3844+221752100+218183765+214634164+213653244+216358210+218916640+220306377
3831+221652610+222274024+221823226+220482818+217274821+214360568+215188720
3817+216972861+219871054+223313232+224276304+222434920+219856570+218576629
3804+216922735+215091283+216007487+218236193+221175535+224129804+225388391
3790+225242688+224406586+223310470+222757366+222319511+221542300+222331321
3777+224225151+224424735+222609697+220471557+220027647+220679923+221410177
3763+221585096+219822592+217556331+217324611+216734359+212888144+208064763
3750+208769857+211782573+212766645+213638707+215303827+215319426+212210778
3736+207660780+208067897+214065974+218917791+219978477+218770316+217988998
3723+218831509+220887687+223406756+224882704+223855288+221119708+223010033
3709+233191874+245919132+258326652+271782623+288153396+303888182+315639885
3696+323917503+328014383+327069159+324692111+326584224+330390370+331852082
3682+328899867+320823922+309771860+299423687+295083010+293640846+289485871
3669+286481742+286103964+283972960+279386204+273692336+267613360+261649066
3655+257256723+252548503+243602727+233968323+234376184+239307732+241726000
3642+241422305+239768269+237490392+234736734+231609017+227581137+222078371
3628+219705289+222443737+224103121+222292261+217860717+214752865+214333248
3615+213726565+213079530+213023224+212691393+213150195+214465460+214428719
3601+213021365+211775880+210559522+209355505+209264796+209057121+206320443
3588+203044313+203992016+206683171+207594258+207040552+206386310+205785576
3574+204855013+203331772+200428709+196177874+194187952+196176564+198417629
3561+199520756+200004382+199731725+198572487+197454645+197178784+196624777
3547+195226063+194805294+196160681+197643216+198048261+197797171+197910631
3534+198183129+197541104+196059721+195008720+194977540+195501659+196207656
3520+197036568+197911729+198560535+198549132+197721247+196705074+196445874
3507+196714812+196537096+196301675+196815755+197275017+197181103+197197977
3493+197396605+197347984+197156031+197172321+197493050+197882656+198372638
3480+199050428+199291515+198898386+198535711+198696412+199453278+200263954
3466+200267229+199582356+199264974+199641211+200151042+200732688+201397500
3453+201753288+201684995+201255108+200952457+201378679+202202935+202995107
3439+203634741+203876058+203693331+203464107+203772654+204777371+205756184
3426+206016606+205721976+205628381+206226069+207162919+208059876+209137578
3412+210425433+211282375+211640127+212283922+213173779+213956709+214951121
3399+216239526+217563891+218698500+219747837+220814808+221780784+222985775
3385+224768057+227059886+229581877+231951294+234006746+235984025+238566553
3372+241868198+244962363+247483982+250197288+253639998+257515304+261398967
3358+265223563+269220882+273558814+278201823+283114071+288057535+292504023
3345+296311161+300060435+304148073+308395491+312612738+316692267+320504362
3331+323728543+326321110+328720610+330910824+332830912+334697634+336343172
3318+337705765+338953764+340097510+341006684+341478765+341856118+342717309
3304+343609380+343737607+343169843+342157654+340526458+337885447+334339475
3291+330855085+327781937+324467207+320647746+316839546+313652372+310947937
3277+308395987+306173478+304179731+302161126+300230732+298462740+296913931
3264+295556862+294106871+292535948+291076041+289700788+288379486+287393891
3250+286721696+285714943+284262509+283266167+282804178+281845798+280570479
3237+280038923+279836329+278990826+277646753+276125566+274788098+274080543
3223+273603876+273058297+272644452+271947503+270756641+269908783+269890139
3210+270130429+269987540+269433940+268870602+268161772+266985677+266126912
3196+266015594+265816772+265131739+264238057+263509273+263271958+263386870
3183+263274401+262631261+261877263+261483921+261485533+261845250+262187846
3169+261866834+261015506+260421677+260442712+260773286+260960740+260952985
3156+260897530+260552171+259881853+259485129+259487024+259382522+259097878
3142+258851108+258513540+258082839+257831943+257685619+257571096+257532195
3129+257253165+256800153+256668844+256883195+257045206+256713712+256041109
3115+255702975+255778049+255806449+255556085+255093423+254580300+254159035
3102+253902261+253743260+253536381+253161507+252650437+252173877+251735508
3088+251327293+251116396+250968620+250550915+250076904+249953899+249910643
3075+249487661+248835863+248298783+247804056+247171664+246542016+246025917
3061+245434338+244680304+243938825+243419185+243167829+242901741+242378560
3047+241826979+241354366+240813674+240442979+240361654+240115114+239421087
3034+238586296+238082184+237871570+237593070+237293677+237021675+236613142
3020+236251653+236089802+235821146+235175262+234399096+234015138+234161303
3007+234466397+234470576+234149687+233916445+233921048+234068947+234453153
2993+234992287+235393437+235647237+235927224+236295033+236700008+236979570
2980+236991593+236851484+236617055+236177589+235729216+235359123+234823353
2966+234166827+233611138+233297013+233035086+232397772+231658417+231437196
2953+231509703+231315272+230981617+230828052+230720186+230431966+229999600
2939+229662351+229535965+229449665+229122296+228446630+227621099+226826076
2926+226177377+225782052+225407691+224775848+224043221+223315109+222391256
2912+221551295+221253708+221238215+221239278+221297867+221311713+221250769
2899+221050371+220688121+220437986+220281925+219958646+219564153+219341959
2885+219338170+219292488+218959241+218536666+218139093+217617435+217111092
2872+216790788+216576084+216393817+216245032+216110784+215921045+215648495
2858+215296054+214831215+214215095+213513879+212930586+212549355+212356305
2845+212302903+212188787+211972153+211842420+211923107+212153393+212319281
2831+212308427+212226908+212202014+212219082+212184945+212094945+211955190
2818+211790063+211775756+211954057+212116192+212214656+212334261+212299628
2804+211953455+211559139+211418765+211423705+211327685+211195349+211162929
2791+211102534+210952527+210842253+210803902+210802875+210808417+210725056
2777+210465449+210088503+209824629+209755982+209667434+209515055+209419813
2764+209338206+209297110+209346510+209397769+209432296+209432880+209339003
2750+209176159+209011563+208901997+208845816+208760207+208592264+208449978
2737+208466674+208479759+208295120+208187555+208417221+208659370+208615335
2723+208489604+208415327+208302769+208320546+208629040+208937640+208916021
2710+208638017+208372814+208248995+208232900+208244374+208230545+208164502
2696+208038912+207885506+207726682+207611291+207618427+207670677+207573506
2683+207356004+207237780+207210336+207078744+206806211+206559476+206488191
2669+206480666+206337352+206094300+205912370+205841846+205816916+205705279
2656+205446132+205221512+205180487+205182541+205100632+204968084+204814873
2642+204651551+204501634+204378966+204263114+204126122+204006375+203923723
2629+203832731+203718208+203552178+203354471+203256698+203307497+203392433
2615+203410865+203428429+203477759+203438416+203332958+203340802+203479317
2602+203599789+203635272+203609616+203563244+203562182+203593274+203575744
2588+203469596+203301317+203151647+203050421+202950806+202841170+202746194
2575+202644048+202510154+202327179+202085897+201889961+201774694+201626724
2561+201458533+201345922+201285669+201240553+201121568+200879614+200575281
2548+200384834+200447584+200543321+200436642+200330529+200358735+200348323
2534+200322791+200380549+200352980+200179442+200055004+200015200+199948413
2521+199909017+199936072+199929326+199928387+200002328+200051834+200035598
2507+200095515+200276614+200371766+200368101+200514797+200794713+200926075
2494+200783700+200554972+200413942+200349067+200317178+200239944+200159364
2480+200228294+200475223+200721463+200647132+200297542+200063414+200053605
2467+200108547+200088734+199998379+199890036+199744049+199621504+199593245
2453+199575876+199508876+199473463+199505104+199480564+199308159+199101776
2440+199051863+199175115+199343677+199445930+199435820+199360976+199256121
2426+199124971+199055280+199118208+199285088+199485132+199632925+199655819
2413+199598858+199632358+199797185+199962046+200053375+200059111+199989296
2399+199959373+200104581+200376848+200560992+200565312+200486130+200286901
2386+199817671+199055457+197909321+196201759+193947875+191325508+188583447
2372+185954494+183496617+181117231+178821861+176961336+175862812+175518870
2359+175919985+177205397+179532550+183002208+186750668+188710135+187808202
2345+185249577+183434309+183133853+183536066+184132320+184813068+185296817
2332+185572608+186198555+187260604+188309781+189201144+190150529+191402830
2318+192903850+194279776+195317108+196144498+196954146+197923238+198987536
2305+199793626+200310308+200804965+201300825+201697655+202040198+202387008
2291+202697945+202934464+203116766+203297829+203480822+203587820+203602410
2278+203560783+203510072+203509187+203501095+203434078+203384146+203415539
2264+203521546+203622843+203642744+203613795+203637539+203767679+203893145
2251+203894898+203877368+203940066+204019141+204069126+204108044+204172211
2237+204225630+204190501+204132850+204156081+204243744+204318481+204325103
2224+204305290+204325953+204382896+204449046+204451242+204364004+204293958
2210+204277722+204286876+204307415+204324395+204366306+204402833+204405684
2197+204426896+204440778+204410801+204367191+204340472+204374043+204438564
2183+204426701+204358975+204337197+204393927+204522704+204606383+204554876
2170+204528883+204621380+204716675+204760604+204740365+204667841+204651640
2156+204739144+204860041+204954362+205025682+205088185+205142950+205178096
2143+205166747+205159700+205228417+205306554+205350182+205435172+205510122
2129+205469557+205407603+205416545+205465945+205531918+205585426+205634029
2116+205721746+205821803+205871593+205886059+205922639+205958246+205983407
2102+206065050+206198554+206340008+206512909+206729048+206899487+206991630
2089+207184680+207534978+207837416+208014159+208139766+208288409+208535746
2075+208868781+209225559+209588429+209871337+209917126+209881023+210148226
2062+210658782+211104729+211454408+211790364+212123434+212427696+212727107
2048+213044170+213329894+213569954+213867931+214382294+215039988+215565559
2035+215878816+216098054+216324356+216564787+216732323+216738467+216611655
2021+216391568+216042492+215778316+215948277+216372782+216646041+216750348
2008+216843021+216943079+217016400+217112651+217260851+217396073+217318042
1994+216830450+216409257+216738626+217544273+218330620+218936931+219363844
1981+219790650+220288405+220829310+221420889+222080106+222565892+222571859
1967+222682487+223649631+224954219+225941230+226631964+227058097+227337766
1954+227704389+228059574+228188758+228073367+227613326+226884613+226978561
1940+228310877+229508042+230003265+230277444+230659153+231180440+231704222
1927+231827315+231300399+231038206+231583484+232267791+233409589+234940284
1913+235661225+235472088+235437897+236247652+237249748+237795469+238014777
1900+237954771+237434246+236801358+236556163+236098743+235397988+235726755
1886+236633167+237007475+237046730+237084869+237222144+237315739+237053865
1873+235862490+233308168+231257249+232562421+235318576+236802544+237136836
1859+237235530+237454219+237716022+237860326+237644312+236754419+235098984
1846+233255368+233450614+236086083+237924848+238271729+238475367+238419044
1832+236844490+234896390+235110706+236321540+237571398+239370252+240685960
1819+241088580+241214488+240983193+239978777+239250612+239985488+241192887
1805+241494511+240532943+239334858+239483643+240201715+239539435+237657503
1792+237830509+241179306+243660466+244035801+243557913+242988572+243024002
1778+243580541+242734648+239792880+237489365+239214775+242693393+245311563
1765+246068873+245380281+245248034+245555713+245718203+246004511+244667414
1751+241326993+239422025+240822244+242810306+243714948+243929759+244527040
1738+244647601+242428120+240487421+243244266+247236592+250427468+252029076
1724+251958729+250932588+247976177+242774310+241017259+245985955+250970267
1711+253108761+252403862+250016207+248371555+247403348+245272645+243639449
1697+245267245+250736156+255914545+256983624+255639321+253100828+248879668
1684+247644665+252837060+257097669+258577229+258513222+258664113+258326015
1670+258124253+262077378+266555950+267758550+268644087+271713499+273764825
1657+272077236+266990883+266048580+271327948+271519847+271019029+276925689
1643+282844106+284593596+282748616+278689946+278919134+286070252+290823853
1630+292126918+292765012+293654568+294954499+298106563+300592362+300648916
1616+302611924+307498782+310262497+310646437+310704017+311507344+312339072
1603+312807329+313350482+313824581+313700886+313413480+313745966+314404918
1589+315110507+315920386+316589005+317081341+317142286+315626818+312685298
1576+313129191+317085485+318041474+317505580+319895059+323231000+324780960
1562+323261455+317647017+316438078+325890320+333576836+338994028+342947312
1549+346438076+348183972+346782390+343437878+343436037+356863377+369652553
1535+375299216+381811497+391402272+398224021+402720210+407637451+412215195
1522+419344464+430783016+441697219+453595564+465302789+473140657+476378507
1508+478594465+495469827+518826661+532080482+540982559+549905353+563098229
1495+578667480+589221717+595895974+605981387+621413912+635790018+646908550
1481+656622276+665781093+673533972+679809946+687552839+701804152+717596748
1468+729312189+738966919+750467195+761498187+767444898+769658307+779655827
1454+796442588+809055376+816993814+822663106+829103606+836272678+843071055
1441+849504897+853468238+854820208+858633896+864912987+869913979+873669591
1427+876383942+874899105+869516865+863754652+857438095+852477828+850576897
1414+847836625+843619945+839761991+835361875+829155875+824003248+821355402
1400+816884107+808881289+801169913+797776781+799596830+801684170+799489814
1387+794556106+793027429+795257764+796937510+796484020+794204108+790532705
1373+789147732+791411638+793220072+793502378+793505778+792797462+792741156
1360+794625514+796485154+797687825+799201912+801401580+803654438+805693476
1346+807607297+808497137+807587820+806293077+808133028+813875906+820267112
1333+824570907+826507745+827931318+829273231+829307935+828684891+828828099
1319+829646759+830625696+831789273+833511371+836087543+838862023+841187759
1306+843507121+846527646+850064128+853017015+855978685+860521441+865143946
1292+867618060+868413278+868638145+869113661+870363006+871621062+872266486
1279+872112868+870791920+869517644+869159768+868132671+865709551+862548510
1265+859054948+856844656+856429766+855167885+852408845+850447642+850122204
1252+850471864+851032157+851832616+852072499+851819797+852206853+852792147
1238+852214219+850438152+848755928+847871329+846884885+844942593+842827772
1225+841474315+840512943+839278542+837331717+834560424+831165096+827762189
1211+825066537+822242621+818545297+815402458+813685105+812182279+809884235
1198+806903301+804299437+803465195+803641406+803274464+802844064+802775151
1184+802707372+803046905+804276702+805943275+807196656+808078705+809469203
1171+811622198+814243131+817298360+820166683+822008546+823684396+826734313
1157+830568187+833625965+836228342+839201698+842102317+844263598+846235636
1144+849110334+852845265+856357950+858686448+860802190+863658543+866110134
1130+868398546+871400090+874151765+876212121+878373474+881116437+884743645
1117+889445332+892878055+892812826+891883679+893336998+897087299+901280749
1103+904363458+906670709+909508719+912824794+915913877+919528762+924770202
1090+931345198+937969983+943988086+950466548+957534837+962389717+965114478
1076+970106263+976410355+978681485+979125555+983174877+989875020+996054956
1063+999787197+999830895+999532866+1004105794+1012039416+1017012007+1016202058
1049+1011330321+1007980816+1011427634+1018135213+1020951693+1018710450
1038+1014292770+1013588632+1020034586+1026904707+1027391414+1026394700
1026+1028666326+1030852113+1031254326+1031583518+1032493188+1033723765
1015+1034481445+1035175951+1036235698+1036785014+1036828216+1037514223
1003+1038675816+1038141162+1035970531+1035654866+1038094913+1038914424
991+1036552851+1034979413+1034920487+1035675476+1038932626+1042274411
980+1040764644+1036718084+1036528204+1040138414+1042595034+1041582313
968+1040027219+1042300120+1046561491+1047780594+1047219876+1047507282
957+1047682147+1048479348+1048542736+1045555357+1045006892+1049715024
945+1054766797+1057066328+1056544068+1055347275+1055557482+1058096612
934+1062728466+1066291011+1066567368+1064020093+1059990956+1056839193
922+1058221759+1065105054+1072063494+1073741823+1069713323+1064478115
910+1063240669+1064268758+1065008237+1067928120+1072199760+1071830340
899+1066513825+1063366737+1064440720+1065312499+1064445607+1065256123
887+1068386426+1069389301+1067584267+1065393239+1062909635+1058447406
876+1049149632+1038533105+1034820553+1036392716+1034251691+1029576563
864+1027985844+1025958562+1021492226+1016720635+1010966637+1004452055+997828473
851+992540359+990102437+987135951+979556168+968699616+960148120+956727154
837+954645620+951093558+946526154+940352238+934261682+929711559+925862883
824+924060186+923912659+924305735+926232941+926290380+921243140+915455359
810+912985991+913142584+913527303+911958185+909860788+908871510+906508308
797+903369506+902473718+900660751+895076803+890761252+890108958+889747540
783+889500929+888266599+883604149+879372737+877746252+876562419+875306488
770+872758717+868963372+865956233+863085148+860184741+857881669+855000102
756+851805632+849434427+847426976+845791921+845152446+845269519+845205352
743+844435277+844229673+844545338+843939788+844130802+844821908+843245000
729+842011024+843620370+845025599+845017454+845861470+846932479+847437741
716+849102472+849454045+846139811+843101297+842634563+843349253+843251728
702+840053575+834496470+830168524+830353305+834708943+836880353+833084795
689+828295994+826223031+825012993+823984125+824302057+825083960+824124783
675+820935837+817085674+813432474+811047599+813097615+816153198+815725135
662+813356266+811523256+811949974+813635173+813062203+809580398+807005572
648+807888541+809743790+808160862+801640826+793837449+790417120+791017216
635+790728394+790816783+794282086+796261206+792974735+789002471+788699412
621+790447928+791685375+789796980+782911985+777499645+777870907+778560455
608+775950146+769193910+762756102+765661112+774144545
##END=
