##TITLE=Sample description
##JCAMP-DX=4.24
##DATA TYPE=INFRARED SPECTRUM
##DATE=25/8/2023
##SAMPLING PROCEDURE=Instrument type and / or accessory
##ORIGIN=Default
##XUNITS=1/CM
##YUNITS=ABSORBANCE
##RESOLUTION=4
##FIRSTX=4397.6552
##LASTX=599.8556
##DELTAX=-1.9287962
##MAXY=1.8095446
##MINY=0.30591086
##XFACTOR=1
##YFACTOR=1.6852697e-009
##NPOINTS=1970
##FIRSTY=0.47885165
##XYDATA=(X++(Y..Y))
4398+284139474+283904718+283376568+282919772+283284416+284388659+285333197
4384+285525758+284698536+283629626+283458728+283618998+283223566+282691967
4371+282559903+282815454+283295434+283752441+283804662+283579191+283414588
4357+282901929+282215453+282209901+282613184+282787885+282719483+282361683
4344+281796820+281812364+282651789+282909126+281973324+281274983+281248810
4330+281026204+280652965+280670720+281182548+281691848+281915603+282258443
4317+282483649+282219291+281745430+281168949+280774667+281048716+281510321
4303+281227466+280546614+280287737+280411526+280444435+279833099+279081794
4290+279405323+280331983+280451739+279879272+279614826+279895948+280426274
4276+280577366+280091463+279625047+279387781+279086127+278801450+278892009
4263+279290855+279277503+278738548+278428529+278750396+279140717+278924177
4249+278362586+277791392+277267150+277175105+277416898+277559767+277791976
4236+278068306+277886568+277308318+276820876+276616997+276610843+276897943
4222+277238290+276928501+276402685+276767081+277693759+278093081+277867044
4209+277543551+277453964+277578141+277362201+276793307+276745312+277010466
4195+276664744+276034415+275881095+276010241+275826222+275454751+275475689
4182+275843234+275926136+275434185+274857120+274669192+274702014+274682349
4168+274569702+274569737+274736409+274758744+274672871+274627723+274567067
4155+274608377+274587333+274182422+273717439+273680550+273826726+273668507
4141+273369400+273308567+273427492+273293748+272773378+272591763+273046791
4128+273378560+273406925+273481075+273415131+272998779+272395188+271979897
4114+271807902+271589469+271553341+271841166+272086019+272291507+272363940
4101+272025380+271715928+271789652+271759306+271474665+271433319+271521315
4087+271217522+270770823+270747021+270971113+270899492+270435888+269887136
4074+269700092+269979164+270341014+270369414+269932708+269481730+269294810
4060+269082178+269022335+269330567+269538301+269400472+269175213+268964031
4047+268793592+268817200+269040143+269270442+269133196+268653252+268458038
4033+268527271+268318830+267841556+267470793+267648659+268204909+268344507
4020+268089486+267922195+267798071+267669119+267470563+267111790+267042486
4006+267337332+267250786+266880695+266838678+266896028+266932881+267014864
3993+266736306+265992870+265269240+265133144+265682551+266271853+266248598
3979+265853184+265563997+265375185+265253166+265210865+265192722+265318649
3966+265473349+265155497+264445997+264028000+264180648+264569997+264631732
3952+264245761+263620879+263149600+263051701+262835992+262879388+263799204
3939+264511038+264125032+262840183+261329685+260885163+261621825+261871417
3925+261425833+261582266+261856333+261345760+261027342+261617917+262465459
3912+263347024+263760706+262292438+258796469+255718019+255235829+256773896
3898+259275140+260729756+259903629+258439234+258884023+259720176+259005211
3885+257770054+256961276+257105436+258873624+259621180+257995808+255696745
3871+254490254+255483600+256805533+256266418+256174231+257815166+258287771
3858+256189988+251773761+248265713+252182792+257677266+260218352+259743306
3844+257263301+254399836+251831322+250929933+253018467+255443015+256684521
3831+257240595+257280048+257182326+256653875+254194807+251707392+252793014
3817+254792969+256815436+258949789+259545139+257987054+255764652+254897676
3804+253923393+252751439+253842241+255798853+257987567+260162117+261069271
3790+260954219+260275277+259044929+258186017+257977187+257820436+258587090
3777+260137483+260593995+259403243+257670210+257047857+257420972+258059046
3763+258324518+257261090+255566697+254665998+253543771+250766656+247812454
3750+248719379+250843759+251345206+252136371+253786148+254021133+251608698
3736+248041993+248616511+253408506+257092067+257844769+256849000+256129721
3723+256564553+257918317+259558314+260299787+259153209+256610425+257268995
3709+264072033+272758948+281183609+290569467+302686974+315514139+326745606
3696+335839713+341218375+341729160+338878604+336714683+335504389+332740167
3682+327853474+321563768+314586047+307478491+303351998+301194337+297302618
3669+294605471+294202629+292895374+290413017+287610243+284424434+280627164
3655+277670699+275180066+269921178+263489451+264085544+267916094+269565570
3642+268987285+267223076+264883464+262129445+258934705+255079008+250063576
3628+246687203+246970519+246655956+243713531+238783707+235005519+233882532
3615+233241592+232410426+231333311+229825820+228991949+228787345+227637831
3601+225522894+223509217+221561907+219626021+218395072+217284357+214882515
3588+212163741+211842776+212654649+212591269+211563439+210258643+209106812
3574+208077532+206735971+204180755+200200934+197713095+198675618+199906495
3561+199984853+199896274+199668327+198512394+196844722+195603941+194533457
3547+193303269+192545474+192607510+192946335+192911498+192462518+192051507
3534+191515628+190349244+188850206+187790174+187446927+187597383+188072994
3520+188532690+188574176+188371270+187913077+186881092+185653026+185020805
3507+184956559+184610695+184156411+184356364+184777738+185141958+185593183
3493+185657748+184971290+184099327+183746867+183722056+183483552+183302609
3480+183732914+184181557+183952001+183342345+182811613+182604798+182670759
3466+182630864+182193221+181607738+181520415+181887252+182233505+182647841
3453+183077439+182965145+182427428+182243355+182462654+182691450+183059967
3439+183620143+184078460+184300801+184313056+184241029+184359335+184683005
3426+184914683+184962713+185072513+185616526+186571869+187576427+188530338
3412+189245444+189564569+189988030+190883354+191919619+192827888+193727721
3399+194597367+195265310+195912244+196855279+198274491+200225745+202241279
3385+203866475+205563609+207774765+210125252+212231064+214340660+216879181
3372+219903147+223122697+226054228+228742074+231902082+235799390+239980225
3358+243985299+247841916+251870651+256154655+260557743+265112719+269898082
3345+274795898+279573251+283932341+287813804+291352267+294713431+298155447
3331+301607047+304814537+307590112+309724784+311435146+313132740+314764444
3318+316083140+317297253+318935358+320769367+322126508+323304617+324428400
3304+324660556+324190126+323935511+323576066+322236503+319768523+316402018
3291+312502588+308796056+305700682+302863991+299905138+296964499+294272215
3277+291639774+288822729+286068162+284090489+283123616+282187424+280544279
3264+278521901+276488045+274879384+274012567+273475256+272625257+271359719
3250+270325593+269682762+268724625+267509114+266656038+266050219+265452394
3237+264958638+264406367+263592460+262717403+261769027+260585825+259582824
3223+258939922+258303563+257757870+257332145+256779343+256309903+256023139
3210+255664790+255227836+254860150+254494993+254003679+253592384+253468472
3196+253256635+252577746+251893481+251603764+251326426+250832812+250256773
3183+249828201+249759269+249922829+250118626+250330215+250570028+250630260
3169+250331683+250048862+250175374+250397520+250267118+249977118+249924650
3156+250096857+250189751+250099810+250087697+250162058+250120677+250186674
3142+250541114+250795287+250661154+250501750+250713781+251110062+251281031
3129+251172946+251037452+251001889+250944911+250863971+250898190+251057487
3115+251265964+251290280+251139647+251255637+251583640+251676746+251552251
3102+251455784+251366109+251203080+251200003+251537095+251761559+251357284
3088+250797356+250796401+251072943+251147004+251128471+251123944+250918509
3075+250478743+250100146+249874604+249640256+249314888+248954523+248725833
3061+248648307+248528692+248429449+248498099+248486675+248219416+247845842
3047+247646525+247788988+247935924+247774681+247492056+247197811+246805775
3034+246530947+246595865+246566846+246158204+245907073+246041153+246137301
3020+246094312+246191185+246396726+246421872+246247331+246113976+246132491
3007+246247579+246508542+246860153+247015224+247087693+247498192+248243679
2993+249049132+249770074+250409828+251052059+251666012+252165797+252682648
2980+253190320+253371210+253360246+253465024+253490524+253355135+253234796
2966+253099531+252892716+252561300+252079871+251626647+251382997+251506874
2953+251951750+252212678+252138369+252183304+252409395+252500503+252413515
2939+252312610+252248452+252032018+251586151+251299971+251453875+251570907
2926+251248864+250838683+250506737+250061984+249547043+248965098+248357175
2912+248144666+248457514+248824616+248961243+249017071+249232056+249599865
2899+249788501+249700576+249572473+249555885+249631909+249599724+249387463
2885+249299962+249536840+249893508+250116221+250122057+249988896+249871580
2872+249724432+249499650+249433760+249557937+249625348+249660186+249810111
2858+250034485+250205189+250061330+249430046+248557888+247904005+247770915
2845+248033451+248405116+248808736+249180666+249450294+249644040+249885391
2831+250281177+250647413+250888588+251186987+251521693+251793903+251941228
2818+251917019+251938063+252127388+252304581+252435974+252653275+252938323
2804+253193910+253416976+253564655+253607769+253716349+253952908+254156946
2791+254273802+254394601+254606438+254814154+254851591+254867542+255036849
2777+255226386+255366992+255547050+255723501+255803168+255879191+256040222
2764+256182472+256293227+256465399+256622751+256694778+256756053+256876198
2750+257063737+257267103+257500497+257741600+257883178+258081080+258415998
2737+258642530+258740782+258895270+259124154+259319739+259434579+259531859
2723+259703217+260016047+260440056+260830979+261061932+261175127+261262186
2710+261321462+261409794+261581948+261824555+262159225+262489827+262675173
2696+262826442+263072002+263267923+263301382+263240442+263198089+263310047
2683+263551080+263729264+263762828+263749830+263778956+263801874+263825677
2669+263941083+264146041+264377011+264555142+264647647+264736492+264867424
2656+264956728+265040568+265268568+265506347+265511794+265408767+265413206
2642+265484578+265604900+265800486+265933222+265937431+265984346+266249235
2629+266625922+266887893+267008869+267058402+267093717+267131278+267201979
2615+267431022+267824261+268233469+268502160+268616717+268802417+269122232
2602+269333326+269418634+269554677+269699597+269790723+269879390+270018935
2588+270187234+270217031+270139947+270137577+270096621+270006450+270103235
2575+270341527+270559800+270758162+270861755+270803274+270694393+270644790
2561+270681820+270746101+270761097+270736587+270653525+270599112+270784988
2548+271126414+271356818+271373972+271277895+271258000+271282104+271255666
2534+271337667+271595464+271831546+271944087+272038555+272138151+272180186
2521+272257323+272443907+272640801+272819516+273008611+273125325+273199616
2507+273413186+273729234+273907630+273924501+273995379+274189920+274412562
2494+274650659+274954807+275248008+275393741+275476202+275629151+275815151
2480+275975757+276082038+276081260+275897152+275686942+275755963+276032205
2467+276236897+276308305+276340667+276398918+276488700+276554573+276530169
2453+276520248+276644991+276830514+276968414+277041590+277054747+277019591
2440+277079505+277270333+277421496+277552021+277749640+277914720+277945844
2426+277925207+278013167+278171970+278345591+278635521+278976610+279210534
2413+279374730+279525468+279681105+279949849+280319056+280580107+280625626
2399+280627323+280885722+281375162+281732981+281861243+281979584+282144063
2386+282067155+281474547+280406804+279011518+277391079+275527786+273347772
2372+270989928+268686816+266674801+265063876+263876271+263382251+263495941
2359+263827923+264781904+266973377+270283063+273620725+275178474+274239701
2345+272109344+270692183+270305239+270556971+271273315+272132793+272803300
2332+273346287+274137434+275199995+276294193+277308318+278281275+279423025
2318+280907067+282433356+283595372+284577948+285669034+286721798+287522336
2305+288117226+288695740+289271090+289809497+290421028+291085345+291656874
2291+292081521+292421566+292780463+293141942+293405947+293594405+293826738
2278+294110106+294342545+294461540+294464069+294438056+294566619+294940176
2264+295428484+295835747+296100919+296314488+296563232+296780904+296889166
2251+296947452+297040470+297226683+297499476+297771774+298036363+298317008
2237+298571905+298779586+298916425+299007639+299167361+299446839+299768653
2224+300014814+300156710+300203608+300196146+300270312+300493591+300779294
2210+301015128+301245161+301526620+301735079+301784700+301755345+301865516
2197+302214528+302617440+302953189+303175052+303266903+303387614+303605729
2183+303838804+304066821+304276907+304411836+304510761+304653683+304778072
2170+304902780+305165246+305525717+305885869+306162341+306328358+306554784
2156+306889790+307169091+307363403+307568679+307779119+307908778+307996102
2143+308191156+308486974+308697591+308802775+308989448+309290430+309562728
2129+309737305+309843868+309974164+310210316+310436566+310552184+310763083
2116+311172574+311571843+311885133+312230113+312603705+312900974+313103632
2102+313256068+313409919+313652438+314011034+314393822+314751181+315204917
2089+315918785+316813171+317660942+318447492+319201149+319847216+320482886
2075+321196860+321791856+322164706+322542012+323091984+323775789+324539668
2062+325302733+325946607+326440911+326913887+327423470+327842298+328176207
2048+328490982+328776084+329116678+329549087+330008412+330402376+330688539
2035+331005436+331426351+331829334+332098237+332234864+332286253+332207736
2021+332008473+331868451+332039809+332574326+333091017+333296081+333344040
2008+333479323+333702707+333859034+333991911+334244757+334571699+334774995
1994+334701323+334717734+335299396+336156186+336977432+337831392+338723444
1981+339579952+340335766+341066823+341893303+342729261+343336070+343749416
1967+344551068+346064783+347711483+349038172+350177907+351315590+352538757
1954+353810096+355035810+356107213+356837315+357092389+357037215+357468669
1940+358605787+359495504+359874260+360115223+360327997+360407787+360280533
1927+359857072+359072397+358494766+358416002+358344452+358618378+359338647
1913+359576002+359100550+358656787+358858597+359299318+359476087+359538936
1900+359584950+359380028+359066632+359033775+358960881+358878792+359620247
1886+360742156+361473956+362082038+362737054+363254240+363565019+363687392
1873+363154573+361468827+360064753+361232958+363554232+364909958+365308591
1859+365506511+365941679+366489883+366818346+366750050+366223951+365191028
1846+363952758+364076723+365943589+367260411+367540066+367820711+367898626
1832+366674822+365074915+365140912+365980796+366861530+368121516+368945201
1819+369150760+369285230+369235573+368594280+367952704+368314873+369226165
1805+369550596+368825268+367826334+367882145+368505931+368252943+367222319
1792+367708806+370360594+372303890+372783692+372697748+372586975+372860618
1778+373259569+372522146+370397518+369011410+370816346+373842363+376016789
1765+376669576+376244099+376321484+376782152+377110650+377621117+377074221
1751+374899796+373381588+374254047+375829904+376712477+377038641+377691888
1738+378047443+376497829+374872845+376926419+380058964+382431627+383627632
1724+383625474+382875213+380752212+376993123+375626856+379208504+382943968
1711+384610615+384007378+381782164+379936803+378971043+377393524+376044128
1697+376846062+380381449+384126285+385098694+383992594+381698307+378032306
1684+376481029+380081776+383139376+383933848+383327039+382778516+381951188
1670+381014714+382933959+385560883+385861688+385594765+386864902+387628815
1657+385781226+381144231+378760604+382119044+382829835+382893533+387344067
1643+391927798+393673386+392854616+390305785+391093820+397767163+402924456
1630+405473217+407549815+409794516+412287219+416166064+419282552+420206330
1616+422551194+427468763+430947950+432530668+433656751+435157415+436570898
1603+437733162+438978470+440041632+440510258+440849155+441701453+442796447
1589+443880830+445152063+446530637+447676879+448255040+447627187+445925066
1576+446619517+449954509+451163211+451268961+453639078+456857214+458717607
1562+458148076+454388491+453833956+461331551+467691781+472452952+476056953
1549+479242338+480918534+479939053+477526459+477766997+487699220+497323139
1535+501824038+506614777+513670802+518923907+522225476+525655113+528981368
1522+534008437+542232738+550804672+560472943+569603974+575290974+577085972
1508+577459387+588121146+604583967+614264547+620740289+627033178+635764622
1495+645799589+652475231+656782772+664256812+675642908+685763253+693895633
1481+701832994+709331226+714762762+718095773+723003934+735078292+749179873
1468+759810508+769192016+780390308+790105477+794274447+794338392+800158977
1454+812803608+824007630+832469427+838534476+844697848+852210368+858842861
1441+863364026+865585844+867421939+873653076+880972133+884491039+886637453
1427+889252776+889206303+886972247+884428933+879726613+874800839+873600307
1414+872900021+869931725+865743939+862106693+858640344+854347940+849395640
1400+843463434+836994058+831946759+829326979+829494411+830000033+827631083
1387+823243539+822438422+826468395+830625410+831680791+830586364+828758262
1373+828012845+828726784+829151837+829146390+828263675+825555971+823338750
1360+824107651+826390302+828362564+829406770+829420351+828526672+827950739
1346+828305197+828570740+828589344+828880989+830296982+833226374+835607136
1333+836484263+838013010+840883408+842600383+842766896+843108339+843494840
1319+844423039+847516396+851755111+855189628+857853759+860461868+863060002
1306+866003258+869830996+874488540+879174307+882602175+885910428+891648040
1292+897983583+901409966+902955548+905237351+908387368+911130652+913083957
1279+915295448+917819593+918746376+917363558+916191886+917336112+919107201
1265+918983696+916820729+914394484+913309676+913783324+915704020+918245778
1252+919961975+921321097+923300645+925164044+926462616+927172594+927598142
1238+929090248+931086631+931825468+931619839+931465776+931589917+931606328
1225+931403245+930976919+930071922+929396535+929474698+929581226+928139414
1211+923709004+917896200+913814519+911551956+909410140+907221143+905688364
1198+905102952+905060864+904099915+901256468+897905349+896115940+895786876
1184+895790059+895802650+894726684+892157410+890201488+889457345+888279944
1171+886968780+886888071+887608588+888640980+889851344+890630077+891098208
1157+891626324+892583948+894234998+896234493+898742439+901355145+902548038
1144+902481546+902866067+904093337+906055767+909647813+914058204+916864374
1130+917881770+918881341+920477287+922170708+924525015+927557327+929460692
1117+930412163+933138117+937272850+939400590+940564622+942775052+943239364
1103+942243188+943909092+948434218+952644709+954702562+955815876+958074478
1090+962328543+967294849+970147633+970675394+973091525+979373521+985662237
1076+989612420+992532757+995421617+999629774+1003579744+1003914397+1003789618
1063+1007527734+1013883155+1020612415+1025554812+1026163283+1023967425
1051+1023564654+1026006461+1028462982+1030331828+1032636974+1034510135
1040+1035130207+1034659529+1034641775+1035407563+1034617583+1032803982
1028+1032572038+1034430132+1037947977+1042105982+1045083403+1046118908
1016+1046151517+1046089411+1046602035+1048128023+1049140539+1047638389
1005+1044549205+1043065446+1043582455+1042815606+1041109028+1042202749
993+1044943063+1045835256+1045605152+1045864187+1044998520+1042815677
982+1043277017+1046146566+1047233495+1047359052+1048758211+1051228030
970+1053023523+1052017302+1050601238+1051091722+1050817549+1048749015
959+1047929538+1050440738+1054435131+1056771683+1056919451+1056146448
947+1055724083+1056463062+1058175157+1059076475+1057249364+1055010073
935+1057114753+1062543248+1065232915+1064312073+1064286962+1065685767
924+1067067808+1069971168+1072456549+1069886285+1064065063+1059928420
912+1059031204+1059771669+1060301906+1062449240+1068461025+1073741823
901+1073312385+1070470989+1068975205+1068699900+1067807424+1064857943
889+1064041437+1065998916+1063655431+1058510304+1056066445+1054098286
878+1050724389+1047119540+1043398966+1040182528+1038594363+1036194855
866+1031369455+1028259616+1027294069+1024611405+1021000826+1018131490
854+1015424422+1011534789+1004678275+997688706+993547819+988510706+981292024
841+975164232+970629487+966655112+962635537+957888159+951734407+946250101
827+943489698+939433765+933770851+932329250+933725438+933213663+932331019
814+933346718+934242094+932907376+930020073+926581028+923584792+922452025
800+922144677+920112643+916813231+913995320+911238242+907938901+904616076
787+901897125+899996589+898830081+897919921+895533782+892199498+890479763
773+888642041+884423698+879756747+876920586+875300306+872657962+870487780
760+870294742+868645885+864970441+861612884+858447235+856354156+855664055
746+853378079+850185125+850125353+852697952+854849742+855019437+853872806
733+853372703+853195863+853086929+853928051+854035499+852934847+853040738
719+854632087+856243242+856930230+855955063+854516292+854096191+852885544
706+849712255+847182310+846150978+843862456+840433526+837885332+835689261
692+835397970+837722356+837601185+833158113+828154883+826503551+830153318
679+835187955+835168149+830566628+825826465+820212712+812880994+811375943
665+815394457+817147932+817972856+818509884+816456841+813111947+811527743
652+811188988+809920479+807859655+806930820+806327088+801491502+793780355
638+793507173+809388190+832359645+834811427+816847799+802503594+795917008
625+789954880+782299615+777107166+776343287+772089364+765153555+766411524
611+772165547+774280978+775352558+776406808+780810833+790154285+788571991
##END=
