##TITLE=Sample description
##JCAMP-DX=4.24
##DATA TYPE=INFRARED SPECTRUM
##DATE=25/8/2023
##SAMPLING PROCEDURE=Instrument type and / or accessory
##ORIGIN=Default
##XUNITS=1/CM
##YUNITS=ABSORBANCE
##RESOLUTION=4
##FIRSTX=4397.6552
##LASTX=599.8556
##DELTAX=-1.9287962
##MAXY=1.9394685
##MINY=0.61559671
##XFACTOR=1
##YFACTOR=1.8062708e-009
##NPOINTS=1970
##FIRSTY=0.73127067
##XYDATA=(X++(Y..Y))
4398+404851072+405022072+405510453+406239131+407084987+406901020+405249697
4384+403717005+403213048+403375567+403797258+404436311+405270618+405864628
4371+406287672+406872542+406916496+405743589+404344146+404263827+405389051
4357+406303941+406129179+405027517+404147044+404645589+405847205+406286583
4344+405841727+405360276+405517086+405426504+404072764+403238952+404080453
4330+404657205+404127905+403763566+404268183+405291374+406197586+406355023
4317+405575329+405015934+405459833+405595689+404733993+404194728+404617639
4303+404818437+403972580+402896525+402688303+403266341+403229350+402455430
4290+402861546+404234821+404566128+404185059+404416743+405240754+406148154
4276+406743946+406830369+406195243+404855098+403749344+403657046+404398231
4263+405301373+405727783+405688877+405390239+404811606+404116686+403755251
4249+404232478+405167695+405404659+404747555+403825868+403032644+403036439
4236+404244886+405590574+405521871+403820390+402242985+402530800+403779901
4222+404128895+403746902+403756108+404400310+405058568+404837609+403799205
4209+403011492+403040630+403645365+404203505+404110614+403409853+402632535
4195+402483446+403326564+404445650+404958813+404947627+405019267+405249697
4182+405045105+404524979+404731221+405712108+405893271+404552863+403145599
4168+402779973+402870720+402751099+403004199+404005117+404703601+404800023
4155+404811705+404497524+403910411+403898960+404927365+406034308+405983061
4141+405053190+404357081+404302963+404175324+403421105+402669163+402734039
4128+403360784+403752017+404076031+404580549+404438588+403646025+403262381
4114+403179621+402788652+402627948+403086267+403579235+403858075+404121569
4101+404100219+403676384+403472220+403631208+403320888+402378279+401867360
4087+402190451+402754663+403176684+403079535+402567032+402404612+402438700
4074+401986288+401335487+401245895+401664220+401920983+401725895+401219958
4060+400911915+401169800+401670127+402299082+403009875+403407312+403497398
4047+403146886+402385176+402254435+402812642+402787035+402074064+401559053
4033+401375514+401483189+402114752+402711138+402658703+402475527+402565382
4020+402793931+403036769+402876263+402278920+401837100+401996715+402613164
4006+402786144+402156462+401465733+401312453+401688474+402223449+402686851
3993+402969782+402634416+401661877+400936268+401189203+401889040+401991369
3979+401747212+401642045+401218209+400626278+400589154+401410955+402720245
3966+403330392+402813599+401974639+401300706+401063181+401789087+402958331
3952+403284887+402611580+402017735+402318618+402862800+402894413+402906556
3939+403066468+402814424+401978104+400829055+400061736+400197063+400637068
3925+400698116+400713361+400632779+400145519+400125126+400804603+401497873
3912+402287335+403202093+403417442+401748928+398180280+395733160+396834790
3898+399710200+401590270+401605218+400103248+399248482+399996761+400431321
3885+399440105+397860423+397313040+398907836+399960990+398536897+396677650
3871+396090833+396606240+397461699+397080564+396732560+398373256+399975906
3858+399923306+397669756+393051023+392733509+397037633+400480423+401466195
3844+400452407+398331942+395384759+393149986+393928459+395946860+397631709
3831+399216242+400210263+400346515+399659151+396874124+393544387+394476436
3817+396807368+398593160+400765730+401963188+401169800+399235876+397986742
3804+396672271+395157992+396084398+398011821+399991976+402238827+403449814
3790+403475124+402946716+402096569+401971999+402684871+402486251+402124222
3777+403252449+404198192+403423844+401534172+400784606+401426497+401960615
3763+402089079+401476985+400770317+401165147+401283019+399466207+396912931
3750+398671202+403052180+406325555+409535341+413147118+415787083+416385614
3736+414663707+413650415+416440755+420633376+422754006+421697783+418900942
3723+416476459+415344174+415121004+414806955+414096624+413341547+414891893
3709+420387997+426799519+431894589+436025898+441670100+449558677+457794402
3696+465261982+470800621+473226225+474074029+476817906+479055022+477876737
3682+473773443+467726624+460122033+450571112+443218070+440326853+436912838
3669+434088509+433964962+433784657+432404947+430206967+427419301+424167507
3655+421921184+420213038+416120502+410874166+411337303+414931327+417349441
3642+418490075+418841577+418445659+417461142+416129379+414237561+410416737
3628+406743550+406767474+406579480+403362896+397023014+391331624+389300321
3615+387753176+385885514+385351759+385396208+385308795+385554041+385443595
3601+384455547+383239939+381973547+380425180+379129353+378236936+376279253
3588+372600389+370217782+369724748+368612328+366528854+364947324+364149018
3574+363632489+363441591+363108601+361441868+358492409+356833563+356571487
3561+356190912+355591556+355077568+354108791+352572007+351579241+351617882
3547+351763769+350857987+349162677+347974063+347643647+347690010+347597152
3534+347235354+346473314+345478006+345341655+346028689+346019548+345057041
3520+344355356+344459137+344568627+343870770+342777786+342126523+342034919
3507+342408167+342955253+342958355+342371968+341656390+341098811+341088647
3493+341464568+341395799+341018129+341140653+341267302+341065086+341273638
3480+341494036+341170583+340970874+340957642+340911873+341300895+341911074
3466+342262808+342397608+342108737+341456913+340980345+340820004+340991895
3453+341464205+341537166+341059344+341086403+341451270+341119897+340810864
3439+341465855+342468885+343170801+343656707+343735706+343489767+343851829
3426+344908118+345591918+345612509+345653064+345852179+346254268+347216940
3412+348045175+348180998+348553521+349543021+350335188+350668278+351294890
3399+352470767+353539728+354389281+355404618+356607224+357902853+359255603
3385+360746057+362510796+364562723+366733578+368605563+370298068+372787327
3372+375957779+378469775+380337734+382320562+384688287+387784360+390823411
3358+393198758+396122842+399964026+404043890+408150847+412012523+415492635
3345+418997925+422834061+426697189+429917998+432332515+434767260+437933719
3331+441667097+445157076+447415542+448793932+450465153+452377462+453868972
3318+454960999+455999601+457127827+458357492+459350391+459892098+460528743
3304+461312760+461542464+461107606+460283199+459224336+457839379+455650606
3291+452721474+449563726+446644724+444327851+441956430+438904608+435920698
3277+434011952+433239485+432803473+432323077+431676236+430361303+428462655
3264+426596609+425409711+424961621+424243173+422905932+421611128+420530288
3250+419773858+419378764+418752151+418033703+418015685+418170251+417642272
3237+416915838+416236658+415156378+413864643+412979485+413108048+413839234
3223+413544489+411946493+410512863+410121069+410267847+409900703+409331310
3210+409586918+409710796+408852004+408127120+408109466+408079437+407764233
3196+407912101+408909124+409958847+409766068+408586001+408073266+408179621
3183+407888309+407446918+407504500+407770965+407580430+407217609+407220084
3169+407917248+409214957+409887306+409361636+408930871+409341441+409629454
3156+409077319+408632793+409602032+410758241+410139680+408929320+409350482
3142+411507246+412894480+411549320+409664894+410579388+413307195+413757199
3129+411718306+411195870+414066727+416631487+415002670+412064925+412702988
3115+416511207+418104881+415347210+413022053+414821375+417994203+417273742
3102+413465886+412162271+415277846+419120417+418611510+414969011+414043793
3088+417577165+420415881+418138045+414429020+413841214+416156768+417789545
3075+416353605+414498020+415081405+417437646+418195066+416162740+414503300
3061+415166773+417167717+417683223+415630306+413567060+413309736+414292207
3047+414671363+413917771+413536074+414074284+414544516+414013962+412910979
3034+412651543+413510863+414350318+414448357+414155626+414150742+416292095
3020+425335992+441833575+453724767+450922647+440630838+432384356+427649731
3007+424501652+421946098+420498444+420332592+420401988+420072100+419950203
2993+420520190+422134290+424315110+424986634+423897082+423408140+425069527
2980+427543145+427935632+426339780+425279531+425743229+427330930+428412529
2966+427695434+426301172+426031473+427771892+429421433+428293602+426417954
2953+426311170+427863893+430058935+430465843+428690874+427480315+428552048
2939+431231083+432232166+430137736+428295945+428730670+430770850+432684611
2926+431833871+428785844+426769490+427282125+429202090+429446809+427211079
2912+425515340+426271803+428302182+429231987+428368212+427304399+427243714
2899+428350690+429852495+430156578+429086694+427910817+427665900+428776868
2885+430181756+430112822+428916090+428399825+428962090+429703770+429983929
2872+429748417+429394308+429472053+430106354+430608661+430345067+429931989
2858+430087710+430550913+430898786+430574771+429285346+428133096+428305383
2845+429420344+430546359+431446763+432239227+432765128+432784861+432502689
2831+432358353+432587859+433120953+433693217+434228160+434796431+435113648
2818+434965517+434952977+435433604+435826552+435974519+436276688+436697653
2804+436950852+436992827+436953723+437138450+437846240+438628706+438902034
2791+438899361+439022975+439372332+439770099+440027027+440189216+440388726
2777+440700102+440989270+441169740+441104172+440664199+440387538+440665123
2764+441166011+441685411+442159207+442467283+442779880+443300567+443882533
2750+444280332+444509212+444673710+444696479+444656584+444758121+444933971
2737+445199875+445657666+446066752+446286457+446602420+447147328+447680060
2723+447975464+448118283+448331257+448551853+448760999+449108575+449372565
2710+449407477+449604678+450150642+450604737+450790454+450995871+451158159
2696+451292662+451621923+451968839+452159340+452237217+452307241+452482068
2683+452700190+452764834+452656532+452593241+452698936+453022653+453602474
2669+454261129+454695524+454863389+454962946+454905726+454773401+455059368
2656+455596026+455995179+456484154+456892348+456775005+456589750+456890270
2642+457430294+457635744+457299982+457082091+457519522+458064397+458251962
2629+458425470+458871777+459307064+459414409+459328480+459287726+459441632
2615+459906420+460430043+460639948+460584841+460584082+460998183+461726036
2602+462211315+462435871+462720980+462982627+463132871+463394617+463827395
2588+464126396+464119929+464043042+464134349+464261658+464344782+464605835
2575+464986409+465180376+465209085+465381866+465708686+465854804+465794878
2561+465742146+465747888+465817383+466003595+466279267+466439079+466398986
2548+466355593+466480262+466789328+467194684+467567570+467804765+467931018
2534+468033446+468031334+468097728+468626136+469195727+469233214+469167646
2521+469366100+469520897+469552081+469702885+469989116+470289569+470603882
2507+471026101+471621035+472170926+472382613+472370106+472449765+472527048
2494+472284211+472084568+472506853+473225302+473517604+473415044+473529748
2480+473997901+474518159+474758489+474605011+474594716+474901175+474977039
2467+474877581+474964302+475064420+475030893+475205687+475822665+476370576
2453+476335828+476066525+476001980+476029336+475998053+475973535+476108038
2440+476511282+477130008+477774804+478143003+478117231+478085355+478304433
2426+478462134+478552056+478973417+479581814+479875767+479824355+479804754
2413+480013801+480391603+480729774+480702220+480436448+480456050+480753335
2399+481108071+481818204+483381420+486724588+493307174+504200782+519983580
2386+540438008+563678322+587449222+611164420+635032996+658664510+682103707
2372+705767295+728809121+750049282+769365222+785182173+795262560+800908511
2359+801616730+792064389+772967693+751372927+731863681+720891999+724622440
2345+737655025+742028281+734310405+725622961+719156794+715787756+718664189
2332+724978298+725775020+720983010+718893266+720911535+720918596+714577890
2318+702766060+690638696+685882853+690039901+694038094+688948963+674851641
2305+657865215+644826822+636704052+629536992+621462400+611999816+600181782
2291+587315841+575715005+565786611+557095207+549781467+543923796+539128157
2278+535011730+531307952+527774283+524545687+521940438+519794233+517741019
2264+515921073+514646992+513649341+512537185+511370845+510324587+509454345
2251+508652970+507877566+507316126+507005938+506727362+506340914+505896784
2237+505568876+505551948+505649063+505579007+505604416+505852434+505960670
2224+505790495+505624050+505740403+506102168+506504324+506860248+507089326
2210+507158161+507381397+507887235+508417788+508979031+509559446+510077625
2197+510660283+511082139+511128502+511156485+511507493+512108763+512501315
2183+512457955+512488512+512910401+513330607+513365288+513080542+512951286
2170+513298169+513865087+514302056+514508595+514464806+514242626+514142078
2156+514223321+514189564+514058922+513883566+513636604+513472105+513322753
2143+513326812+513849314+514784927+515696781+516294619+516736373+517073257
2129+517142290+517286230+517899050+518579088+518675708+518379511+518339913
2116+518839283+519693125+520361778+520561421+520589238+520835409+521303331
2102+521742709+522013266+522133909+522213667+522432416+522933765+523464913
2089+523627135+523458313+523439966+523931350+524502657+524767208+525056409
2075+525495886+525842571+526129989+526567388+527195980+527997454+528665513
2062+528932803+529158019+529770904+530869432+532035046+532743265+533099585
2048+533614828+534405345+534956952+535337559+536069405+536886982+537483170
2035+538014780+538535071+539020548+539575092+540062681+540128546+539848024
2021+539599445+539625547+539858122+539930059+539789781+539803641+539964345
2008+539910293+539637096+539371093+539242959+539376670+539742494+539971637
1994+539659535+539090472+539230486+540175239+540936850+541054755+540935530
1981+541027069+541313993+541522182+541627316+541760565+542000003+542336359
1967+542696178+543113314+543566057+543949238+544310376+544767244+545281397
1954+545733084+546094519+546240406+546039312+545836898+546187641+547203408
1940+548438089+549260879+549477285+549535891+549857034+550416000+551004070
1927+551399164+551589501+551742087+551766176+551562178+551962716+553306326
1913+554166240+553916109+553681422+554200162+554887790+555443422+555945399
1900+556203449+556338876+556675397+557163712+557309699+556943083+556881771
1886+557460239+558204096+558952969+559559486+559918512+560156697+560394750
1873+560217283+558785666+556942291+557590254+560181512+561963708+562488454
1859+562707565+562987064+563220695+563527320+563864237+563802859+562992410
1846+561696682+561356795+562604147+563825826+564456102+564960719+565265891
1832+564517744+562956310+562696148+563775338+564955901+566049677+566708925
1819+567136391+567824348+568285341+567779338+566781589+566640552+567367778
1805+568113417+568397602+568032240+567813525+568227857+568144106+566963082
1792+566627616+568676442+570718205+571527070+571549047+571236747+571290535
1778+571659197+570990973+568639879+566381908+567736242+571314822+573900339
1765+574528965+573851501+573690995+574327540+574726495+575248799+575087963
1751+572858371+570702366+571391973+573063029+573922052+573926012+574045797
1738+574455839+573266433+570938373+572231725+575533116+577935292+579208251
1724+579549392+579174922+577504130+573900999+571627452+574120968+577674272
1711+579752862+579511179+577184637+575245235+574724317+573073325+570679333
1697+570886895+574030816+578023596+579827175+579102127+576990472+573395326
1684+570731339+573843053+577475685+578431923+576952589+575123074+574070216
1670+573212579+574570741+577193480+577876422+577291618+578044055+579087673
1657+577894043+572848009+567316564+569426305+571011696+570364657+573261945
1643+578125958+580585420+579790744+576324492+574856774+579804934+584478610
1630+586393130+587647610+589421358+591270277+594330117+597430216+598499903
1616+599869614+603951689+607645369+609595066+611092615+613160249+615117272
1603+616653495+618080558+619328702+620210692+621103968+622729089+624989767
1589+627154813+628733935+629895820+631125947+632236618+632136038+630263426
1576+629996862+633514989+635653901+635491547+636672373+639395099+641449006
1562+641681449+638016148+633813495+639057060+646083744+651944780+656484812
1549+660096259+662233917+661219668+656456037+651882941+658796967+669875169
1535+675974918+679958063+684804785+688414318+689847717+690767985+691712409
1522+694005095+699618245+706370842+713983979+721626287+727355659+729892337
1508+728303184+730935295+742535999+751511324+756897641+760173689+763918187
1495+770134290+775986615+779659770+783480561+791000048+799573448+805959693
1481+810529291+814338466+816866895+817743276+818578869+823978320+833125898
1468+840233495+844495149+849757523+855948811+858217737+854638893+855595394
1454+866781172+877148318+883238893+886732337+891600508+897000222+899561320
1441+901850640+905759406+907462206+907335293+909750602+913267739+916701851
1427+919254039+919829999+920037099+919492158+913702794+906971119+906648523
1414+907822486+907693857+907529985+905660805+899313961+891937557+889200312
1400+888655569+885245216+879316202+875046826+874130254+873573961+870484026
1387+866351727+865883343+868751196+870992866+870792762+868421341+864519175
1373+862612508+864728321+866400235+865107015+863271295+862983414+864851538
1360+867393101+868361811+867627128+866671286+866118822+865663703+866143439
1346+867609770+868480739+867302816+864399786+863402828+866425182+870557613
1333+872902833+873622403+874833061+877340238+879297129+878783735+877252264
1319+877280181+879128043+881979398+885006965+887282030+889508520+893506185
1306+898665536+903025197+906235115+908662832+911441985+915513039+919662497
1292+922642612+925075147+927308237+929018957+930795081+932430300+933099184
1279+933745630+935724629+938359050+940513405+941852428+941023566+939339904
1265+940051093+941552139+942163870+943625384+945319935+945448630+945408239
1252+947673008+951774024+954788392+955092773+953794405+952485939+952629813
1238+954605844+955875701+954445734+952171791+952294480+954931145+956914897
1225+956554023+955619895+956367382+957893507+957847045+956748253+956366788
1211+956095208+954940649+953895711+953162611+952284119+951898166+951714363
1198+950547528+948772394+948364529+950087657+952354868+952360808+949550570
1184+947245279+947742965+950298189+952591205+952483497+950312973+948705802
1171+949968400+952377571+953609216+954941177+955918797+955267996+955808515
1157+958690690+960660385+960912891+961422589+962395524+963754940+965613956
1144+966527229+966335969+967629189+970265523+971078480+970719454+972259373
1130+974970021+976413979+977520031+979912505+982402391+984078462+985110135
1117+984448906+982901068+983067711+983000658+980769614+980322217+984021309
1103+988288572+988899445+986898798+986108082+988615590+993495904+997816362
1090+1001450248+1005105056+1007884011+1010030579+1011929986+1013834738
1078+1016998723+1022379232+1026715133+1025911614+1022775679+1022029313
1067+1023275939+1024274877+1027324686+1036130925+1047305087+1050300712
1055+1043376786+1037519248+1036015693+1034721153+1032525880+1029994943
1043+1030006691+1033075903+1035401521+1036234739+1037935626+1041918837
1032+1047319739+1049831206+1046868514+1043072868+1041273645+1040342223
1020+1041010315+1042760832+1045570938+1049720859+1050752597+1047486052
1009+1045482040+1046243518+1046847329+1048103921+1050996524+1051662042
997+1049790420+1050036392+1050467290+1046624060+1043520595+1046464412
986+1050385783+1050565230+1051181514+1053282082+1052873359+1050891588
974+1049834242+1049324412+1050188715+1053677010+1054865559+1050416076
962+1047428569+1049409945+1050981146+1049192021+1047894577+1048625565
951+1047920844+1047890485+1051812318+1057236650+1062275490+1064750923
939+1062831518+1059204628+1057202727+1057958596+1060552890+1062165010
928+1061940157+1061617891+1061008471+1060603180+1061921677+1062410719
916+1059682978+1057640356+1060800051+1065943695+1067401909+1065967520
905+1065914590+1069020827+1071989986+1071924187+1072145476+1073102110
893+1070321109+1066642542+1067408904+1071128719+1073741823+1070717555
881+1063387877+1059357874+1059326459+1059426643+1058656453+1055828924
870+1051341096+1048814911+1049445319+1050551173+1050640269+1049186477
858+1044506399+1039149583+1036657123+1032451765+1022535910+1014749925
847+1016854122+1022111084+1018714657+1010032822+1006514234+1005988498
835+1001032023+995252427+993583483+990545554+982274224+975278295+973612981
822+974448575+977416876+981556435+983759761+985050935+985136204+982186843
808+975954703+967324215+962209279+962896511+962535241+958414161+954459725
795+951309864+948649507+947296955+945159297+941629818+938981604+936946176
781+935116793+933951344+931515971+928213524+927486958+928997508+929521528
768+926386582+920945290+917646473+915176451+910315276+906230693+906112162
754+908312319+908176563+902927322+896715641+894518784+895537125+897140071
741+898416660+899455526+899867482+898844257+897611623+897361954+897793446
727+898993016+899160253+896341898+893924675+895874702+898172139+896384598
714+895008815+895755576+893064200+887943391+887190161+889946744+890167175
700+888397519+888884580+891681685+893527964+892852744+891775797+891646046
687+891349388+888990440+884514030+882156733+882788791+881991937+881269529
673+885963863+894710374+899295284+889224335+876019563+873915498+877931905
660+876976592+873945659+879429718+886416935+883539248+877869670+877432833
646+877156237+872644981+868928202+867859901+864341642+860250723+858225987
633+853619892+849644931+847662301+841118323+844711423+870381598+876889146
619+847087001+835022467+847675567+843868899+821578388+815212867+837460018
606+854314120+836745859+820463625+824062005
##END=
