##TITLE=Sample description
##JCAMP-DX=4.24
##DATA TYPE=INFRARED SPECTRUM
##DATE=25/8/2023
##SAMPLING PROCEDURE=Instrument type and / or accessory
##ORIGIN=Default
##XUNITS=1/CM
##YUNITS=ABSORBANCE
##RESOLUTION=4
##FIRSTX=4397.6552
##LASTX=599.8556
##DELTAX=-1.9287962
##MAXY=1.8517165
##MINY=0.13111176
##XFACTOR=1
##YFACTOR=1.7245454e-009
##NPOINTS=1970
##FIRSTY=0.14501308
##XYDATA=(X++(Y..Y))
4398+84087713+84289075+84630751+85152974+85414249+85361049+85481940+85678497
4382+85430580+84941183+84719015+84795493+84973300+85152576+85222574+85139589
4367+85169650+85487902+85964199+86468009+86801217+86871552+86766119+86312512
4351+85567439+85216914+85384836+85298802+84866424+84754485+84884146+84777417
4336+84527323+84415660+84432578+84394741+84393168+84567770+84694891+84626362
4321+84485623+84491317+84724208+84953375+84952183+84763480+84618611+84707376
4305+84973974+85098823+84875272+84594728+84619346+84829589+84851122+84646088
4290+84488820+84468705+84580160+84844581+85102988+85197663+85186551+85237168
4274+85421291+85617710+85734272+85774632+85681936+85487124+85326711+85236615
4259+85117659+84957168+84985138+85134448+85045242+84828224+84768777+84888268
4243+85072158+85093310+84981561+85049156+85299959+85510143+85536428+85302431
4228+85115300+85348304+85672163+85707840+85666599+85708074+85646285+85506687
4212+85683111+86128968+86315925+86249997+86354393+86623454+86720047+86685122
4197+86834060+87013466+86856509+86462790+86268306+86456966+86692535+86656850
4182+86525996+86596210+86801096+86939424+86991372+86912543+86775226+86812666
4166+86910020+86818429+86589643+86452309+86604807+86963955+87267656+87326628
4151+87013509+86575481+86506503+86719831+86681242+86440635+86624283+87158594
4135+87255006+86911403+86932512+87423127+87645839+87385531+87147326+87259992
4120+87517474+87466650+87150489+87004065+87153159+87445981+87623287+87605133
4104+87593848+87741612+87994368+88208214+88368973+88383196+88210833+88210763
4089+88369872+88296755+88147540+88241006+88519519+88742456+88734109+88672778
4074+88891170+89344734+89688018+89795092+89794211+89810118+89911093+89973953
4058+89858221+89660670+89503341+89396284+89308374+89258561+89247648+89321793
4043+89569563+89824635+89860087+89635362+89332412+89243284+89335687+89293011
4027+89022490+88851544+88932541+88952968+88976410+89250543+89427511+89267746
4012+89059023+88888267+88588627+88296565+88197725+88186397+88189378+88307176
3996+88613400+88840311+88712629+88601787+88778928+88831385+88621211+88503154
3981+88551818+88564554+88465170+88353006+88372879+88439403+88405333+88343950
3966+88183770+87823776+87626536+87876138+88334800+88573177+88226066+87408472
3950+86665508+86588649+86921046+86719892+86496281+87284194+88236746+88172442
3935+86926619+85525255+85532531+86441629+86453518+85768835+85840543+86166010
3919+85664508+85350792+86356735+87691427+88409126+88267109+86585219+83217360
3904+80314954+80046352+81639174+84161314+86134886+86038034+84758883+84937943
3888+85735369+85098719+83835787+83030791+83186072+84948139+85842021+84499941
3873+82378510+80828312+81148654+82499263+82572786+82809678+84572133+85495004
3858+84083350+80182200+76026851+78501182+83699507+86705643+86893067+84788512
3842+81623690+78657958+77972306+80393273+82896680+84358165+85455214+85946970
3827+85765776+84867556+82288587+79984131+81097752+83025218+85533205+88543670
3811+89814283+88589456+86143570+84741127+83602818+82556179+83711267+85641627
3796+87772467+90188863+91712353+92029266+91410242+90418315+90062347+90071377
3780+89579232+89849209+91453644+92285910+91203559+89323720+88747070+89385319
3765+90247023+90760795+89792155+88062775+87721133+87391459+84667534+80970009
3750+81441390+83705409+84447751+85736977+87881564+88306882+85878476+82155331
3734+82455049+87209608+91259645+92544507+92090355+91825226+92594277+94059114
3719+95619898+96372963+95403994+92634689+91233101+94083230+97576128+99012235
3703+98798069+99241843+101121578+102731440+103217078+102079279+99338445
3690+98039015+101813744+106900855+109955725+110829379+109884906+107597645
3676+105877278+108503494+112047993+114629036+119908842+126132750+130513679
3663+133409017+135586015+137184247+138849106+141437261+142773068+140991879
3649+140250841+147453188+156492412+162802164+167102174+170657759+173947731
3636+176971123+179530547+180756324+181230902+185411931+192623247+197940622
3622+200406745+201437814+204197372+208522492+212288581+216103506+219928541
3609+223134647+227299379+232126278+235603406+237907465+240261986+242550250
3595+244630723+247483463+250404739+251684002+252424815+255672189+259891444
3582+262771937+264551423+265933457+267407100+268967684+269918793+269571941
3568+267619711+266827780+269833735+273544627+275842689+277451574+278884312
3555+279523270+279461092+279615742+279951966+280053925+280840914+282604743
3541+284096341+284746790+284995606+285642496+286535591+286799010+286405498
3528+286087039+286021871+286049366+286685714+288058779+289545918+290353593
3514+290124097+289441695+289121698+289406355+289491983+288684914+287973168
3501+288706602+290114904+290973022+291371597+291313981+290615404+289831992
3487+289506206+289369217+289132654+289266376+289905472+290483928+290523709
3474+290040283+289475998+289059019+288864224+288947001+289077302+288724384
3460+287666823+286446437+285586452+285205280+285322810+285373547+284514893
3447+283406957+283243010+283540299+283445408+283053037+282950092+283212923
3433+283119224+282494869+282172366+282414943+282530710+282015988+281249823
3420+281214500+281992831+282747850+283081119+283033561+282941123+283238447
3406+284012441+284970738+285679115+286076203+286439283+286901799+287602104
3393+288709263+289864636+290684321+291638593+293099689+294382684+295014729
3379+295744275+297356271+299519816+301211306+302138308+303023662+304419642
3366+306106881+307727829+309542223+311518577+313195517+314901903+316868891
3352+318867676+321010242+323016216+324674768+326798117+329501321+331769556
3339+333453339+335118561+336942599+338788721+340336016+341610095+343200559
3325+345171625+346814520+347969219+349092882+350387698+351737952+352587533
3312+352762454+353285385+354667610+356252613+357672648+358708522+359200934
3298+359803152+360833322+361508501+361293246+360559414+359928510+359566606
3285+359054044+358265672+357751416+357602487+357343026+357197483+357722142
3271+358473186+358852233+359365314+360210367+360269193+359256995+358505605
3258+358648729+358977591+359052350+358892775+358219393+357329650+356958621
3244+356775786+356461681+356495311+356607846+356235020+355683264+354901563
3231+353447725+351959739+351008164+350046600+348858582+347976892+347618894
3217+347296425+346666903+346087947+345734372+345352560+344939883+344626989
3204+344463197+344201558+343603454+343012055+342460437+341772055+341286313
3190+340913072+340325579+339844434+339709813+339474822+338681543+337533065
3177+336673149+336470267+336546719+336233928+335509083+334790321+334009139
3163+333059775+332493295+332613193+332842412+332530243+331599267+330492194
3150+329789504+329553580+329436551+329311158+329144325+328756326+328024465
3136+327113811+326484013+326423425+326437872+325851380+324787580+323879070
3123+323662086+323872296+323622996+322795949+321998868+321539290+321087835
3109+320494500+320140441+319679101+318611153+317743841+317813899+318091056
3096+317775570+317224574+316732956+316041326+315335490+314878400+314672788
3082+314852859+315190880+315106479+314740565+315119301+316593911+317926159
3069+317903624+316513865+314227277+311625825+309194973+306938766+304817940
3055+303090540+301747164+300519952+299514667+298964915+298576190+297924548
3042+297311513+297277814+297562679+297351156+296355859+295145998+294258501
3028+293747598+293455752+293049470+292598429+292469476+292534177+292741794
3015+293258918+294080401+295328972+296900150+298417168+299989383+302050968
3001+304630231+307506041+310922927+315570999+321891586+329595677+337820694
2988+345383666+350883220+353318634+352712131+350017637+346649415+343641058
2974+340835168+337646361+334623142+332852746+332190424+331720823+331183410
2961+330834882+330955470+331557653+332429839+333514342+334654456+335818625
2947+337157024+338328003+338917121+338871879+338137356+336728449+335046602
2934+333442624+331787390+330046580+328433685+326788889+324516576+321189552
2920+317092269+312848371+308599703+304268120+300186216+296664433+293615465
2907+290895637+288503443+286389426+284474421+282896693+281724557+280968398
2893+280784923+281085496+281711734+282557531+283376421+284151468+285021424
2880+285991473+286998418+287996947+289021086+289904729+290365067+290443040
2866+290200446+289615026+288832116+287674686+285655975+282694986+278951830
2853+274521433+269562799+264409284+259566470+255218919+251150114+247253328
2839+243649649+240464470+237522836+234664671+232094688+229918631+228041420
2826+226422286+225061076+223930605+222952969+222154955+221607052+221178097
2812+220645886+220000880+219458957+219114507+218831751+218465785+218053074
2799+217712029+217270268+216456752+215366598+214189589+212851241+211301752
2785+209825966+208681791+207722698+206660955+205490996+204468239+203630564
2772+202806628+202009565+201266643+200492322+199697021+199064094+198713786
2758+198498202+198275516+197953116+197461309+196943320+196492279+196069217
2745+195626938+195072071+194420602+193815896+193430264+193251058+192972276
2731+192526765+192180311+191928177+191627984+191388794+191233315+191067484
2718+190921077+190688160+190277592+189918504+189775848+189708572+189562407
2704+189387710+189244207+189064015+188817619+188514920+188183569+187859632
2691+187501270+187153675+186868379+186448721+185847298+185325041+184921057
2677+184466491+183962759+183469984+182956229+182382785+181751241+181114651
2664+180567423+180176866+179901334+179610767+179249087+178882759+178549870
2650+178207528+177900976+177741867+177638335+177466698+177247087+176963398
2637+176727008+176672468+176660319+176634847+176683200+176725902+176709744
2623+176720838+176783172+176906076+177084955+177238395+177358137+177481802
2610+177642967+177897589+178259026+178625959+178794158+178758662+178765834
2596+178947529+179192439+179371611+179549643+179705503+179648233+179456186
2583+179306962+179139697+178973503+178865028+178644105+178275167+177892750
2569+177521168+177132461+176699600+176267724+175847996+175374818+174916813
2556+174550346+174210821+173860409+173585948+173390981+173161676+172896167
2542+172681326+172608900+172639678+172608399+172555639+172595144+172618163
2529+172548502+172497626+172546463+172672029+172823240+172975660+173132090
2515+173276977+173422623+173593068+173761077+173934287+174167584+174441077
2502+174655589+174803068+174996618+175237795+175410953+175518771+175620005
2488+175660858+175587395+175488529+175449231+175371362+175179955+174950511
2475+174710872+174452863+174227964+174064587+173916470+173719930+173427807
2461+173016306+172587592+172315637+172154334+171873842+171457260+171114365
2448+170903378+170662736+170301212+169922251+169621557+169402172+169257562
2434+169126691+168911522+168625293+168404006+168292646+168182391+168011307
2421+167843851+167774640+167747525+167650232+167550277+167505173+167473064
2407+167450357+167427010+167416244+167472390+167576285+167650768+167637859
2394+167538647+167460708+167483502+167470662+167201610+166582129+165619131
2380+164287281+162546487+160557259+158634597+156857029+155051414+153159962
2367+151368932+149999565+149196262+148869940+149075138+149949052+151561290
2353+154049048+156743301+158044044+157224463+155246571+153903609+153661810
2340+153876305+154302133+154863808+155319861+155620278+156097794+156882692
2326+157686754+158422763+159297195+160395385+161552849+162496493+163141516
2313+163627880+164133288+164771053+165420880+165858251+166096059+166296470
2299+166554548+166874251+167182221+167400569+167566591+167814473+168148468
2286+168407929+168521916+168541202+168500729+168424571+168392030+168462866
2272+168538039+168499537+168424744+168448834+168527792+168571202+168591836
2259+168556340+168476708+168502146+168612383+168610897+168509992+168490447
2245+168530591+168537348+168564549+168631808+168700311+168739781+168744257
2232+168766774+168815749+168882835+168980250+169065878+169114473+169125602
2218+169124410+169157348+169219768+169334792+169512720+169705095+169869474
2205+169968461+170059361+170172519+170234921+170309144+170477464+170643658
2191+170705006+170718486+170805341+170937871+170995763+170998200+171054295
2178+171151502+171170339+171071369+170938061+170889622+170976581+171107832
2164+171191145+171235938+171245495+171221353+171236993+171368140+171535043
2151+171627877+171721490+171854400+171955686+172061724+172202877+172290078
2137+172303661+172356386+172516394+172706038+172812854+172868050+172972152
2124+173105028+173204136+173240928+173221106+173249983+173408280+173590113
2110+173680684+173744711+173899931+174128891+174289970+174362914+174481290
2097+174700158+174958703+175159252+175348948+175672108+176028707+176266410
2083+176499224+176831006+177151539+177384370+177608542+177896846+178216687
2070+178449708+178536805+178634082+178891538+179188845+179431266+179684506
2056+179938143+180157373+180340140+180467606+180536023+180572642+180596663
2043+180627838+180771584+181044057+181290402+181474257+181687802+181911248
2029+182098767+182329922+182593582+182783244+182841827+182750254+182753831
2016+183131064+183649381+184012443+184281927+184546226+184805445+185093766
2002+185409598+185716375+186065992+186381548+186361830+186264831+186733032
1989+187597613+188441544+189165180+189705616+190162066+190684375+191263799
1975+191823694+192346695+192672412+192623489+192711243+193494430+194457722
1962+195111040+195613182+195969158+196174235+196422100+196684966+196766689
1948+196586134+196072414+195268109+195088402+196055565+197050395+197412213
1935+197427766+197478953+197679399+197830834+197593424+196819690+196331339
1921+196644700+197031472+197652198+198663549+199101145+198796321+198652610
1908+199249125+200102525+200727692+201222904+201553961+201433684+201134822
1894+201198244+201207144+201039515+201628167+202707900+203479751+204013845
1881+204417709+204747280+205035064+205149743+204559830+202762043+201256257
1867+202515197+205033768+206503367+206975508+207266853+207788903+208449583
1854+208951206+209035556+208533069+207474695+206323279+206738582+209083304
1840+210907099+211637596+212284986+212707150+211834637+210514763+210929202
1827+212329969+213835167+215683329+217077029+217838527+218480716+218742510
1813+218204804+217790313+218582745+219799640+220228060+219575830+218790898
1800+219199340+220077246+219805757+218577543+219105866+222220745+224594188
1786+225313987+225451822+225539266+226093614+227119412+227034285+225217834
1773+223856537+225740022+229154091+231899081+233001764+232963815+233744444
1759+235153679+236496070+237805143+237480497+235329689+234454928+236619493
1746+239537313+241734142+243460333+245540357+247101495+246567227+246480061
1732+250499665+255463431+259817757+262874553+264636516+265697067+265106117
1719+262751044+263540573+269785848+275808023+279532446+281001336+281260520
1705+282306521+283775549+284627878+286662367+291362922+299395944+306932165
1692+310729273+313000100+314517291+314993286+319476668+329027987+336966447
1678+342880371+348477565+355065701+360440243+365648919+374507744+382172468
1665+385417059+387029920+389404331+390422024+388100840+382512770+378504727
1651+380955141+381810840+382974664+390112344+397835064+402759844+405325524
1638+406889374+413577845+425993084+435671248+443482206+452516125+462495536
1624+473454310+486618865+497643412+505941460+516831628+528532218+536362911
1611+541695771+546353382+550758722+553838312+555169453+555630863+555023945
1597+552580340+548998176+545181160+541084706+536918158+533074253+529153134
1584+524660628+519527713+513645378+506392086+500184622+498503294+496743093
1570+493124639+491515995+492347466+492993681+492165909+488674644+487946101
1557+495960010+503455516+509417966+514856933+520724233+525455462+527951222
1543+529880157+536865451+558075574+577116657+588875001+602579665+619397029
1530+632773211+643245933+652648115+660221663+668086296+677151287+683643097
1516+688323761+692025062+692382992+688420882+681608401+681355680+690926181
1503+697860668+701108578+702449396+704969558+709551788+712857417+714259273
1489+717621585+726039426+735342276+743253154+750341513+755459394+757154478
1476+756163433+755631031+760541260+768986061+775204688+778208518+780832366
1462+783997188+785473630+785835223+790377361+797978144+804992816+810697637
1449+813919833+816913224+821744512+827592077+833009891+834812257+833027656
1435+835372723+841955571+847239905+851020768+853210858+852842283+852090410
1422+851807965+850158088+849415477+851409320+852949012+853221157+852617626
1408+850207098+846776767+844841611+843202518+838792685+833701003+830551873
1395+828546832+828637386+829209257+827710073+825028850+824195479+825562358
1381+826505569+825487772+823166622+820739918+819687765+819316633+817803485
1368+816430524+816385178+816264485+816553359+818039547+818686489+817799130
1354+816208010+814426243+813194780+812959616+812638185+811481930+809684541
1341+807619430+807328621+809526936+811485870+812299403+813286232+815127724
1327+817210669+818223627+818129963+818252176+819521934+821866172+824233221
1314+826665732+829947374+832940213+834836382+837260459+840609914+843251804
1300+845098618+847204444+849933293+852092898+852514077+853202770+855555165
1287+857197092+856319618+853674548+850545396+848550170+848580792+848569318
1273+846821629+844934653+843621485+841783380+839804399+838445954+837270068
1260+836035771+834672279+832832378+830731460+829173727+828431255+828003509
1246+827338941+826419232+826525131+828122197+829071283+828485656+828421093
1233+829965140+832151772+834592232+837113776+838953954+840105024+840759500
1219+841510544+843110720+845068410+846817689+848218093+849709743+851810799
1205+853582336+854445016+855572722+857725829+859788314+860669451+861256461
1192+862776037+865384194+868034379+869380244+870127901+871454894+872962926
1178+874411718+876327796+879288836+883153065+887170682+890527740+892604879
1165+894543491+897337664+899802317+902112200+905415341+908834335+911398529
1151+913363823+915583290+918914081+922714092+925967048+929257677+932980199
1138+936480277+939105578+940194643+939964871+940545314+944061152+948820620
1124+951739079+953751863+955910500+956253360+954476708+953894951+957050925
1111+961238728+962472817+962824802+966328129+970974577+973501443+975195214
1097+977459889+980794896+984806914+986804352+985870887+985948169+990217747
1084+995132123+996841033+996448333+996192916+998272198+1002517927+1005523346
1070+1006905294+1010003134+1013346712+1013417704+1014728799+1021521165
1059+1028578487+1030016841+1028065924+1025941020+1022896684+1019968132
1047+1019419348+1021856974+1026985915+1031882249+1033368092+1032478937
1036+1031399134+1029448702+1026496164+1025970537+1028793051+1031396922
1024+1032874678+1035536891+1040045711+1042813754+1041019613+1039878290
1013+1042552461+1043824985+1040971710+1037523337+1037200593+1038584338
1001+1038060093+1037298612+1037875944+1036482314+1034398332+1035852239
989+1038263183+1038842036+1037994286+1035675279+1035691524+1040433848
978+1044494046+1043870814+1041833976+1041945267+1043257606+1042947580
966+1041315469+1041569918+1043530927+1043615397+1042443382+1045074351
955+1050388754+1052577046+1054250701+1056815379+1055375642+1052504395
943+1052072364+1053018962+1054190908+1055783757+1058583045+1060390181
932+1060692811+1063015550+1066412770+1067749303+1068789981+1069781994
920+1067921839+1066357816+1068969153+1072628564+1073741823+1072979374
908+1072240911+1071861552+1070527577+1067490914+1064935568+1065293981
897+1067592113+1069109684+1069626325+1071326386+1073333916+1072932645
885+1070393336+1068227441+1068871064+1071242676+1070446908+1064634044
874+1059854600+1059260539+1056988468+1053079792+1053656088+1054634898
862+1047280338+1035100228+1027705368+1026274963+1025394034+1022130156
851+1019377942+1019687692+1018521759+1011273030+1002479770+997555717+994755392
837+989918297+982059124+975088416+973303469+973893589+970635449+964143293
824+959149838+956573340+955310909+954690028+953876219+952849781+951777029
810+949508137+944899294+939948834+937797662+938503775+940103190+939207813
797+933443268+926131289+922514805+922904947+923316517+922186392+921112465
783+919465284+915999769+912648102+910664213+907877782+902995134+897161049
770+892097847+889339342+887857785+885577972+882089161+877497184+873557194
756+870716500+867380249+865224446+865047900+864562228+863301525+862038956
743+860650579+857922145+854384117+852946039+853751001+854308840+854393933
729+855007556+854469486+852311955+852607465+856093441+857458177+855034307
716+852983160+852940855+852051147+848730863+845688324+845162766+845404012
702+845405395+847189374+849565617+849921888+850028755+848479732+841702020
689+835267999+834524144+835316939+834103518+832203270+831481951+832666132
675+832247372+826539855+818084133+812973580+817639382+825620008+829750506
662+831917300+831709510+830264866+829112275+825260419+820433210+818587087
648+817738508+816818937+817683415+820378048+822160852+819984104+814196748
635+806798570+803096439+809339676+819341103+820144336+811112595+802794432
621+800282082+797430466+794467006+799974061+808834233+812466755+813337869
608+811026604+807381501+807346939+807092144+807617563
##END=
