##TITLE=Sample description
##JCAMP-DX=4.24
##DATA TYPE=INFRARED SPECTRUM
##DATE=25/8/2023
##SAMPLING PROCEDURE=Instrument type and / or accessory
##ORIGIN=Default
##XUNITS=1/CM
##YUNITS=ABSORBANCE
##RESOLUTION=4
##FIRSTX=4397.6552
##LASTX=599.8556
##DELTAX=-1.9287962
##MAXY=1.9416277
##MINY=0.61721689
##XFACTOR=1
##YFACTOR=1.8082817e-009
##NPOINTS=1970
##FIRSTY=0.73357308
##XYDATA=(X++(Y..Y))
4398+405674105+406105709+406384140+406311722+406000627+406224933+407359453
4384+408076641+407329260+405706177+404527817+404902134+406308162+407162373
4371+407125225+406790595+406418058+406147505+405979432+405687982+405401212
4357+405434240+405464961+404894783+404167641+404399199+405508339+406145890
4344+405682081+405128451+404913736+404081610+402962648+402518056+402296518
4330+402133817+402623699+403398406+403557019+403143444+403025473+403677462
4317+404349525+404394518+404403814+404748992+404932690+404299720+403167342
4303+402704159+402981337+403330965+403486612+403676111+404417064+405381731
4290+405787329+405397125+404545419+404069381+404216227+404300181+403922700
4276+403695031+404496074+405745303+405888292+405126902+404989846+405439942
4263+405350615+404854240+404757134+405023566+405284592+405192595+404543309
4249+403868774+403367718+402997324+403401273+404081939+403905296+403614571
4236+404306708+405351274+405813171+405814292+405623178+405406980+405208219
4222+404772560+404520203+405084216+406007384+406184522+405569252+405141339
4209+404942479+404484867+404127526+404442247+405086655+405150733+404661247
4195+404244212+403854765+403494457+403925469+405206670+405988496+405501680
4182+404639064+404232873+403854534+403496468+403703008+403984471+404152313
4168+404409516+404486977+404794974+405420561+405656569+405583789+405484639
4155+405145295+404614144+404164147+403781227+403446069+403451804+404005402
4141+404769462+404982990+404628120+404498448+404413702+404082038+404077358
4128+404109199+403810662+403750473+404134712+404555901+404426492+403612725
4114+402997093+403444783+404268241+404275921+403625086+403194898+403527386
4101+404376257+405042849+405308523+405435097+405502669+405222360+404609991
4087+403938357+403414491+403495809+404221171+404665203+404250606+403825066
4074+404130888+404504216+404327540+404200273+404420855+404111243+403179307
4060+402579926+402727167+403446464+404197636+404334956+403616647+402615920
4047+402433277+403170276+403662432+403675023+404253672+405097829+405029598
4033+404441786+404091070+403889375+403888518+404062624+403701755+402962812
4020+403157783+404142326+404473528+403871246+403189954+403114767+403310265
4006+403158310+403093771+403598551+404124724+404303444+404535233+404796754
3993+404772263+404678816+404707592+404822761+404854108+404686694+404612397
3979+404801336+404936381+404475374+403675584+403362510+403346754+403551844
3966+404360073+404898772+404501744+404225127+404402100+404176837+403768240
3952+403688175+403546471+403279083+403401867+403757758+403702118+403645918
3939+404240058+404668598+404266329+403821737+403969770+404270944+404368445
3925+404006358+403363103+403288807+403908493+404353810+404083686+403643709
3912+403511894+403738409+403822067+403001741+401602239+400760487+400703628
3898+401429122+402589946+403106230+402250800+401700268+402350015+402267215
3885+401407532+400940163+400654712+401327401+402500157+402990929+402916402
3871+402189062+401285836+400895763+400085985+399922394+401625938+403146543
3858+402981106+400371008+396186478+397539009+402017099+404530487+404997658
3844+404064503+401828820+398823869+397316910+398929446+400905059+401659098
3831+402139322+402784224+403336635+403263261+401495672+399580875+401047191
3817+402826877+403045811+403750473+404650535+404311784+402651948+401664768
3804+401109061+399634867+399846516+401576957+403160717+405082733+406909357
3790+407680438+407502113+407154331+406939056+406530524+405756180+405537708
3777+406283210+406658318+405862977+404407209+403820353+404386542+405404376
3763+406538600+406738383+405888984+405644867+406259214+406391886+405338452
3750+405515228+407689898+409774285+412398261+416383832+420030125+421915685
3736+420830707+418415249+420004613+424722073+427994214+428025034+425828872
3723+422915852+420167841+418499105+418063281+417874013+417228583+418677660
3709+424059042+430094852+434976496+439071699+444904727+453395681+461857661
3696+469046944+474566997+476991586+477112062+479564800+482774610+482549380
3682+478379947+471390281+463098352+454020905+447861256+445344869+440708693
3669+436173545+435652514+435603467+434102738+431971084+429780559+426952944
3655+424840209+423931083+421503693+417536910+417385746+420372766+422873397
3642+423590849+422860542+421933122+420979597+419215502+416587933+412797167
3628+409675465+409579479+409288919+406678689+401411026+396182654+393881344
3615+392157462+390084579+389407703+389873160+390020171+389964597+389673839
3601+388319165+386327830+384650491+383278809+382385109+381753622+379724710
3588+375829059+373088200+371963041+370683785+369315893+368450442+367839260
3574+366954790+365689245+364289315+362434376+359874776+358599112+359142590
3561+359490702+358338514+356803439+355765300+354636812+353931523+354484263
3547+355079426+354312795+353008520+352157539+351632322+351279563+350810974
3534+350050276+348923733+347852961+348154366+349338626+349360645+348253417
3520+347153012+346048158+345244676+345529435+346278431+346423826+346162339
3507+346070968+345970697+345272825+343878828+342648124+342305912+342469074
3493+342686129+343112988+343527189+343475274+343241342+343504280+344027750
3480+343500028+341898403+341327830+342693810+344227731+344622946+344380312
3466+344164312+343969078+343713128+343496600+343294378+343268700+343653005
3453+344085895+343973396+343410800+343080191+343373816+343963441+344512292
3439+345044959+345066318+344266099+343471351+343348436+343954607+344917198
3426+345556760+345591172+345269100+345418583+346710926+348486854+349373335
3412+349013522+348632184+349236773+350548069+352035349+353262855+354003776
3399+354582919+355176367+355767640+356667965+357956187+359419240+361279189
3385+363441564+364995724+366076483+367762129+369898398+371923157+374352327
3372+377468789+380488605+383150520+385766750+387790685+389407637+392077101
3358+395878381+399800303+403698294+407726321+411678106+415487858+419279085
3345+422925576+425885995+428448200+431722484+435394059+438323164+440570549
3331+442948759+445518743+447799189+450154656+452604130+454265450+455333519
3318+456486498+457500739+458375750+459582292+460771958+461390490+461777563
3304+462377868+462603856+461827303+460950678+460663809+460082689+458240210
3291+455194089+452024625+449627098+447818636+445754521+442887483+439977957
3277+437974854+436345772+434649875+433532166+432886835+431967623+430766058
3264+429707416+428800762+427686744+426272805+425093786+424979474+425281010
3250+424268581+422226979+420708484+420325696+420606796+420221272+418699778
3237+417027152+415828290+415052430+414339362+413478130+412998829+412994709
3223+412667791+411949021+411576880+411455415+411051036+410572889+410478848
3210+410858637+411300592+411461842+411268421+410450435+409202427+408487019
3196+408685582+409314959+410031488+410233809+409809851+409550011+409225138
3183+408476009+407947727+408127205+408765515+409218578+409252133+409390904
3169+410165775+410950074+410808106+409961509+409652391+410509371+411285957
3156+410803821+410065867+411001890+412838073+412951034+411706091+411667657
3142+413552789+414751321+413333295+411598074+412342522+414783789+415640176
3129+414450213+414201778+416164536+417646410+416173040+414018444+415066340
3115+419192033+421199651+418558107+415906113+417090143+419930448+419544199
3102+416257291+415398168+418584443+421668602+420653075+417556984+417036349
3088+420587414+424067843+422612173+418957804+418007806+419746586+420567901
3075+418799587+417331194+418597529+421394061+421890404+419290358+417232637
3061+417714674+419937667+420923298+419136656+417251986+417459186+418729872
3047+418588564+417073662+416362473+416996267+418028572+418399263+417947584
3034+417578047+417844940+418420029+418626668+418540769+418918613+421204167
3020+429874929+445871734+457342983+454257078+444006511+435927945+431037895
3007+427747427+425455281+424043714+423585740+423898714+424368753+424708987
2993+425108850+426286253+427980601+428487161+427870837+427856795+429433271
2980+431818601+432425202+431009812+430182827+430806370+432125544+432685140
2966+431577154+430379380+430944679+433534901+435452468+433777370+430880634
2953+430069866+431640639+434284095+435088567+433402658+432128774+433074125
2939+435436943+436315908+434422009+432526889+432785971+434876028+436811459
2926+436218538+434016675+432672318+433054546+434400056+434130690+431747766
2912+430115453+430733722+432881495+434593543+434210326+432923093+432845270
2899+434287425+435872404+435897422+434376620+432931894+432957769+434504282
2885+436004911+436085833+435376260+435279483+436081548+436647078+435853649
2872+434422635+433955662+434641832+435656766+436401148+436617906+436623642
2858+436827908+437111612+437241482+437009364+436309975+435583756+435443964
2845+435617245+435462027+435267781+435570076+436230899+436947823+437748603
2831+438543779+439036001+439291853+439474891+439822607+440459500+440911310
2818+441154010+441541742+441933661+442190204+442262358+442070519+441764137
2804+441924728+442841897+443662355+443816353+443947806+444383597+444675871
2791+444681837+444742125+445080315+445580119+445911189+446021052+446271629
2777+446694631+446955295+447083550+447412973+447925664+448186262+448126601
2764+448269458+448782248+449200438+449381202+449605574+449861129+450157919
2750+450692135+451412817+452121731+452370034+451995190+451731131+451965458
2737+452399172+452868552+453069258+452950001+453174275+453882398+454529739
2723+455004953+455439063+455739908+455850034+455823269+455873931+456232822
2710+456635123+456656318+456652461+457108359+457551600+457656979+457922653
2696+458463692+458885112+458946125+458803893+458983668+459571810+460063933
2683+460332112+460592710+460869624+461149142+461362868+461401895+461365670
2669+461359209+461370021+461432748+461632168+461939868+462220441+462492147
2656+462811319+463032791+463129040+463498182+464350382+465025972+464924647
2642+464482428+464316069+464498414+464904243+465376721+465884501+466420068
2629+466575913+466356188+466475642+466945483+467208289+467364661+467768776
2615+468295311+468672199+468907317+469078786+469156840+469315684+469718414
2602+470014941+469995130+469957257+470090918+470491901+471113038+471569397
2588+471722736+471908939+472266940+472492070+472563994+472733319+472876144
2575+472920247+472976217+472946584+472883132+472954824+473168649+473538879
2561+473940257+474168750+474229400+474240673+474382015+474784118+475326113
2548+475662688+475629001+475478134+475368436+475361053+475700298+476248292
2534+476572243+476584571+476537369+476773048+477286003+477704884+477774170
2521+477588166+477493861+477642751+477948276+478247769+478418183+478748825
2507+479353942+479766725+479832518+479864722+480047298+480413638+481029468
2494+481801571+482335984+482251074+481761093+481633827+482051258+482482896
2480+482835886+483217949+483316967+483114020+483091968+483349171+483372706
2467+483153739+483432730+484124636+484411768+484280283+484281140+484754837
2453+485344923+485319510+484967739+485016094+485367733+485748708+486006438
2440+486054827+486201508+486539797+486700718+486687368+486891172+487405743
2426+487951396+488204973+488158958+488162551+488364542+488533605+488633051
2413+489035089+489786590+490255937+490245356+490251223+490337946+490265034
2399+490243148+490806436+492465085+496006757+502829206+514096091+530033399
2386+550081930+572811329+596552564+620529873+644435456+668109580+691896303
2372+715495207+738151925+759812860+778623238+791878788+801560924+808360333
2359+808025768+798980920+782714156+762353046+742288463+729927106+732099766
2345+745253925+751649878+744628437+735022444+727852872+725172663+728716806
2332+733105701+731439866+726753258+725652590+727535843+727510923+723101922
2318+713608724+702026129+696642506+699980571+703300837+697861376+683463559
2305+666151569+652872287+644605211+637370440+629085169+619653149+608569928
2291+596668129+585894818+576518833+567948836+560398157+554057909+548831383
2278+544454322+540595621+537040303+533663376+530872019+529007093+527578650
2264+525951842+524046604+522228681+520823609+520011820+519631339+519091915
2251+518150256+517166306+516466423+516123717+516178203+516314930+515972191
2237+515301249+514868424+514724710+514665872+514810279+515230182+515519292
2224+515488143+515433921+515584656+515974103+516412267+516739283+517053016
2210+517370210+517684700+518166836+518795587+519247002+519453278+519636250
2197+519899848+520328915+520859570+521230855+521438054+521738965+522188468
2183+522488290+522571717+522613184+522681712+523057578+523745627+524260527
2170+524399363+524224368+523895868+523721862+523872004+524089322+524105803
2156+524107715+524132964+523987404+523833669+523983284+524445246+524855360
2143+524813070+524426128+524351799+524797907+525340067+525992946+526817161
2129+527454977+527950924+528540153+528982405+529082741+529112440+529275898
2116+529581391+530032938+530449380+530583371+530475717+530478321+530889884
2102+531566496+531982049+532024075+532085648+532172338+532218650+532440089
2089+532783520+533014156+533119173+533368036+533856204+534285468+534614858
2075+535113046+535671654+536144791+536675743+537118819+537434694+537913138
2062+538502697+539159400+540040706+540927154+541657526+542605020+543728828
2048+544516093+545015237+545577800+546300130+547107106+547813746+548212653
2035+548419061+548669672+548797334+548895527+549373840+549998272+550313851
2021+550291272+550058890+549794073+549711964+549791403+549841274+549806862
2008+549863194+550217470+550580777+550398530+549865336+549643304+549829935
1994+550064065+550150788+550280460+550500449+550520852+550408287+550361184
1981+550426713+550792855+551269025+551554179+552004770+552612920+552762600
1967+552679965+553080783+553726443+554109660+554346855+554722292+555175586
1954+555492813+555806611+556228855+556427089+556334927+556454052+557332094
1940+558636666+559433028+559803192+560401848+561193597+561733581+561902082
1927+561851189+561743997+561802010+561962205+562088186+562605558+563486040
1913+564165519+564526783+564694692+564896222+565266451+565661205+566096633
1900+566908027+567855421+568056160+567467063+566834455+566630882+567344510
1886+568726410+569800313+570320190+570653173+570754037+570464103+570337133
1873+570605312+570321311+569360600+569649611+571398181+572883516+573464900
1859+573640324+573806387+573899604+574003104+574312288+574574534+574163432
1846+573063423+572607360+573591870+574725303+575459697+576277551+576848915
1832+575990188+574238190+573957221+574844691+575607894+576542434+577515341
1819+578229101+578616866+578485677+577970217+577720826+578277160+579092245
1805+579570590+579737971+579500513+579320408+579804027+580007798+579123427
1792+578683318+580094752+581589580+582302154+582465447+582116577+581927243
1778+582268664+582053949+580560044+578989733+579969167+582634015+584688209
1765+585430251+585182047+585008666+585290821+585696716+586330246+586305986
1751+584840296+583465845+583975241+585307698+586033588+585819664+585625320
1738+586012822+585675950+584475143+585247707+587537579+589608123+590769243
1724+590871557+590438238+589142105+585966081+583690251+586230107+589836483
1711+591584065+591056342+588937675+587421949+587405731+586394522+584140710
1697+584184549+586846168+589605486+590763640+590904322+590181530+587100107
1684+583705743+585588402+588421885+589228070+588372705+587465327+586845904
1670+585918814+586777805+588883287+589278436+588374222+588666859+589391694
1657+588334074+584197668+579854723+581912740+583284752+582325227+584044922
1643+587704235+589596915+588994633+586394390+585311060+589508775+594215556
1630+597076462+598856610+600338319+601674732+604162377+607064882+608285136
1616+609881751+614301828+618159507+619800753+620535608+621903005+623843216
1603+625991023+628107383+630007183+631481377+632398974+633419544+634726028
1589+636006800+637728737+639970749+641965479+643050194+642849587+641394247
1576+641321269+644549307+647058113+647558081+648688350+650984880+652372450
1562+651806888+648549777+647380944+654125437+660282416+664493513+667448296
1549+669891442+671243347+670371039+666894929+663216564+669474802+679504489
1535+684855810+688821736+694283479+698415468+700164895+701317973+702841873
1522+706164380+712350234+718318537+723686734+729351326+734618329+737511539
1508+736415551+738417533+748231583+756203319+761166215+764475603+769435137
1495+776934132+782536820+784971528+787610666+793886308+801263475+807768994
1481+813851544+818808045+821386731+822159822+823033646+828055148+836145020
1468+842087613+845647447+850489240+856227601+858258919+855566251+857774905
1454+868195390+877885042+884419238+888026405+891593161+896295327+900323485
1441+903333710+904734069+904491468+907329500+912283495+914298201+914927117
1427+915762704+914288906+912662954+912154087+908864673+906257640+907761302
1414+908369254+907111752+905645205+903335754+898882121+894078432+891115936
1400+887645298+882095085+877515208+876259156+876063955+873632610+869046800
1387+865050944+863815066+864232695+865088916+866400410+867573001+867475236
1373+867024183+867724627+868261183+867528964+866457764+865647623+865779471
1360+867719089+869828857+870403517+870417229+870583951+869938027+869358818
1346+870126768+870740389+869707491+868537075+869686659+872485399+874714687
1333+875490548+875049120+874417304+874215181+874757274+875900925+876155985
1319+875284337+875849900+879416919+884660454+889760999+894237837+898371144
1306+901694706+903961900+906181630+908414742+910320211+913224891+917785650
1292+922515636+925676563+926637275+926280757+926976124+929850084+933551787
1279+937145242+939531957+939825451+940540727+942819128+943729078+942180126
1265+939842789+938752536+940785173+944683791+946941492+947530062+948537514
1252+949399537+949356752+950161224+951777682+952173951+950862788+949113624
1238+949779655+953131828+955286820+954898132+954457034+955029848+955338109
1225+955317541+955888575+956703660+957373119+957420650+955665158+952581824
1211+951125231+951900235+952066957+951379501+951271781+951185816+951225172
1198+952565013+954394010+954226827+952080010+950710437+950588082+949959298
1184+948801738+948004650+948299990+950104595+951579185+951090423+950513720
1171+952130046+954907163+956358679+956080018+955391837+955098936+954909207
1157+955117791+956263683+958013242+959993535+961309511+962166590+964553107
1144+968836392+972143407+971930999+970304389+970073654+972072472+976269133
1130+980390573+981876304+979926204+976371315+975616946+978692963+980993383
1117+981432899+983816779+985474242+982007757+977651362+978078880+983393349
1103+988751591+990329616+990676772+993050697+995161059+996360943+1000406966
1090+1003930344+1002109456+1000037066+1002842004+1008619787+1012723165
1078+1015404956+1019491721+1023504519+1027381052+1031330365+1031766518
1067+1029560303+1028697357+1028627610+1028273070+1030357919+1035252715
1055+1039970835+1043748943+1045611562+1044224915+1041259980+1040029177
1043+1042057463+1045236651+1047136781+1046527577+1045949488+1049331327
1032+1052476433+1051002502+1049526462+1050914032+1051387169+1049184185
1020+1046774396+1045853305+1048269554+1052592459+1052958469+1050313398
1009+1049395603+1049045151+1048021020+1047572275+1047803141+1049108767
997+1049652509+1046461850+1043252403+1043161098+1042887513+1042358472
986+1044265194+1046309434+1046484528+1047832807+1050618495+1049851666
974+1045775185+1044478986+1046214173+1046926087+1047140143+1048977381
962+1051854109+1053503068+1052897885+1052920233+1054861302+1056112409
951+1056932174+1058671120+1060154279+1060604804+1059984722+1059738364
939+1061652206+1064452924+1065554581+1065167475+1066010512+1067235513
928+1065936941+1062384886+1058025130+1056181167+1059917810+1065874445
916+1068021789+1065560844+1062560640+1063308416+1067528677+1071547277
905+1073741823+1072124112+1066974322+1063371835+1062630519+1063918280
893+1067882228+1072322214+1072789945+1070251539+1068548655+1064989216
881+1060862699+1062128903+1064081969+1061121056+1057109642+1055783843
870+1056929274+1056222897+1049891879+1043318393+1042933924+1045459673
858+1046260188+1044804387+1037328005+1025616923+1020736828+1023874353
847+1024076410+1017635694+1012027732+1010194911+1009552151+1009969582
835+1008265643+1000824068+992561079+988528768+987896490+987567199+985654940
822+982069923+980405868+984533110+987144626+979611549+968902711+963147013
808+960674399+958638729+958678416+962969149+968257974+966244455+956152073
795+948121533+946493868+947064309+947259246+946177762+943490895+940698417
781+938334116+935683573+932769400+930380707+928700830+927204419+925517489
768+923282794+920776164+918290628+914709699+910950709+909075960+906249004
754+900862942+896442140+894142708+893760810+896904070+902985433+905586665
741+900438259+894552558+894154509+896561133+898603526+900882521+903189270
727+902196322+896907761+893137234+897180687+904457583+904996974+900804072
714+899559557+902021228+903212805+899672683+893865102+890317464+889311792
700+886751236+883191534+883516737+886347319+888940970+893968075+899228091
687+898752910+895556779+892572924+888667582+885885719+885360238+885921186
673+886080524+883985853+878479084+873633335+875138645+877781475+877414871
660+875423767+873494763+872422639+872798077+869159398+860801479+857734559
646+859390901+856552673+847740273+839053920+839342601+847991839+852133453
633+845716206+836813886+829922645+826643846+830066294+834007894+838568059
619+851177422+856845573+849066335+850562218+864798257+872552839+863229990
606+842553301+828679119+830571338+838757130
##END=
