##TITLE=Sample description
##JCAMP-DX=4.24
##DATA TYPE=INFRARED SPECTRUM
##DATE=25/8/2023
##SAMPLING PROCEDURE=Instrument type and / or accessory
##ORIGIN=Default
##XUNITS=1/CM
##YUNITS=ABSORBANCE
##RESOLUTION=4
##FIRSTX=4397.6552
##LASTX=599.8556
##DELTAX=-1.9287962
##MAXY=1.8936212
##MINY=0.58603227
##XFACTOR=1
##YFACTOR=1.7635722e-009
##NPOINTS=1970
##FIRSTY=0.6352511
##XYDATA=(X++(Y..Y))
4398+360207035+360579451+361480328+362014196+361536500+361043392+361343144
4384+361496720+360970355+360368790+360368013+361609706+363101569+362934372
4371+361620622+361038153+361680647+362847580+363492000+362923320+362120693
4357+362396178+363207964+363371038+362677476+361961844+362052354+362787825
4344+363426804+363860226+364707939+365530980+365364188+364578223+363730003
4330+363118874+363756974+365479033+366085059+365189623+364442729+363965945
4317+363663388+364284995+365257692+365746778+366020539+365986674+365486468
4303+365097592+364792906+364198777+364048175+364589444+364950471+365346073
4290+365943954+366027874+366074041+366562857+367006519+367207243+367019126
4276+366582493+366431350+366220250+365694290+365805755+366664216+367292211
4263+367623496+368058776+368225703+367840308+367566952+367733710+367883400
4249+367706503+367241920+367044034+367510273+368221782+368810842+369221991
4236+369397806+369393075+369212189+369179304+369563280+369449652+368758456
4222+368847310+369683971+370338598+370726596+371133925+371443580+371245052
4209+370729435+370513197+370631793+370595326+370105327+369272552+368705562
4195+368977904+369624183+370051825+370498090+371131120+371597427+371620274
4182+371435603+371404374+371553861+371633489+371597122+371815489+372186858
4168+372240630+372382378+373044238+373607273+373586927+373159217+372810527
4155+373141609+373880764+374353087+374632593+374734122+374476516+373995845
4141+373482492+373453595+374168044+374826153+374821083+374478814+374179029
4128+373870895+373617987+374053166+375250787+375908118+375342277+374789043
4114+375029581+375245041+374975809+374748959+375169638+376279757+377330763
4101+377450035+376830693+376612597+376870236+376672013+376195263+376246027
4087+376721594+376897072+376788175+377193274+378014355+378472483+378470793
4074+378007055+377264790+377192531+377851417+378101418+377767193+377823027
4060+378695683+379744898+380310063+380474083+380402634+380210900+380329124
4047+380650980+380675584+380554454+380308136+379898576+380202755+381164569
4033+381367524+380842984+380691131+380865527+380815169+380592915+380477429
4020+380350890+380116774+380191838+380680620+381189073+381663761+382161736
4006+382477677+382622398+382730078+382756575+382685904+382514381+382356106
3993+382412244+382792536+383624364+384323841+383901235+382758941+382261405
3979+382749849+383346007+383464467+383437091+383645184+384168541+384789505
3966+385042413+384930949+384935004+385071986+385210793+385487934+385446465
3952+384677804+383639945+383226870+383742318+384252731+384531933+385320771
3939+386222628+386398647+385536535+384116256+383723831+384786599+385755578
3925+386098422+386508692+386339095+384661649+382903088+383253705+385215931
3912+387111642+388141998+387818149+385632149+382611651+381394461+382531043
3898+384760000+386354236+386351093+385779439+386733751+388285672+388015156
3885+386453568+385595681+385250607+386092034+387195630+386775288+385485095
3871+384452509+384977826+386619007+386805537+386445490+387621041+388732613
3858+388118306+385312727+381529753+383062207+387711855+390644987+391157225
3844+389835668+387414132+384314479+382317645+383687667+386438426+388677827
3831+390429392+391079828+390424761+389627677+387926099+385412532+386101159
3817+388187423+390095268+392949989+395088604+394400754+391435582+389900728
3804+389475317+388526819+389514488+391593654+393326495+395128790+396549340
3790+397254495+397340104+396985364+396899416+396963361+396329824+396217548
3777+397480229+398469352+398156656+396822628+395948958+396211262+397074759
3763+397887897+397447141+396098411+395768309+395637310+393308345+388769993
3750+387421669+389740426+391110685+391724350+393679275+394960646+393278401
3736+389274119+388503735+392821862+397468941+399716622+399458576+398299485
3723+397988851+398870564+400468755+401299164+400125945+396911381+394910321
3709+397557863+400935636+402092801+401500869+401370950+403053602+404970471
3696+405557232+403972459+400286788+397183317+398600082+402375384+404856370
3682+404733143+402077829+397652192+393056924+393090519+395558088+395574919
3669+395724001+398343895+400916270+401456425+399900346+397559350+395142985
3655+393668696+392438055+388196413+381888346+382082582+386606232+389515367
3642+389659920+388263602+386542997+384338306+381829065+379506286+376042970
3628+373118931+374249159+375539757+374332977+370805750+367494896+366507564
3615+366126292+365341240+364175355+362601600+362156349+362966074+362734797
3601+360776323+358610162+357163283+356219382+355602270+354571069+352041009
3588+349146508+349004456+350192580+350257032+349223634+347858681+346775736
3574+346494472+346396965+344819459+341246977+338525790+338947214+339791344
3561+339646555+339856135+340633042+340472435+339339571+338349164+337325838
3547+335995730+335467371+336277805+337124674+336902961+336054234+335733528
3534+335841917+335327820+334193198+333388442+333235169+333026334+332607918
3520+332833011+333570273+333852518+333375599+332660474+332608729+333274442
3507+333652672+333138238+332346257+332298433+332644589+332708737+332835782
3493+333198060+333138407+332559554+332537011+333522585+334340117+334309158
3480+334333966+334880643+335236803+334908864+334477741+334545810+334655787
3466+334393551+334027725+333699110+333601502+334295774+335580052+336204938
3453+335789057+335348809+335503230+335814710+336000766+336480862+337273147
3439+337954711+338353794+338466678+338616165+339196911+339892636+340080315
3426+340106474+340916638+342333606+343466402+344206166+345028261+346276713
3412+347380512+347685198+348439190+350740339+353356482+355163813+356270687
3399+357020556+358174882+360141467+362081217+363346264+364787262+366725289
3385+368021058+368837745+370391593+372540280+374560435+376535774+379072594
3372+382075822+384640998+386386310+387959829+390402083+393915926+397265513
3358+399544862+401583572+404470569+408077119+411590794+414800931+417870842
3345+420554648+423010488+425715148+428561960+431629505+435150513+438308095
3331+440381008+441935532+443222818+443582087+443378051+444086687+445519438
3318+446294351+446760049+447607965+448238731+448611249+449480390+450259765
3304+449816170+448996712+448979813+449390725+449630790+449503170+449034903
3291+448205069+446856305+445391818+444305087+443331444+442134296+440564225
3277+438597944+437096380+436535880+435884531+434750010+433649457+432403607
3264+430947163+429572984+428365291+428036237+428377965+427322430+425158162
3250+424593403+425409752+425487486+425055552+424798149+424043041+423059326
3237+422707357+422726182+422617252+422493756+422532893+422532353+422444952
3223+422493722+422439747+422307361+422558681+422582373+421885499+421548333
3210+421958468+421986115+421467861+421406687+421827164+422288333+423242307
3196+424513674+424834312+424149234+423719496+424034288+424527497+424974776
3183+425609395+426079419+425964135+425893092+426834696+428331696+429109347
3169+429479499+429909034+429614419+429172278+429845427+431150423+432108316
3156+432660401+433226648+433725907+433772345+433790934+434214926+434597853
3142+434894394+435526478+436110266+436166606+436257421+437100166+438360414
3129+439112581+439420275+440185556+441245316+441871485+441956723+441566461
3115+441320448+441663731+441985654+442075961+442391192+443026420+443605779
3102+443820564+443917495+444375522+445179399+445866777+446159836+446144086
3088+446149663+446470876+446944720+447293208+447639769+448015092+448026719
3075+447600868+447376147+448004446+449106521+449632311+449368655+448871187
3061+448447128+448148525+448193409+448693581+449164517+449354629+449535379
3047+449751752+450269769+451140330+451675144+452065440+452700701+452769479
3034+452325749+452392466+452785634+453143890+453802911+454315081+454263911
3020+454348371+454846448+455455854+456191393+457053233+457721042+458000380
3007+458477265+459512150+460401231+461116154+462573104+464793375+467265438
2993+470073383+472846888+474449574+474979691+475787895+477245791+478636295
2980+479350576+479268244+478854290+478667288+478862402+479368387+479941393
2966+480126097+479803160+479393870+479245837+479494216+479934701+480256691
2953+480599231+480959108+481328956+482105728+483259818+484199968+484459365
2939+484198684+484114493+484447874+484618079+484365813+484277229+484620005
2926+484521215+483382740+482079197+481450459+481387697+481281910+480761358
2912+480495337+480875459+481347883+481883441+482552230+482821732+482810072
2899+483041147+483201990+482903286+482397200+482178123+482546180+483449896
2885+484616626+485684294+486600380+487320947+487427545+487030929+486826960
2872+487095651+487479762+487631378+487852652+488615465+489463314+489387235
2858+488460841+487999672+488547803+488955605+488443706+487802665+487987471
2845+488832886+489395110+489492008+489726902+490280711+490931282+491512907
2831+491784944+491672939+491829625+492401684+492822769+493299046+493712865
2818+493751023+494192150+495101037+495658395+495951589+496453147+497124605
2804+497876063+498741148+499655274+500453474+500821497+500820618+501151159
2791+502061635+503050859+503765815+504158680+504297453+504465495+504910610
2777+505444411+505817639+506312403+506979941+507260529+507237175+507436919
2764+507756949+508056870+508409752+508764796+509340033+510259431+511034851
2750+511331865+511542492+512189785+513097422+513716156+514045785+514262833
2737+514298186+514499012+515009289+515161953+515157154+515880019+516954616
2723+517628981+518132059+518945062+520032165+520781459+520707104+520575598
2710+521333916+522343081+522787149+522873637+523015351+523714523+524951687
2696+525848441+525922390+525469839+525152716+525540882+526360915+526945885
2683+527302113+527726274+528127520+528346056+528489831+528796274+529328554
2669+529764409+529866140+529839845+529814734+530050574+530992211+532086546
2656+532410632+532300688+532463525+532843614+533322493+533934941+534342879
2642+534321384+534360961+534791374+535299793+535905684+536682084+537273915
2629+537708046+538069039+538157150+538106419+538321542+538981002+539657327
2615+539881203+540165982+541104273+542059666+542420321+542555951+542746367
2602+543073968+543610236+544163470+544777878+545500473+545974789+546354067
2588+547065778+547574974+547367592+547155207+547647808+548378007+548582551
2575+548475141+548674041+549230959+549999045+550831583+551427132+551840444
2561+552383336+552850927+553108668+553322945+553205600+553017279+553505047
2548+554240856+554527055+554638723+555038177+555424316+555183440+554755054
2534+555078937+556121055+557165200+557737699+557963197+558167200+558477463
2521+558833454+558886820+558520048+558448262+559406325+560993159+562060152
2507+562081073+561627812+561517361+561859664+562355983+562930037+563507335
2494+563957418+564441435+565068720+565592719+565974126+566255931+566458142
2480+566941720+567645252+568129100+568241984+568038116+568069345+568752667
2467+569578750+569977359+570093286+570350553+570692856+570826087+571000415
2453+571535027+571972842+571913561+571751264+571918563+572646497+573672730
2440+574341518+574914254+575677135+575982869+575791101+575772242+576279545
2426+576982131+577295165+577438873+577750893+578059060+578419276+578846276
2413+579178575+579475589+579950716+580512772+580733403+580768215+580993307
2399+581325403+581842846+582527451+583041649+583243489+583167985+583194347
2386+583779317+584577551+584861992+584524556+583777695+582531034+580888129
2372+579731369+579464638+578845059+577302533+576411085+576991797+577648418
2359+577199383+576844169+577909134+579937535+582563006+585132374+586372546
2345+586042951+585024018+583761134+582757005+582844338+583836503+584847527
2332+585442366+586018954+587112309+588478411+589382161+590034524+591331746
2318+592902392+594067871+595305475+596872876+598217956+598910741+599115892
2305+599430278+600167676+600933464+601232844+601274685+601470171+601674039
2291+601963212+602691416+603510334+604176757+605022104+605869074+606411256
2278+606896591+607447764+607851376+608114727+608591612+609202674+609368553
2264+609216464+609342123+609613924+609735731+610199435+611118597+611546002
2251+611442784+611597916+611899188+612224052+612842414+613457261+613751842
2237+614191144+615001274+615534264+615668238+615803902+615922869+616029602
2224+616266997+616805800+617693057+618603093+619262688+619746266+620109523
2210+620138792+619893488+619912077+620424855+621021317+621280950+621194699
2197+621167661+621757363+622753448+623481923+623991930+624459622+624625231
2183+624361947+624038233+624436167+625800984+627170128+627495059+627027232
2170+626802545+627113078+627616731+628161279+628541030+628854267+629405574
2156+629704413+629488514+629602818+630630673+631866113+632445000+632675229
2143+632967714+633125617+633148938+633189630+633380316+633811102+634302250
2129+634646310+634844973+634877148+634839971+635276501+636365868+637471999
2116+637981194+637790508+637376013+637315988+637702702+638349927+638924420
2102+639304711+639687234+639878528+639943690+640605314+641584230+641957356
2089+642082543+642409231+642443502+642431199+642937016+643418362+643438235
2075+643512117+643963045+644369361+644560115+644792643+645126970+645846320
2062+646868294+647493618+647758727+647764608+647361199+647305906+648258595
2048+649636864+650322822+649892037+649341676+649914681+651134710+651702511
2035+651608891+651628832+652144517+652946603+653496424+653648446+653678999
2021+653644863+653464789+653530425+654236931+655172924+655934318+656494413
2008+656724913+656754385+656871257+657132378+657867410+659146382+659936031
1994+659503826+658738512+658925886+659857417+660730885+661462402+662180602
1981+662939495+663599429+663855007+663826820+664047789+664559418+664803234
1967+664930855+665613906+666446478+666827783+667217673+667859153+668329211
1954+668814005+669367949+669657798+669946565+670010375+669323944+668985765
1940+670348352+672320649+673329780+673481194+673407785+673326130+673701149
1927+674550890+674987894+674957814+675297887+675829524+676366164+677380026
1913+678540436+679049564+678728892+678658795+679635954+680724983+681071138
1900+681091687+681074924+680826849+680808057+681116292+681118861+681450686
1886+682863227+684676202+685913264+686342427+686660396+686934630+686688245
1873+685916238+684423192+682810435+683299555+685614898+687583207+688806886
1859+689864551+690563757+690636625+690564230+690763907+690972236+690928096
1846+690495824+690304259+691711797+693330976+693722826+693954813+694903447
1832+695157200+693895397+693375251+694478339+695687485+696885545+698080158
1819+698739145+698935983+699204066+699422196+699321073+699581518+700559691
1805+701529414+701464860+700335747+700181495+701677177+702352320+700854407
1792+699813979+701891252+704290684+705167193+705412564+705403642+705142588
1778+705575807+706006457+704773112+702953918+704142515+706952792+708896429
1765+709768747+709081573+708156800+708641392+709421104+710187771+710137682
1751+708099953+706353627+707505519+709554132+710836889+711536568+712109844
1738+712588352+711588752+708905757+709689458+713559697+716551265+717611093
1724+717354163+716633866+714930734+710905160+707840657+710927940+715763779
1711+718736690+719202625+717554448+716158806+715817315+712859139+707629759
1697+706279610+709411573+714300475+717201532+717157798+715306294+711609031
1684+708893657+712444036+716117100+717057013+716307989+715711325+715325356
1670+713760658+713739771+716409855+717749257+716996516+717539779+718763593
1657+717121094+710589490+703675093+706209784+707787933+706985373+711190818
1643+716463526+717916015+716621294+713254910+710907931+715714232+722460316
1630+726841036+729034911+730613803+732581639+735969315+739603647+741488679
1616+744257250+750382132+755135370+756682493+757738400+760402671+763292507
1603+765375796+767325990+769148766+770253477+771364136+773260457+775311029
1589+776741212+777586492+778808751+780840329+782434701+782455521+780638287
1576+779032086+780948076+782777207+782510611+783982770+787347734+788992262
1562+787301702+779955101+773342315+780715413+788295421+792785781+795652635
1549+798092422+799158603+796342175+790622324+787178881+793741241+803701282
1535+808823523+810774730+813979223+817505943+819710701+821199556+820860025
1522+820445665+824200182+829074686+834723900+841547110+845912757+845535507
1508+839578058+837363634+847351997+856041177+860856130+862318420+861979767
1495+864260570+866626069+864428950+861919337+866724894+873128742+876058393
1481+876891979+877545355+876974107+873582307+868607695+868996773+876197910
1468+881444120+880132432+877524942+879059153+879858468+875984173+874590695
1454+881711054+889805328+894717144+896298267+898530874+902001423+903427009
1441+903477029+903422074+902666358+904910592+910496604+915021302+917803595
1427+919374376+918827935+917207539+915450465+911337558+908324901+911611522
1414+915958715+915319398+910664444+907663615+906140895+904258635+903388142
1400+900217784+893364697+888873729+887980051+888707039+889851090+888161206
1387+883767102+882299337+884220194+886030262+886226897+885236693+883919800
1373+884693767+887709331+888662426+887270097+886211621+884996459+883574726
1360+883147861+883692139+885065880+886517490+887118277+886844651+886379190
1346+886334915+886618815+885693367+882703895+881595061+885495380+890606063
1333+892850228+892108099+891307500+892310074+893658263+894484616+895064855
1319+895188757+896474151+900500333+906071272+910406770+911415766+911180331
1306+913858527+919026598+923243602+926263356+929459332+932776913+935621663
1292+937558811+938334941+938248148+939053479+941422156+943111905+943234928
1279+943525047+944542425+944793677+943718370+943048906+943908854+945094003
1265+945413459+945365804+946286047+948628632+951188468+952984815+953930676
1252+953831852+953422021+954297990+956465502+957873581+957715003+957777528
1238+959070222+961440656+964747150+966668210+965167255+963018129+963314669
1225+964904512+965765609+966199504+967040661+968233448+969044052+968677888
1211+968198366+969197088+971139508+972633365+973260920+973416931+973103491
1198+973249226+975670087+979262036+980744876+978927169+976213824+976028072
1184+979016259+982269083+982785850+982034392+983362303+986049151+986898351
1171+986012311+986304999+987841374+988157585+988050176+989908170+992578862
1157+994653499+996120724+996031430+995582259+996986485+999582349+1002241753
1144+1003883645+1003173555+1002656248+1005318762+1008857649+1011632776
1132+1013227486+1010734975+1006244615+1005328901+1007088408+1006280576
1121+1002491451+1000916141+1003996123+1008146681+1009943366+1009462425
1109+1007186151+1004339373+1003144557+1005246975+1010290603+1014402158
1097+1015121778+1014945760+1017693106+1023514688+1028046416+1029538921
1086+1029803895+1028873648+1026984831+1026282853+1027715807+1030362571
1074+1033490816+1036700987+1038776638+1038057153+1036984888+1040072171
1063+1045242066+1047943650+1048736543+1049226001+1048476369+1043548938
1051+1036506718+1036423508+1043515072+1048119398+1049284268+1051563111
1040+1053846820+1054554002+1054508038+1052830929+1048838950+1045410649
1028+1044726246+1048430336+1056473778+1061313538+1058096067+1052478825
1016+1051051549+1054463830+1057436606+1057233618+1056976552+1056696505
1005+1054970119+1054764765+1057652168+1059920127+1058157578+1055209137
993+1054391638+1054047172+1054793831+1058037529+1059375850+1056750040
982+1054855140+1056252201+1058537870+1059684490+1058898018+1056540224
970+1055072053+1054996955+1054813298+1054456530+1055110515+1056815811
959+1057755318+1058310750+1061127245+1066429019+1070457162+1068666155
947+1062895067+1059024624+1058190565+1057793983+1057329130+1057545502
935+1057181975+1056274642+1056262002+1057120260+1060014152+1064123612
924+1065965045+1066544202+1067732799+1067919903+1067369609+1068348052
912+1069976964+1070953109+1072404516+1073741823+1073711878+1072521389
901+1070675630+1070138788+1071886601+1073553840+1072748509+1069356709
889+1066145727+1066766793+1069083354+1068522583+1067649589+1068514809
878+1066873256+1061198220+1054698994+1049888909+1046198135+1043025074
866+1041329850+1040765091+1042397045+1046581130+1047161369+1041490659
854+1035817448+1031960660+1025590744+1019415030+1019706433+1022052262
843+1017931176+1007965120+999163393+997539415+1000180163+998383478+992821935
829+989500029+989643872+992329841+994648226+993933811+990581960+986393549
816+983112673+980157269+976341038+970426444+964909852+964576742+965032132
802+961866844+958250898+954464274+951890851+952880042+952416067+946532094
789+939682927+937071719+938579433+938189070+932361607+927134593+926909568
775+929118382+930045046+926879961+921531682+918555931+916554906+910632471
762+902021363+896474827+895909391+897057701+896333011+895587570+896578721
748+895028894+891183394+889697851+889062049+887686214+887442194+887071299
735+885650850+885996600+888674525+890446064+889550291+887547373+886160451
721+884946236+883060325+881640282+881279661+881637646+883614269+886742988
708+887322010+882524362+875746846+872112108+871086281+868895786+865484316
694+864440441+865123965+864829520+864525949+865748546+868116750+866759097
681+859611158+853563131+853177703+855860698+856854079+853596523+845736806
667+841349529+849987878+862192557+866772075+863180396+860744597+858253438
654+849865868+844490821+847074721+850442186+850551285+844301283+834768040
640+834396198+844556388+855084770+857595803+849964017+840148292+832052667
627+823208085+818341828+818925513+816903669+809173261+802857827+803785708
613+811141232+822180230+831268561+835451902+836400670+833743767+830553740
600+826691949
##END=
