##TITLE=Sample description
##JCAMP-DX=4.24
##DATA TYPE=INFRARED SPECTRUM
##DATE=25/8/2023
##SAMPLING PROCEDURE=Instrument type and / or accessory
##ORIGIN=Default
##XUNITS=1/CM
##YUNITS=ABSORBANCE
##RESOLUTION=4
##FIRSTX=4397.6552
##LASTX=599.8556
##DELTAX=-1.9287962
##MAXY=1.9704698
##MINY=1.15924
##XFACTOR=1
##YFACTOR=1.835143e-009
##NPOINTS=1970
##FIRSTY=1.2245547
##XYDATA=(X++(Y..Y))
4398+667280224+666520852+667458731+670153756+672982596+673101666+671756427
4384+671624625+671510167+670382996+668938890+666407303+663757295+665791101
4371+670059955+669001706+667007850+670870905+676451413+678099361+676324613
4357+672788953+668801502+668229017+670814260+671802808+671664835+671522185
4344+670280881+669785308+670498299+670948076+672764333+677541752+681596631
4330+680850510+677602944+675622924+674313933+672172231+670971136+671484768
4317+670927679+668517175+667008825+669020284+673355656+675704968+675208031
4303+674161019+672786809+671706799+672698465+673787245+672221340+670151157
4290+670479851+672324235+673651350+674558569+675933494+677290750+677159792
4276+675022767+671705304+668969031+669633303+673253345+675660211+675492162
4263+674331472+674151535+675651506+676992523+677327322+678272153+680357276
4249+681640998+680194488+676636612+674915714+677433140+680372411+680642186
4236+680248859+680941843+681304380+678878481+675775319+676203854+680211442
4222+684290291+683617379+678995797+677222543+679811879+682301242+681740255
4209+679253035+677925466+677834653+676865528+676402759+677953658+680071845
4195+682947131+685297092+682886914+678114237+676543006+677248592+677628148
4182+678578500+679950826+679509104+678388040+678892187+680387871+682055307
4168+682727894+682228488+682612332+682620127+679931144+676733336+675862624
4155+676509876+676794267+677401505+679210357+681686014+684824320+687985361
4141+689098500+686880276+683418734+682030428+682087722+681695304+681501336
4128+681113140+679757508+679342874+680405021+680962889+681523941+684048448
4114+687558839+689192042+687934108+686277585+686084072+686387821+687017990
4101+687576053+686513647+684138351+682396862+682854369+684142314+683253673
4087+681783258+683298625+685830472+686190670+685660344+685749078+685781558
4074+685012182+684006160+683423866+683053144+683859937+685227131+683566516
4060+680758983+682138650+686302725+689106490+689798435+689087847+688220058
4047+688240131+689507288+690690844+690375207+690329606+691126070+691001673
4033+689732567+688386094+688256500+687954180+685114882+682825917+684084760
4020+686273493+687533960+688344065+688656648+688898621+689333847+690346885
4006+691829837+692393617+692386991+692082268+690282770+688126582+687635556
3993+688316328+688948575+689760044+691284765+692707175+693363522+693901254
3979+694166612+693597115+692660729+691525438+690341753+690255033+691385257
3966+692032444+691481851+691305032+693598869+696277588+694510765+690478687
3952+689589721+690880524+691278854+690354940+688100339+686146953+687176425
3939+690491809+694398321+697013315+695881662+692793116+691814831+692214525
3925+691506925+690590287+691833085+693851560+694283538+694741565+696163000
3912+696513845+695953117+695118977+692647802+689842218+690236000+692596939
3898+694231051+695430456+695766425+694012983+693293691+693477850+690142134
3885+687968991+691455802+694069368+694234494+694877784+694540062+693470834
3871+692879771+693119341+693622969+690604188+687604765+690806666+695497884
3858+697001753+692606553+683088092+685226872+695554268+701994251+703073872
3844+701040262+698145423+693688772+689343201+690922748+695227329+698602281
3831+702342302+703979402+701738507+700369104+700398660+696731783+692966427
3817+691368367+690927555+693819730+697277764+698294634+697584241+699524310
3804+702246942+699477345+696305910+696620378+697246908+699382310+702681324
3790+705528872+707500122+707737028+706562177+705553752+703795048+700842396
3777+699742118+701024217+702543676+702944214+703386780+704782102+706097460
3763+707455820+708016742+706078556+704518043+705014201+701973075+692289098
3750+688982873+695006208+697283545+694993216+697357274+700663174+699275192
3736+695520944+696574646+702023483+706490787+707502136+706311955+706304484
3723+707090100+707742095+709524508+710430753+709202960+706510405+702989425
3709+702761224+706277007+709268374+708384605+706270056+708510366+711632432
3696+711118540+709331515+708534141+706300522+703898268+705558039+709116630
3682+711145238+709901986+704687327+695303721+690822581+694011944+696064652
3669+697806661+702282735+705841131+706651496+706763680+707124658+705780004
3655+703762049+702964221+700170394+692090128+686273363+687032735+689449864
3642+690988486+690457251+687570467+684580268+684498875+686389900+683444848
3628+676060619+676066271+679696706+681739281+680737546+676752629+674867710
3615+675653001+674222925+669121815+664358297+664383826+667407933+668668985
3601+667384418+665603564+663732416+661088710+658892896+657690633+655484426
3588+651886665+651019785+652860922+653639067+652639606+651547318+650823803
3574+649784457+649389181+650030912+648850085+645639221+645130980+646088153
3561+645083625+642905676+642799078+644131000+643317127+640906558+640013955
3547+641105074+643224755+644426758+642788294+639713194+638676187+640139521
3534+641556864+640779433+637726030+635132017+634404020+633859727+633060016
3520+633429243+635243357+636591583+636861878+636888512+635110191+632067765
3507+631689183+633945473+636672782+639170980+640393446+639446082+637139709
3493+635209708+634162957+633371105+633255218+634223628+635061211+634639757
3480+633770084+634031869+634492299+634043562+634938309+637763771+640238129
3466+641886337+642467331+641042518+638657284+637534205+639418085+643679988
3453+645662866+642352614+637928897+637051494+638055307+638503720+639288557
3439+640097493+640165180+641001269+643582225+646702861+647830617+646270623
3426+644420392+643854728+644294437+645036725+645319557+645388348+646908457
3412+649383984+649767568+648561602+647525374+647212466+649528259+652928869
3399+654218957+654483016+655050499+655903022+657481594+659410945+661147303
3385+663183057+665117475+666548394+668024525+669528979+671891477+675034330
3372+677568970+679394581+679765758+679470973+681398960+685886467+691788848
3358+696835587+698156011+698204666+701246702+705654568+708164914+709154696
3345+710817130+714322129+718300356+721233781+724095295+728345506+734322135
3331+740449795+743505212+742971378+740992463+740079982+743081354+748536426
3318+750756599+748560201+746742255+746612142+745413646+745024996+747645122
3304+751137780+753346910+753171780+751266269+749122163+747763283+747931072
3291+748460684+747110249+744425293+742366673+740762378+739510161+738088206
3277+735781637+734485767+735322441+736552702+735356544+732483467+732212588
3264+734043720+733597581+730941208+729833135+731196692+732549595+731195522
3250+727079907+723258362+721782101+722771558+725578247+727761328+727657134
3237+727399766+728455092+728555194+727307199+726444087+725787675+724734038
3223+722888419+720255821+718632297+719829624+723363336+727608155+730622973
3210+730549569+728285419+726195618+724062426+721420408+720874946+722952794
3196+724145963+723108566+721594174+722044405+724799062+726700611+725363427
3183+721839589+719163858+719065315+721025002+724571965+728517842+730270115
3169+729007699+726802337+725786636+725733499+726056541+728022269+731048195
3156+731574104+728656530+725556031+725265859+727137526+728781706+729446758
3142+730265698+732423575+734714358+734737549+733043545+733009311+735014664
3129+734673304+731531231+731001684+733239721+732963775+730572435+730221395
3115+732208235+733915556+733947516+734641020+737257118+738811590+738210004
3102+737094656+735592411+733751144+733601803+735742986+738270936+740340923
3088+742114502+743499041+743269410+740141953+737195082+737822523+739627282
3075+740403024+741533118+742708229+743567118+744627186+743652994+740986552
3061+741177662+744273744+745663284+744842720+745157837+746370429+746167562
3047+745075859+744777956+744979005+744985825+745047147+745037923+745557791
3034+746937587+747343387+746500218+746419279+747966800+750362882+751792308
3020+751424834+751066065+752267484+754750027+757384899+758519930+758082105
3007+756984166+755013696+752834382+751610877+751109263+751492846+752789560
2993+753188409+752893040+753878795+755518753+756336199+756894457+760054329
2980+766209921+771158377+772979896+772499264+770341451+768405994+768208453
2966+768748524+769253646+770643966+770438695+766891667+765365322+768063010
2953+770405241+770105130+768972308+769160105+771007153+771895014+770470785
2939+768958666+768464003+769266703+771279071+772646006+773241097+773861521
2926+773446563+771767759+770902244+771820766+772622556+771705788+769068447
2912+766947662+768928136+772775470+772341023+768460690+766289691+766740182
2899+767685792+768099972+768220016+768497197+769757404+771216061+771162924
2885+770920887+771705853+772208117+772356289+772923707+773789417+774991356
2872+776192970+776576943+776188877+775827315+775689666+775683040+776516856
2858+777530283+777698592+777869240+777217440+775291986+774040419+773502557
2845+773927910+776263775+778007473+777166252+775975356+776396681+778691882
2831+782147708+784317927+783784873+781201188+778286992+777259404+778136806
2818+779273786+780381339+782176809+783783768+783739986+783416165+784886060
2804+787119939+787804348+786974950+786235845+786743891+788471414+789767024
2791+790024457+790249865+790281695+789846209+789446320+789080211+788833626
2777+789175506+789554542+789090020+788831352+789623659+790636696+792437818
2764+795101467+796320555+795996019+795912417+795843560+795089125+794490462
2750+794507481+794675205+795293161+796703619+798283295+799433072+800347501
2737+800909722+800280723+798708647+798110179+799683229+801289473+801053607
2723+800745571+801582374+802376564+801633757+799766377+798839085+799866674
2710+802381631+804799150+805809524+806093071+806611770+806439498+805012021
2696+804041662+803973195+803966179+804881518+806784106+807708540+807254605
2683+806348815+805157984+804470327+804821886+806073323+808101802+809450548
2669+809658613+809939236+810671390+811785764+812743067+812735921+811506895
2656+810030244+810448386+812548514+813396101+812369162+811199768+810591361
2642+810487556+810858343+811612583+812442891+812534028+811399062+810434809
2629+811185022+812570795+813148542+812980233+812621723+813107812+814405631
2615+814679823+813856596+813805538+814313778+814702819+815971665+818231788
2602+820314832+820593832+818581203+816775989+817543871+819379941+819780219
2588+819106788+818703132+819500700+821623174+823306785+822995306+821591539
2575+820691336+820382000+820658206+821509041+821942059+821775763+821825652
2561+822754048+824092660+824538150+824039329+823567271+823620797+824147941
2548+824603109+824225632+823323155+822710135+822894035+824174314+825236461
2534+825344293+826074304+827385504+827859640+827822094+827868605+827578367
2521+827012248+827035569+828022947+828672149+827690682+826487249+826961775
2507+828726325+829878310+829747937+830043111+831329432+832387486+832680062
2494+831884897+830422473+829811727+830837821+832563590+832917033+831500859
2480+830552261+831120134+831830722+832696757+834044074+833837114+832580675
2467+833081704+834864573+836174408+836632825+836347849+836005450+836432621
2453+837013356+836416966+835535211+836113022+837415258+837803843+837140416
2440+836657899+837206869+837995213+838463373+838970509+839514672+839812314
2426+839562806+839255680+839703053+840675556+841252523+840737917+839723126
2413+839435876+840159651+840842891+840534010+840049285+840159911+840623719
2399+841176651+841756931+842235225+841755372+840544209+839918003+840033500
2386+841376920+844184064+845684555+842992713+837222199+831637208+828103757
2372+826237286+824746669+822818162+819862587+816458924+813407988+810844961
2359+810530234+812170127+814207245+819615677+828729313+835481944+836033642
2345+832121868+827804425+825059902+824015424+823669387+823246178+823309513
2332+824012046+825508834+826793141+826729351+826634966+827626827+830120673
2318+834234664+838739320+841985782+842841683+842208267+842872539+845605954
2305+848173204+848890352+848090446+847308273+848332743+850456842+851374844
2291+851470854+852476421+853907990+854743819+855329166+855091091+853330049
2278+852230291+853459772+854841128+854330225+853582220+854661126+856664336
2264+857619885+856957496+855796092+855709437+856235216+856247818+856795294
2251+858028088+857949877+856575667+855982980+856998226+858499626+858710483
2237+857383433+856310309+856256393+856209492+856602495+858372046+859547612
2224+858654684+857883034+858532495+859907940+861435909+861604932+860611837
2210+860754487+861611233+861787402+861826118+862409776+862997591+862314806
2197+860925200+860654450+861306835+862137207+863202537+863946319+864191540
2183+864044212+862928409+862005210+862998695+864435981+864352378+863710128
2170+864142431+865562307+866994136+867420268+866329020+864971504+864361213
2156+863852128+863838162+864671977+864668729+863829717+864353548+865974863
2143+866965294+867585654+868041342+867756237+867565452+868596483+870312768
2129+871462805+871469235+870272688+868889903+869088419+870597289+871270655
2116+870543178+869505196+868309753+867371744+868320602+870662768+871900954
2102+870928321+868697884+867182258+867296456+868525678+870230920+870994384
2089+870127180+869809270+871108063+872062182+872023402+871813064+871132747
2075+870271259+870534019+871839697+872929712+873495181+873531623+872745293
2062+872323773+873050860+873630750+873474134+873179674+873142583+874027586
2048+875354701+875004246+873269253+872695274+874090531+875838386+875948232
2035+874753374+874155036+875194447+876489991+875656631+874516143+876152204
2021+878632278+878437921+875894381+874535436+875795448+877438005+878075449
2008+878264285+877907659+877089824+876876823+877438395+878360944+879627452
1994+880810098+880975679+880258985+879667662+879170010+878853984+879035675
1981+879418609+880184477+881301904+882509039+883705651+883574304+881386091
1967+879203724+879474279+881249027+882267846+882884048+883756059+883991471
1954+883713511+883425547+882932053+882586340+882504752+882460710+883096335
1940+884157507+884489773+884618132+885191136+885668521+885892630+886340198
1927+887085540+887299125+886287322+884309836+882662213+883819979+887344532
1913+889302530+888320153+886321945+885513853+886307329+887789307+888270264
1900+886733591+885016526+885412712+887129192+887832505+887416441+887838221
1886+889254200+890028967+890169734+890145309+889894957+890632373+892441614
1873+892366327+888675479+884556291+885424989+889383663+891726220+892576015
1859+893373518+893503436+893037614+893333113+894430468+895529446+895953565
1846+894655486+893066391+894352322+896408279+896744507+895938884+895086490
1832+893500253+891245847+891490808+893515584+894491854+895656247+897553573
1819+898621241+898292743+897553833+896255625+893649205+892017561+892792783
1805+894438653+895779214+896021252+895437464+895198285+895490861+895692949
1792+895184903+895961814+898608509+900236840+900157914+900298746+900083146
1778+899205873+898439745+895095065+889076342+888635659+893271597+897397671
1765+900078729+900157200+898948895+899212629+899847215+900738389+900626334
1751+896944776+893745019+896322727+900066257+901122817+900082692+898104491
1738+897238521+895879121+890735658+889843639+895427785+900251585+901511078
1724+900465431+899859882+898771297+892687615+885516517+888340745+895607073
1711+899849423+899172030+895646958+894643404+896970305+894785210+885984417
1697+881808780+885758165+893040862+896872931+896270370+894613263+891614620
1684+887648995+889988498+893404244+893034691+890586317+889781343+888647807
1670+885052579+886013129+891870819+894256897+891159711+888571480+889468890
1657+890793796+888297807+881096763+882027302+884273004+880475689+878713412
1643+882276875+884300937+882780698+877694723+872493706+875158524+880798730
1630+883852004+884126716+883834465+882963233+883122188+886332923+888172111
1616+887635159+891221357+896365276+898720629+900205984+903443157+906136427
1603+906698779+907821077+909973043+910919108+911993077+914935076+917592294
1589+919036401+920918267+923698257+925791890+925014329+921242218+915638389
1576+912552765+916810836+921398509+920877212+918412533+918282095+920048789
1562+921926172+916623624+902966552+905719390+915531271+922362958+925984169
1549+929260188+931528820+929609668+924153166+916116228+914440153+921498416
1535+924954437+925150873+929282339+933620634+931546814+924888568+918530044
1522+914931049+918646516+925256822+930489344+935569408+939682685+940270175
1508+933171377+926030745+934777036+943717946+945593705+942291638+940209308
1495+942466638+942961432+937693896+932665020+936138580+942333797+944779248
1481+943390357+941644840+940094331+937114071+932910241+930858507+932204785
1468+931712525+927892733+926596669+929089865+928765004+921058513+915270330
1454+922547506+931452428+934265938+931763388+930862275+934031176+938726032
1441+943286292+944661607+940983037+940318764+945497566+948878883+948655164
1427+947737616+945883358+944566117+944680835+942118782+939621103+941700770
1414+943758740+943721064+942272085+939004966+933925162+930531957+930700526
1400+930730602+928951047+926379705+923557426+922884774+923555607+921391819
1387+916538527+913707349+914150435+917232681+921062995+922114749+920270949
1373+919501638+920771719+921141076+920809005+920485639+918317498+917005583
1360+919695281+921704792+920989462+920069121+919412644+919344242+920732418
1346+921775987+921208894+919407317+915897641+912804547+914191099+918394085
1333+921214155+921280673+920294594+921114963+923963291+926046205+926137213
1319+925946428+926844942+928430335+930170460+931820422+933864426+936930237
1306+940392103+944062424+947585937+949075904+949641309+952953250+957991804
1292+961526425+964483884+967468756+968804836+969358482+971691230+975668937
1279+978242422+978607168+978545392+978570726+979066624+979549335+978196561
1265+975785343+974816088+975152187+975488740+976606946+978979189+981451533
1252+982458530+982299834+983481961+985966907+987575360+987577893+988406577
1238+992932539+997143969+996309374+993144891+990994938+991258088+993762847
1225+995824325+996096179+996573433+998488623+999762991+999893234+1002099117
1211+1006325552+1007801748+1004852799+1001161886+1000135337+1001259975
1200+1002378571+1003295469+1003939668+1003208943+1002412869+1003801760
1188+1005988479+1006190957+1004723075+1002936635+1001857209+1004166181
1177+1009955468+1014589587+1016076762+1015360522+1012519925+1010832027
1165+1013076624+1016381940+1017822018+1017646824+1018036384+1019692322
1153+1020291894+1020363609+1021445244+1021422443+1020719390+1022623472
1142+1026436443+1028542678+1027317224+1024260442+1022291206+1023795010
1130+1028644274+1033641710+1035432698+1033062339+1027913549+1023152629
1119+1020222063+1018279915+1019159722+1024325012+1030762721+1035616467
1107+1034950246+1027605188+1022592747+1024798759+1028239384+1028378851
1096+1029468475+1035830572+1040820732+1038603482+1034551267+1032572547
1084+1033482300+1037869834+1043081375+1046755658+1046671666+1040472097
1072+1034343333+1036650811+1046031429+1055494350+1058184502+1053843933
1061+1051386204+1054845213+1058543986+1058995387+1058173134+1056957229
1049+1055056850+1052818098+1052753074+1058041462+1064623315+1062986151
1038+1054010553+1050896153+1058160922+1066657770+1069307063+1063675627
1026+1053152508+1048439269+1051904318+1054718997+1052503436+1050412142
1015+1052145966+1055692215+1058168782+1058050036+1055317661+1054179512
1003+1057486126+1058992139+1055530597+1053493479+1054114098+1052035146
991+1046551556+1043622160+1044922057+1045556578+1045519551+1046326278
980+1044719059+1041462853+1040940452+1044245248+1049312579+1054100392
968+1057673728+1056267818+1049306473+1045308304+1049137969+1055162473
957+1056159531+1053162057+1052035666+1054230310+1055645509+1053507770
945+1051405173+1052126219+1054303259+1057067010+1058568215+1058018466
934+1056519859+1053269240+1051583745+1057001206+1065812327+1069551959
922+1066660434+1060504777+1054815462+1053670232+1057157888+1059984649
910+1061343269+1064683403+1067897645+1065855915+1058752569+1055122718
899+1060177968+1068951867+1073741823+1069880912+1062396062+1059092436
887+1060686792+1064062848+1064976433+1063562468+1061586801+1057625658
876+1051221338+1044277792+1040994303+1044475788+1051142997+1051046208
864+1042276077+1037387967+1043555706+1050214861+1045289141+1035647193
853+1031434074+1030622799+1028648756+1026225976+1026571558+1030517890
841+1033294958+1027841964+1016742917+1010600058+1011294925+1011296744
829+1006441959+1000237388+999019924+1003605129+1007305136+1005455749+998285756
816+991928726+993818971+997476170+993924595+988792759+987658897+988431326
802+987309482+982233121+974835511+969457935+966938235+962847629+958166155
789+958918966+963527686+965274177+962549207+958076771+954332592+950729374
775+946856836+945523485+945934871+944982440+943629147+942530883+940153314
762+935853669+930660122+925997680+923136881+922876979+922773174+920441467
748+917338434+914131922+911536350+911744284+913998625+915464753+914513491
735+912359187+910455625+908346922+907270224+907381564+906947962+907394426
721+908452025+907784246+907198184+908341855+909260377+907657575+903161949
708+898718940+896113039+893760739+892689498+893225411+891445401+887715253
694+885666183+884104500+881280142+881154836+884826846+885480010+881142364
681+877331602+877073519+880609634+886366117+888956038+884519589+876917357
667+875711456+881313791+884346473+882229455+879570483+877255470+869712936
654+862334293+861150608+856204555+844288778+839146808+846334211+856228980
640+858871452+857524330+846539417+814403487+798081922+831109350+873815429
627+867429492+838407573+820799233+823387594+850253780+874379469+857954749
613+829776649+822849018+828990189+841891851+861926675+874223762+865877294
600+853813994
##END=
