##TITLE=Sample description
##JCAMP-DX=4.24
##DATA TYPE=INFRARED SPECTRUM
##DATE=25/8/2023
##SAMPLING PROCEDURE=Instrument type and / or accessory
##ORIGIN=Default
##XUNITS=1/CM
##YUNITS=ABSORBANCE
##RESOLUTION=4
##FIRSTX=4397.6552
##LASTX=599.8556
##DELTAX=-1.9287962
##MAXY=1.9414083
##MINY=0.99273729
##XFACTOR=1
##YFACTOR=1.8080774e-009
##NPOINTS=1970
##FIRSTY=1.0597023
##XYDATA=(X++(Y..Y))
4398+586093440+585811253+588186502+590325057+590315958+590544675+591524615
4384+591616194+590072671+587796583+586839785+587932600+589334040+589810197
4371+589867690+589132487+587475430+587836801+591340666+593418168+592003805
4357+589959071+588207996+587229638+587578613+588779226+591240516+592924737
4344+591008569+588829598+590330991+592348297+591524681+589997179+589284789
4330+589369379+589989136+589192353+587461321+587297745+587664720+587547757
4317+588409416+589253010+588893222+589471244+591412795+591934050+591386950
4303+592583211+594176644+594150667+593634753+593464914+593298964+592634704
4290+591682916+590716492+590421910+591559361+592980844+594213698+595504967
4276+595848734+594435162+592197446+591264911+591594041+591661620+591388202
4263+591480573+592448513+594098252+595571953+595760517+595036985+594968416
4249+595702432+595982509+595171023+594978965+595728870+595227065+594613045
4236+595691619+596799862+596395965+594574145+593042556+593551548+595337435
4222+597457265+599352269+599173858+597218065+596253949+596923549+597892083
4209+598505972+599063884+600009804+601193736+601578315+600009078+597425552
4195+596960932+599016348+599982178+598886924+598802729+600914978+602843936
4182+601648004+598366131+597107564+597594139+596548794+595717925+598041352
4168+600692525+601001743+600845288+600780873+600256058+599970113+599582633
4155+599195747+599665048+600626527+601358301+601407750+601090751+601407948
4141+602295979+602149150+600465456+599038105+598714315+599097971+601010908
4128+604162830+605440319+603735858+601756264+601139277+601084026+601532558
4114+603063620+603857567+602320176+600579254+600518531+601494647+602096998
4101+601522537+601299754+602569463+603373696+602858507+602433776+602858771
4087+604302341+605760944+605405244+603297809+601399640+601933092+604756544
4074+606740555+606501421+605592753+604270035+601958344+600230542+600691733
4060+602375031+604033341+605765296+607428221+608676766+609386716+609067410
4047+607663464+606346878+606959513+610188576+613298236+612407633+608892230
4033+607165220+607529557+608356339+609502624+610630976+611343300+611126583
4020+609473614+607462241+606198070+606232684+607733022+609035697+608781993
4006+608224146+608953283+610183367+610051965+609169340+608923284+608826233
3993+608392601+607679881+606749653+605965991+605949311+607505229+610216596
3979+612012176+611649750+609850940+607680870+606128776+606367844+608151292
3966+610034362+611568390+612871725+613487327+613473284+613108683+611932860
3952+610388810+609398320+609370893+610290638+610542364+609704572+609544293
3939+610241585+611760449+613961837+615103375+614577505+613406561+611535952
3925+609423836+609596049+612564418+615514656+616068349+614564385+612776520
3912+611730384+611512546+611818205+612152016+611729593+611194361+611899630
3898+613710835+616022988+617790282+617475855+615998791+616045470+615741262
3885+613282017+611478460+611230294+612911416+614855604+614443203+613744724
3871+613588928+612780278+613589126+614573220+614774047+615349102+615133374
3858+614010758+610259518+601607918+601761538+610574671+617203821+619145702
3844+616458729+612584725+611229964+611098035+612076393+614304944+615296686
3831+615642167+616965479+618064689+618099831+616407764+613280302+613003324
3817+613847313+615174911+619631024+624252494+625458711+622608953+620275505
3804+620079490+619025839+619947298+622630645+623365254+623891255+625805709
3790+627278289+627212885+626605326+626635391+626864240+625672791+623917101
3777+624093797+625051452+625021454+623836334+622071941+620956116+621540467
3763+623540038+624852339+624095313+622971774+622585679+621445987+618327888
3750+616608987+618556736+619659902+619728537+622226287+623669198+620082853
3736+612359964+610452499+617301466+623184799+624988488+625063386+625368187
3723+626280811+627404351+628452002+628830383+627403955+623190865+620004658
3709+623141548+627838444+630320370+630853097+630704025+631867585+634316677
3696+635498038+633613056+629576662+626752420+629257224+633466886+634538207
3682+632106059+627732821+622883558+618384193+617973374+620589075+620647952
3669+620002614+622207562+624497759+625738723+626466079+625334562+621929265
3655+620623557+621916343+619283301+609632641+604917285+608711314+613370497
3642+615412989+615146824+613671079+610467862+605652948+601294084+597240680
3628+593533680+593974762+597127344+599266360+596407371+590199919+587824736
3615+588269312+588089385+586053288+583165553+583064348+585003790+585417971
3601+584205886+581801298+578363035+576053652+575805815+576120177+575677051
3588+574284181+574046564+574828116+574510656+573265803+572261864+570825150
3574+568393662+566611599+565272068+561961646+558734628+559373966+560953026
3561+561538300+562171968+562917192+562601380+560683564+558404377+557164469
3547+556713167+556838437+557574695+558726716+559444183+558023820+555060924
3534+553754490+555195160+557007222+556886963+555687471+554519626+553691394
3520+554128520+555579409+556185715+555365000+555068110+555403108+554120542
3507+552487287+552619446+553436964+553575684+553016980+552515011+552580514
3493+552266680+550739805+549056870+549180656+551293432+553640099+554604809
3480+553824312+552741189+552602403+552495957+552104521+553091747+555307178
3466+556581568+555885727+554082961+553252554+554261702+555875442+556689564
3453+556269119+555314364+554337655+553492874+553115548+552964400+553332463
3439+554784868+556407839+556866854+556168573+555766523+556740925+558043797
3426+558318402+558438464+559052813+559176369+559460468+561433864+564117871
3412+565169676+564800789+565385866+567264189+568798415+569154511+569171719
3399+570131155+572117210+574163065+574833918+573834463+573063657+573784157
3385+575713972+578728032+582158515+584421021+585806967+588068287+590770292
3372+592530268+593788110+595760583+598791851+602022891+604431765+606372921
3358+609330147+613247600+617166768+621441768+625165052+627437646+629524774
3345+631717195+634704091+639263321+642574204+643272419+644629224+648264688
3331+652760295+656547797+658249555+658026245+657939809+659161586+660533160
3318+661657028+663794330+665523582+664237456+661846779+662974736+667278811
3304+669229923+667589876+666262279+666321024+665465233+663276966+661720850
3291+660828071+658962868+656417912+654175185+651783651+649793113+649379986
3277+648691265+646108068+644094717+644554721+645199400+643709677+641710040
3264+641567892+642542096+642443594+641113492+640650059+642153364+643242025
3250+641376756+637740303+635264904+635698668+637553321+637847244+636598040
3237+635618693+635339011+635104888+634368433+633139536+632108037+631027156
3223+629481457+629296651+630723805+632124124+633551014+634915863+636085224
3210+636641752+636298710+637280299+639055505+637940867+634816570+633252872
3196+633851662+635304068+636723178+637210939+636170737+635066318+635081746
3183+635483006+636303062+637300738+637419678+637457787+638046159+638052423
3169+637767467+638944740+641007869+641838870+641852782+642563853+643097833
3156+642775427+643315143+644905213+645444006+644796954+645025736+646524821
3142+647927646+648852072+648804601+647225805+646093102+646890741+648193680
3129+649469323+651078711+651440543+650085914+649028505+649633097+651866725
3115+653988995+654120726+653344712+653623998+654638486+655255737+655545967
3102+655236617+654183163+653989720+655300834+657226892+658201953+656830313
3088+655198376+655790046+657246671+658541566+660791677+663252901+663777056
3075+662843202+662259576+662339354+662567411+662022618+660128867+658258852
3061+658259775+659452542+659964434+659973731+659687060+658288785+657558659
3047+659571153+661995587+662274741+661664413+661685511+662281268+662670528
3034+662078331+661273505+661150147+661182123+661701730+663475024+665674895
3020+666920473+666974801+667183804+667835669+667703938+667034930+666544466
3007+666997020+669129839+671195803+671269382+670403240+670280014+670898188
2993+671713233+672888001+675135343+678247970+680117524+679909576+679735319
2980+680890835+681897214+681545271+680919252+681260645+682719512+684301934
2966+685116189+685635333+685394551+684374327+684663898+685785459+685430616
2953+684300879+684156819+685129177+686230299+686398293+686208014+686796387
2939+687903971+688934481+689899125+690927195+691434670+691519590+692118050
2926+692242265+691535084+691734131+691892564+689499250+686204059+685783020
2912+687835996+689620696+690916053+692046976+692608449+693028696+693720186
2899+694400731+694585669+693792447+692532957+692495178+693785722+694643030
2885+694639008+694539187+694312449+693708318+693785986+695755096+698296229
2872+699572400+700519110+702161201+703189337+702415499+700021261+696954655
2858+695027608+695250127+696747827+698290691+698693137+697811764+697137285
2845+696709455+696247341+697366463+699697735+701194051+701809786+702126850
2831+702443849+702931215+702924952+702824142+704121741+705855608+705907628
2818+705437338+706691487+708609831+709035023+708463067+708381180+708827273
2804+709022167+708816592+708835581+709323672+710075093+710926269+711265882
2791+710843986+711302672+713616407+715645713+716030621+715604374+714788076
2777+714617643+716021391+717365537+717138667+716824041+717553837+718266557
2764+718560546+718789592+719418974+720420012+720400101+719301814+718982837
2750+720236327+722003688+723116150+723546419+723770586+724048949+724724352
2737+725723412+725540452+724131364+723693644+724402870+725504783+727249199
2723+728718945+728903619+728696132+728984319+729409512+729642645+729343382
2710+728929200+729847956+731466905+732164658+732467020+732848697+732450867
2696+731714280+731863285+731922557+730504898+728886741+729051965+731013098
2683+733454608+735203969+736171185+737103852+737882173+737850526+737476167
2669+737614162+738028014+738136010+738049178+737833846+737853098+738606365
2656+739354424+739518066+739761683+740299816+740225182+739504089+739450025
2642+740209820+741017085+742094472+743358314+743886161+743610765+743054040
2629+742662275+742881365+743678345+744643846+745146179+745060204+745191671
2615+745598403+745641786+745377796+745126201+745405883+746597793+748095889
2602+749380960+750196401+750260487+750015947+750015156+750398152+750825124
2588+750887364+750604517+750480434+751320600+752223136+752013474+751864733
2575+752391855+752847310+753263536+753990431+754960349+756235597+757490471
2561+757414914+755912269+754898506+755067027+755374201+755846930+756512443
2548+756503279+756360273+756903681+758210707+760049472+761137935+760698238
2534+759373476+758163830+758193499+759750011+761335927+761679101+761686683
2521+762044032+762232596+762817804+763921828+763742428+761904191+760543233
2507+761014709+762135809+762293912+762029659+762687853+763866709+764474400
2494+764493388+764357503+764522398+765170439+765759998+766007769+766125259
2480+766317911+766558165+766361623+766040669+766635437+768023889+769219821
2467+769428428+768881724+768964995+769656683+769523897+768781310+768502881
2453+768924250+770184795+772080721+773187580+772647271+771662847+771017312
2440+770539045+770647568+771436504+772558725+773659452+773672045+772419807
2426+772097270+773251006+773727757+773638288+774455970+775964747+776834384
2413+775889453+774491705+774385621+774795122+775360485+776453168+777286872
2399+777624573+778242549+778888415+778496649+777215270+776311943+776382555
2386+776913040+777177228+776832538+775334244+772153773+768330339+765630047
2372+764158192+762330241+760318011+760603890+761914411+760397524+756983062
2359+755907983+758530937+761803316+764069646+766632140+769413528+771054497
2345+769602421+765437659+763246755+764249046+765681078+767097617+769197668
2332+771548258+772874273+772685182+773033036+775065969+777244544+779201260
2318+781745293+783575091+784015777+784624852+785358275+785598265+785856058
2305+785990954+786082598+786858678+788425739+789954954+790796900+791347362
2291+791655790+791514169+791068340+790404937+790240965+790907467+791761610
2278+792515735+793126854+793424996+793141820+792853436+793705271+794897379
2264+795051988+794702419+794673278+794955069+795419557+796031137+796671794
2251+797325241+798113321+798614730+798072773+797200499+797405216+798243601
2237+798840875+799164797+799195719+799595264+800398112+800337455+799505926
2224+799075855+799357185+800230909+801558506+802493745+802053784+801039559
2210+801419325+803219519+804657288+804979759+804794491+805030263+805529496
2197+804781833+802927113+801728412+801445632+801427039+801727621+802703144
2183+804610608+806967528+808107353+807420544+806883598+807622756+807833737
2170+806637409+806014554+807088842+808692429+809681270+809544264+808772140
2156+809021163+809909195+809329921+808208689+808491667+808967957+808646343
2143+808777810+809614481+810142659+810061167+810231666+811121874+811563285
2129+811066425+810835731+811240550+811703785+812392770+813580724+814577938
2116+814611563+813778123+812597685+811431224+810590070+810570752+811737674
2102+813376138+814309926+814420493+814143911+814274653+815188068+815861427
2089+815854372+815544758+815510869+816207831+816694142+816851191+817512616
2075+817962467+817946445+818246500+818438426+818194018+818634111+819801429
2062+820354660+820032255+819154640+818300827+818413636+819364039+820193655
2048+820178491+819554779+819366149+819837889+820623331+821676521+822406844
2035+822209182+821678433+821894952+822871068+823547328+823289008+822409482
2021+822058133+822686790+822656132+821731574+822110812+823798131+824839652
2008+825025249+825530087+826188808+826183929+825999519+826215642+826472116
1994+826510686+826650988+827323754+828456523+829653971+830341637+830020419
1981+829595490+830146612+830766038+830760038+830817926+830762280+830031297
1967+829794076+831277073+832897011+833088872+832732578+832842881+832996238
1954+832214224+830830849+829868974+829733419+830662328+831464780+831425222
1940+832370811+834133491+835149693+835289995+834652174+833594105+833004809
1927+832969931+832848288+833124475+834403348+835262040+835667519+837456571
1913+839361794+838807508+836460346+835291182+836082822+837566413+839034247
1900+840230772+840588714+840034032+839628355+839547655+839005632+838749686
1886+839415001+840651283+842342822+843701934+843874543+843171383+842625734
1873+842157357+840588978+838528420+838828408+841310269+843501239+844661436
1859+845025246+845129682+845703022+846197508+845693594+844454806+843214503
1846+841837193+841098365+843253798+846244979+847309707+847140725+847213579
1832+846674061+845116891+844951666+845906421+846248342+847323619+849533577
1819+851501238+852193321+851370561+849172339+846456949+845460790+847307136
1805+850136521+851027058+850018306+849715351+850666347+851730020+851041827
1792+849099155+850143048+852735344+853951846+853919078+853008630+852252264
1778+852923513+852806946+849883410+846262978+846059975+848690643+851894321
1765+854281966+854693444+854837373+856465947+857579135+857948615+857900551
1751+855750656+853016212+853952374+856396192+856341073+854143971+853172140
1738+854477650+853460920+848382743+848868131+853979076+857697614+860076885
1724+860822570+859921748+857537796+851691714+846434928+849966616+854963038
1711+855527808+853641705+852085127+851811643+852343843+850369721+845193635
1697+843693891+847987681+853493161+855105187+853047727+850192167+844423093
1684+837338620+841659574+849305652+852350304+850928095+848477486+846933502
1670+844549484+844371337+847846851+850096896+849814248+849658452+849973934
1657+848567087+842428006+834343153+836831804+838506531+834762543+835277864
1643+840090469+842492816+841240843+836128315+831957025+836055856+841182098
1630+843280105+843909685+844291428+844333229+846269703+849292136+848809386
1616+847259797+852025591+858154322+860844987+861872859+864089081+867244696
1603+870035248+871785268+872189626+872286743+874077641+876590291+878116804
1589+879798123+881666952+882603839+883199794+884439505+884792568+881094337
1576+877032626+879971325+882939694+882033268+882534479+884876169+885909580
1562+884917244+876902279+866433672+873951580+883167158+888503128+892613695
1549+895640347+895407477+891440377+885835539+880152307+883755465+894738536
1535+901036380+901047193+899696916+899454947+898166975+897043370+897075610
1522+895719267+895663357+899689597+905131123+908787158+909624818+908298078
1508+904428887+903856206+912848606+919415913+919791656+917422012+918310834
1495+921258633+921210964+917626861+914922020+917848984+922616690+926115874
1481+928915722+931080319+929806588+922616295+912760917+911380772+918269891
1468+921591323+917903575+914558210+915842226+914052252+904699008+902102823
1454+912083536+919691902+922104139+921466581+921644134+924699401+928264714
1441+930766024+930592558+926450938+925655078+929881091+933713624+937523675
1427+940156650+938968894+936956400+935845652+931852773+929026289+932618106
1414+935954043+935651879+933914386+931828049+928217771+925156240+925199030
1400+924246649+919602565+915019863+914046713+916358404+917608136+914410721
1387+908554222+906062208+907865501+910505070+912026637+912237486+911390003
1373+911055598+912289309+913345729+913159275+911741945+908494488+906536718
1360+909312896+912854869+913434869+911812360+909882215+908473258+907860029
1346+907565513+907017820+907147243+908879396+911330532+913023588+913631740
1333+914118776+914958612+915897873+917524403+918981688+919030938+919077025
1319+920269726+922518848+925217755+927415648+929491304+932019184+934673917
1306+937757270+941424118+944880710+947690843+950065894+952277831+955130358
1292+960051223+965763596+968280466+967566691+966789886+966689604+967388742
1279+969675445+973549317+978145206+980494676+979073192+977808889+978854102
1265+979143739+976434481+973744145+976153810+981871787+984734732+984459270
1252+984781345+987342653+991117892+993724494+994404051+995178153+995990759
1238+995003764+993237524+991835556+990859111+991263205+993118188+994652283
1225+994660656+994336405+994708325+995258589+996201278+996942876+995864698
1211+994553056+995156461+995988187+995542029+995711011+997555248+999416626
1198+1001599158+1004560406+1004912612+1002753487+1002209552+1002936117
1186+1002641996+1001961187+1001732998+1002227287+1004254813+1006726586
1175+1007750766+1008448849+1009677351+1009977076+1010670478+1013915166
1163+1016591919+1015709822+1013604826+1011871222+1009866047+1008907996
1151+1010059227+1011178876+1011250609+1012081676+1013424635+1014081511
1140+1016036183+1019521982+1021624736+1021952745+1020906676+1018565909
1128+1016718903+1017016914+1019492577+1020836327+1018635335+1016698663
1117+1018249965+1021249849+1021743215+1018799570+1018292227+1024115101
1105+1028595082+1024282040+1016347248+1012783649+1015400405+1021308858
1094+1026018149+1028121364+1030702715+1034107683+1035731049+1036315729
1082+1038045113+1039914865+1039169377+1038210733+1039841615+1040848719
1070+1040102902+1038860159+1037782706+1038574148+1041323822+1044449174
1059+1046062056+1045530055+1044528489+1044597585+1045325733+1046668560
1047+1051028084+1057977530+1059574985+1050780248+1041432279+1041184508
1036+1045827406+1048083583+1048348166+1050081242+1052260542+1052331683
1024+1050764292+1048817598+1049937907+1054664340+1056374076+1052737293
1013+1048390428+1045289339+1043430466+1044594882+1047683313+1049469991
1001+1051149003+1054158447+1055724782+1053015656+1048238126+1047302294
989+1049853778+1049533944+1047744101+1049978587+1053922742+1055196143
978+1053927687+1051625490+1048611628+1045910348+1046702845+1050609617
966+1053118707+1053922742+1054580277+1054206841+1054875716+1057972586
955+1059884072+1060141469+1059767901+1057074401+1053996783+1052860717
943+1052949065+1053639302+1054028364+1054983778+1057723233+1060186632
932+1060344736+1059139046+1059274931+1060634307+1060598836+1058444655
920+1056539894+1059963058+1068905087+1073741823+1067053927+1054878287
908+1050113548+1056465457+1062639219+1060233377+1056546948+1058736204
897+1064641361+1067878203+1064489587+1058160359+1055208209+1055860535
885+1056458930+1058303100+1063331829+1065361927+1062102668+1059708497
874+1057207516+1049662115+1040393066+1037245693+1041882525+1045299427
862+1041672204+1036944716+1033539023+1029292770+1026465362+1026244756
851+1026718737+1027180192+1026917125+1024899423+1020011260+1012177804
839+1006317415+1006523385+1009767282+1009658363+1003710746+996243804+991674618
826+990997831+993886752+997541666+999331575+997743548+991526997+984529025
812+981445672+979749913+978510730+981952751+986028967+983863381+978041034
799+973283877+969482397+962503084+952930883+949012506+953407699+958132945
785+958874939+959150730+958597763+954975815+950370300+947788290+947053285
772+946990189+946626906+943089878+938173430+936003690+933792413+928408708
758+923441559+921618751+920009230+917193823+912567935+906625461+905065126
745+907396069+907649642+907042412+907500900+905035918+899239549+895801813
731+896925550+899317743+901720552+906713875+909844238+903988530+895098522
718+889959094+887433653+887509144+889602668+889412785+886589663+884546116
704+883655381+885545176+889699258+887962424+878623685+870870732+870895654
691+875179423+877961601+878672409+876625433+871753357+870690673+877511882
677+883605735+880459219+874108497+871291243+869417667+865734139+862922687
664+860271185+858683356+861820905+866572854+867074065+864978498+865762423
650+871132018+877234970+881722862+889154663+898456942+889931403+857981581
637+831495702+825426508+827809075+828965712+824951208+811849494+807698445
623+839647937+894668714+896649099+844443137+812485008+803487992+802233052
609+827237120+874983342+886333915+854080017+833409365+834870473
##END=
