##TITLE=Sample description
##JCAMP-DX=4.24
##DATA TYPE=INFRARED SPECTRUM
##DATE=25/8/2023
##SAMPLING PROCEDURE=Instrument type and / or accessory
##ORIGIN=Default
##XUNITS=1/CM
##YUNITS=ABSORBANCE
##RESOLUTION=4
##FIRSTX=4397.6552
##LASTX=599.8556
##DELTAX=-1.9287962
##MAXY=1.8977436
##MINY=0.98858982
##XFACTOR=1
##YFACTOR=1.7674114e-009
##NPOINTS=1970
##FIRSTY=1.0558581
##XYDATA=(X++(Y..Y))
4398+597403701+598009860+596791673+596022220+595114228+592248205+590037310
4384+591117836+594076802+596611787+597866195+597514181+595662045+594200031
4371+594440282+594905610+594201042+592911561+592391061+593005922+594457684
4357+596753227+599315259+601303507+602025543+601453445+600519080+599495954
4344+598924934+599727707+600363139+599042565+597693932+598096329+599070826
4330+600073718+600028730+597838541+595721062+594907161+595473324+598157505
4317+600915071+601158830+599836097+599456092+600182647+600329213+600342298
4303+601486629+602895022+602963145+601015771+598005881+596315891+597738245
4290+601026968+602989248+602438126+601116674+600920264+601540993+601840936
4276+602087124+602798571+602847268+600912777+598622765+598416103+600044580
4263+601814227+601725262+599315192+597259023+598081221+600947716+602352803
4249+601108580+600121201+600635901+601009566+600641769+600620995+601656262
4236+602735034+603718973+605643347+606415363+604393458+602508609+602003150
4222+601363671+601212316+602475829+604048122+604955035+605755649+607103675
4209+607482668+605785326+604460907+604720246+604324391+603090420+603336945
4195+604890082+605887241+606965945+609236667+611054877+610017384+606840423
4182+604696909+604262203+604581572+605611983+606166612+605389066+604254379
4168+603659079+603802339+604494968+605828223+607226903+607024423+605227122
4155+604038544+604443370+605521872+606536163+606909153+607262988+608597660
4141+609678724+610391183+611126642+609413652+605864173+604917533+607305751
4128+610236861+611603503+610729977+609030814+609006398+610441432+611357586
4114+611573826+611196923+610648230+611566002+613019315+612517093+610834522
4101+610538693+611860684+612752151+612502187+612371539+612835653+613153537
4087+612904383+611991872+610359145+609111078+609512464+610911886+611560808
4074+611079900+610823731+611064454+611036935+611149777+611303762+610964158
4060+610947701+611341263+611609843+612013455+612290871+612639580+613559443
4047+613758213+613034356+612944110+613178156+613031523+613341382+614720569
4033+615887698+615072583+613250461+611965297+611654359+613099714+614660675
4020+613905319+612391909+612457806+613510677+614404438+615109814+615237832
4006+615362679+616793060+618317599+618259188+617021980+616272425+616893221
3993+616657353+614119670+612309149+613174177+615118650+616708209+617657885
3979+618217100+618156869+616727432+614632886+613880228+615644344+618810580
3966+620700487+619908912+618426191+618963823+620355353+620486406+620244333
3952+620530517+620077465+619317928+620491869+621681863+620292761+619091705
3939+620192398+620998677+619392458+617107842+617667530+621156237+623229402
3925+621672016+620277181+620807393+619458895+615804129+615380890+619603842
3912+623377722+623209910+620808877+618167593+616162349+616082287+616769385
3898+617720747+619520341+619837416+617682571+618096367+622188672+624192095
3885+622893306+622153868+621026669+620131155+621344351+621790118+619850299
3871+616929576+615615004+617413856+619558382+620333365+621288773+623015051
3858+624279104+623220567+617729245+615199656+619721877+625147503+627778603
3844+626350853+622563281+619872355+620229562+622608741+623936600+623880618
3831+624809249+626494923+626666916+625061102+621311031+618367173+621098434
3817+623296918+624170107+627767339+631019504+631269738+628314009+626078091
3804+627431580+628389552+627540037+627577134+628851911+631288961+632856802
3790+632001690+630293421+629695422+630627831+631831045+632139757+632753201
3777+634048550+634293321+632789691+629970343+629251072+632300217+634886463
3763+635566007+635542805+634154107+632073725+630391896+628399601+625634954
3750+624482933+626264181+627827638+627839172+628988967+630569083+629018442
3736+623593152+621022689+625391465+632276880+636956121+637199947+635310242
3723+634559742+634954316+636068026+637030112+636297419+632556656+628589402
3709+629749516+632844392+634619637+635694564+638263273+642479818+644776844
3696+644078078+642614310+640728921+638444373+639001160+641555368+643120174
3682+642726409+640597397+637483906+633138062+630628303+630518025+627732670
3669+625704628+628642146+632122625+633801419+633973008+632072241+627762280
3655+625107979+625677109+624377713+618619498+616117293+618183983+619860686
3642+620232125+620096081+619751554+619131500+617828327+614681651+607849453
3628+602620506+605215588+607871441+606743972+602723972+598755436+598105300
3615+598105570+596285202+594521423+593705026+593475566+593387681+592527982
3601+591469512+590728118+589136805+587280419+587076320+587523841+586094607
3588+582916095+581400729+581362081+580385359+578661915+577333853+576510307
3574+576641831+576898136+574929786+570450664+566846620+567883573+570629133
3561+570763221+569035729+568518264+568975228+568741788+567920063+567017534
3547+565978355+565491849+565504833+565050837+564438067+564723340+565895865
3534+566074941+563911024+561227922+560199500+559744729+559343343+560851458
3520+564552527+567938544+568343033+566599758+565352500+565401367+566192639
3507+566091938+563952302+561900181+562102763+562617024+561685020+560553808
3493+560484336+561158854+561950262+562479834+562725212+562387362+561361672
3480+561428042+562973456+563898951+564079983+564448488+564480897+564344651
3466+565314560+566864089+566467222+564186956+563383172+565169647+566609201
3453+565969182+565276250+565682964+566217797+565900250+564953340+564801412
3439+565840355+567800679+570370063+571844151+571555066+571370999+571884822
3426+570872824+568201256+567085050+568660648+570960777+572622372+574000008
3412+575404691+576247460+576741992+577721075+578881257+580017023+581348322
3399+582448340+584158699+586835731+587928262+587480067+588361012+590457784
3385+591739509+591879936+592725336+595212163+598058828+600738153+603569507
3372+605747690+607238977+610075052+614425549+617556172+619391581+621761790
3358+624112978+627129546+632553081+638174039+642092056+646005015+650019551
3345+652890699+655485781+658702671+662051085+664830302+667060015+670112668
3331+674024817+676096228+676842344+679834226+684176022+687543052+689751856
3318+689023412+686411333+686760042+689999527+692348692+692738409+691993980
3304+691749412+693742178+695132157+692518595+690213609+691026431+691249753
3291+689997234+688010335+684586648+681443615+680144826+678908832+676350644
3277+674251039+672506483+669343282+667123012+667757770+669610041+671301853
3264+671702497+669905061+667670222+668185529+670241090+669430358+666105146
3250+663479847+662143220+660855830+658767556+657183326+657883846+659487907
3237+659585302+659305661+660103577+660476972+659531613+658145681+657247132
3223+657315053+658352208+659973131+660864261+660002337+659047603+659784478
3210+659629886+656292735+653649495+654280611+655040419+654892369+655517617
3196+656205120+657004452+658371903+657544108+654513241+653722070+655768795
3183+657268581+657864960+659224723+660335262+660204750+660749396+662230768
3169+662473313+662518639+664465743+666357876+666106967+664366323+662300982
3156+661288782+661866479+662793154+663382654+664242151+665281532+666183656
3142+667685060+669450863+669927859+668984254+667997752+668297763+669050488
3129+668575246+668094001+669106336+670178767+670054527+669781495+670571115
3115+671963118+672796579+673351208+674496417+675614444+675919311+675789877
3102+675897930+676724714+677686867+677122255+675066559+673860040+674485962
3088+675982308+678053450+680221852+680788083+679637411+679039345+679653666
3075+679458402+678147136+677966778+679326136+679913208+679390751+680239456
3061+682874468+685082395+685315497+684331963+683806134+684045711+684555959
3047+684954513+685382339+686464145+687894661+688521123+687555463+686190844
3034+686664737+688166007+688843662+689631798+690699508+690648382+689950964
3020+689783287+689968906+689750844+689261640+689765346+691506530+692497281
3007+691607567+690713874+691732752+694172567+696132959+696830511+697271422
2993+698031230+699186218+700698819+701397653+700585977+699656402+700446696
2980+703046567+706226900+708301481+708481299+708464302+709157470+709485001
2966+709330408+709401229+709926046+710339303+710515749+710779675+710406617
2953+709286230+709020685+710259444+711239471+711038407+711165818+712328293
2939+713359581+713218209+712795711+713567862+714905501+716236463+718133048
2926+719297007+718892923+718425032+717746972+715949267+714016934+713049587
2912+713102062+713242760+713003722+713252068+713279992+712024168+711561538
2899+712764078+713930802+714536490+714164646+713285927+713537982+714611021
2885+715370154+715752047+716665570+718173449+718729697+718330469+718626366
2872+719163931+718706158+719378417+722100909+723153713+721944024+721784913
2858+722856805+724000732+725379177+725572485+723749823+722820720+724327115
2845+725240098+723548017+721633491+721460958+722395929+723764122+725342620
2831+727288443+729267315+729814794+728685436+727631958+727819195+728309883
2818+728941201+730433567+731323146+730928909+730967018+732029602+732889840
2804+732534926+732181631+733306537+734429487+733968005+733045848+733184792
2791+734895557+737298680+738895254+739938548+740700514+740275386+739271954
2777+739032647+739735191+740747390+741176363+741129554+741427406+741957889
2764+742393067+742513260+741758916+741056642+741907033+743442903+744187872
2750+744331942+745014926+746832866+748145077+746957578+744846574+744533883
2737+745747417+747149267+748493179+749652754+750529315+751196111+751694893
2723+751938786+751807060+751983303+752850488+753262868+753168171+754030028
2710+755323825+755627141+755392421+755425335+756014026+757074182+757892872
2696+757956746+757658354+757817735+758414654+758875732+759080034+759163872
2683+759254590+759237593+759466986+760689760+762374489+763502296+764033251
2669+764080735+763556120+762701615+762321407+763447663+765472063+766066486
2656+764726487+763248892+762406123+762073197+762843189+764337511+765453177
2642+766427471+767637295+768976351+770192650+770691634+770441333+769985246
2629+769916448+770446459+770745863+770224148+770126146+771377181+772449680
2615+772474771+772750230+773440026+773570674+773362730+773630366+774120447
2602+774276186+774809906+775682083+775627112+775328383+776122454+777722333
2588+779105837+779161415+778413411+778354798+778281077+777502181+777393117
2575+778505410+780142993+781634685+782161997+781421143+780504180+780642112
2561+781229184+781578163+782095628+782662667+783302619+783747442+783425982
2548+783240769+784060943+785397975+786211741+786037184+785639980+785914023
2534+786444574+786873007+787668562+788238772+788354513+788621542+788824562
2521+789474429+790868724+791478122+790442720+789086937+788974298+790217239
2507+791840995+792813805+793137963+793163863+792861558+792845708+793808198
2494+794988952+794965480+793560797+791971845+791807136+793013992+793871937
2480+794168171+794445250+794341784+793892914+793703653+794313051+795720229
2467+797087748+797490213+796972681+796261773+796137803+796686092+797193237
2453+797325437+797200050+797630371+798735920+799130831+798902923+798537959
2440+797708072+797474363+798746172+800526004+801618063+802177683+802917054
2426+804054911+805354644+805899897+805177254+804344804+804292397+804398089
2413+803981054+802931083+801962455+801991930+802784315+803905107+804823082
2399+804846082+805222512+806923159+807984731+807374929+806606690+806559476
2386+806754673+806657749+806235454+805055307+802400398+798851055+795632479
2372+793545419+791978522+788574193+783286836+779032453+777239941+777711271
2359+779171734+780588963+784380784+790871355+795570224+796701808+795769467
2345+794454153+792975344+790372506+789091793+791182562+793975134+795411787
2332+796247542+797625987+800249397+803469053+805267702+805513889+806152155
2318+807194774+807677908+808576659+810614549+812699383+814493041+816121856
2305+816782177+816683162+816914646+817747905+818862357+820059163+820622831
2291+819767786+818967037+819733252+821138677+822301759+823117144+823423428
2278+823761750+824604047+824932319+824033972+822920667+822631245+823083083
2264+823473475+824064729+825634930+826994355+826985047+826621028+826948760
2251+827472565+827801377+828761979+829957234+829689328+828465475+828253080
2237+829635100+831844983+833233074+833051502+832473536+832007669+831516711
2224+831126049+830195597+829205588+829837041+831438606+832299384+832734899
2210+833221945+833579894+834276772+835023630+835205606+835619537+836700939
2197+837769594+838091121+837074334+835090404+833826486+834380575+835473107
2183+835509326+835306779+835867815+836479304+836556195+836368418+836553902
2170+837645623+839136978+840158755+840643103+840874924+841049008+841352931
2156+842044346+843143690+844287684+844902950+844292406+842749453+841686667
2143+842097496+843252147+843488824+843400129+844296048+844920216+844115825
2129+842456322+841281503+842002191+843833890+844514379+843983087+843648744
2116+843997790+844972152+845978079+846091460+845636857+845890328+847076815
2102+848004570+847977590+847989461+848879445+849489989+848835671+847960728
2089+847644260+847777808+848340598+848502407+848007268+847676703+847015370
2075+846499996+847733831+849188696+849260192+849078890+849177635+849522904
2062+850681669+852582841+854105019+854047215+852765626+851697714+851290797
2048+851527136+852405788+853012218+852896341+852924670+853475185+853716987
2035+853487393+853672337+854070485+854138676+854074667+853939568+854192702
2021+855089228+855771469+855603725+854920809+854424860+855098198+857389290
2008+859531320+859452338+857593456+855865695+855599341+857140202+859711745
1994+860743505+859193740+858112270+858844829+859531320+859905862+860982070
1981+862448401+863281323+863381349+863224666+863310056+863338047+862121276
1967+860254773+860022143+861787675+864004236+865288793+865182966+864050573
1954+862894708+862993992+863961406+864245230+864316320+864615050+864187359
1940+863992433+864753387+865973193+867628987+868664592+868483358+868461302
1927+868979779+868418270+866369588+865143374+865954105+867410724+867897297
1913+867751339+868435199+870531364+872684186+872987502+871974493+871639813
1900+872205302+872699497+872641761+872522175+872713257+872517656+872183583
1886+872056645+871683925+871933349+873353680+874839369+875389344+875413288
1873+875645986+874974738+872791160+872340266+874199687+875221532+875104914
1859+875645042+877187050+878512818+878926277+878867327+878324771+877043115
1846+875083802+873651196+875094594+877538794+878690207+879438819+880501740
1832+880209755+877322891+875116852+876247694+878717996+881167052+883187135
1819+884354130+884465959+883689694+882799711+882827567+883926911+884958064
1805+885369635+884865659+882714119+880391731+880212048+880862252+880466397
1792+880554350+882686128+884504405+884599710+883829448+883599651+884037189
1778+884604296+884556205+882768887+880179943+881558254+886095313+889452496
1765+890348010+888211848+885281817+885437420+886490831+886226231+885192043
1751+882942500+880945956+882066748+884193063+884890278+884622440+885210996
1738+887301563+886735872+879862328+877248293+882570791+887762438+889718580
1724+889620038+889678381+888815377+883713369+878713073+881238278+885639901
1711+888006400+887787597+884701557+881373647+880643247+879717921+878142930
1697+877856476+877740465+880373453+884100119+885047028+882576726+876399588
1684+869552147+871857335+877798808+882291486+884115497+882743729+880026565
1670+877424941+878011203+881051580+881258108+878978010+879352687+881205228
1657+880482247+874010427+862541615+861520714+864143652+863535132+864869803
1643+869323361+871542890+869275810+861955487+854983131+860011351+868753489
1630+872955262+873492827+874290001+874862976+875277380+877852767+879872243
1616+880558262+884030647+887775051+888817131+889007606+890731050+893395469
1603+896404145+899198133+900718085+901930405+904250230+907066408+908763480
1589+909271637+910033266+910977950+911209838+911344802+911502497+909759897
1576+907627310+909908149+911623432+909826469+910799279+915712162+919032787
1562+918670117+911341835+898215745+899661032+907415589+914558859+920280855
1549+923578818+923794316+920390121+913591108+905678857+907481486+916514327
1535+920780716+921044237+923419437+925563693+923731926+921591447+921124906
1522+919906718+919941454+920843848+922738342+926760904+929658223+928842096
1508+921878575+918263672+930404271+940125424+941596881+937557119+934541496
1495+937177519+940345778+938166651+932670339+933141130+937810321+940231453
1481+940402637+942222061+944428977+941680382+933576982+928652026+930456274
1468+932326958+930723909+929326983+930872903+930185333+925248101+924496590
1454+929450212+933496044+936647171+939334388+940420579+939826222+939620639
1441+940914504+941671546+940364192+941574083+944850126+946118090+948083945
1427+952201677+955182092+956037677+954590232+948985125+943319381+944092544
1414+947293516+948487085+947464633+945273500+941227196+936629702+933752888
1400+929541402+923502938+920083703+919347772+920319368+921997352+920922223
1387+917114889+916252424+918598689+920474972+920779367+918912796+914759384
1373+912606427+915203667+918552082+920031970+920538643+920296705+919459399
1360+918541492+917643483+918277431+920484347+921515028+921245638+922019745
1346+923330540+922494650+918504800+912812482+909344482+910843727+914747513
1333+917903362+920541139+922944936+923319073+923066951+925519312+928668888
1319+928902395+927775195+927870432+930066219+934250320+937405023+938196936
1306+939722554+943519096+948317856+953120596+957613949+961632734+964632237
1292+966169052+966707156+967230017+969208620+972949854+976202829+978265203
1279+980679792+981964754+980358805+978193842+977872720+979408455+981000442
1265+980557103+978836289+978201531+979710489+982906807+986088489+987395507
1252+986820306+986714277+988120781+989771920+991348125+992893843+994008227
1238+994480097+993873870+992005883+990497397+991822828+994808639+996804036
1225+997641139+997361768+997263495+998439055+999175324+999328701+1000346972
1211+1002074463+1004090972+1006245345+1008049256+1008484906+1005973865
1200+1002289961+1001431679+1002767969+1003909670+1005296816+1007010953
1188+1008175250+1008688870+1008617037+1008526049+1009247816+1011211040
1177+1014373634+1017358298+1018540806+1016734265+1012963420+1011180419
1165+1012939543+1016636734+1019423437+1020274570+1020904337+1019903873
1153+1016931147+1015682945+1016836989+1018357953+1019725674+1021411887
1142+1022265448+1021993361+1022481756+1024693055+1027944074+1029284276
1130+1026897341+1024255112+1025088708+1028531416+1031870118+1032189419
1119+1028528313+1026604951+1029712642+1031236574+1027831503+1026762781
1107+1031487820+1034840213+1032978297+1031083533+1031820813+1032559104
1096+1031062489+1028322393+1027987983+1031128184+1033297531+1033356886
1084+1036216703+1040722399+1040317506+1037534782+1039317244+1044306276
1072+1048119344+1049789369+1051163228+1054010432+1056450787+1057549928
1061+1058498659+1059878926+1062157202+1064204804+1064743718+1063856230
1049+1063196381+1063552779+1061686614+1057849737+1056270430+1056374571
1038+1055685382+1055037876+1055496256+1056966566+1058582768+1059355390
1026+1058553630+1055183227+1052369275+1054688492+1058666269+1057940455
1015+1055154292+1056286955+1059009717+1058044056+1055625217+1055955985
1003+1057165067+1057048988+1056295656+1053282460+1049085476+1048747829
991+1052583761+1056337406+1056249184+1053557920+1051968159+1051053422
980+1049764548+1050646775+1054262083+1057154950+1057446260+1056084474
968+1056115501+1058910230+1060273702+1057614274+1054251156+1054193420
957+1056216066+1056952065+1054263904+1045231737+1037266000+1041367274
945+1051999185+1057569623+1058002710+1061029463+1069163620+1073741823
934+1068660993+1061407377+1059737014+1061722294+1062063111+1060738557
922+1060744493+1062785485+1066262321+1068897265+1066899170+1060333664
910+1054798433+1055668047+1061025079+1065644695+1069558868+1073185238
899+1073619471+1071104451+1069466329+1069361851+1067307639+1063019464
887+1060499857+1059380279+1055891909+1052041610+1051176380+1050962231
876+1049536774+1049404508+1051654995+1053099945+1049939914+1042587620
864+1036382963+1035853762+1038845509+1038495249+1034167954+1031256539
853+1029952691+1029609446+1030885707+1029204755+1023383745+1018792187
841+1018110282+1019382361+1017509855+1010698499+1004065206+1000866258+998156311
827+993669433+991855270+994469170+995144330+994026641+993746729+990092368
814+985304130+983985916+985260154+988804506+989893530+983867881+976788822
800+972581248+968661477+964252637+965367696+980381872+993148731+979153500
787+957364322+947176223+943912659+945049841+948157194+947138856+942460357
773+938366501+934544261+930862381+930850038+931723564+928373126+924386042
760+922551914+919075819+913854494+910901261+910320394+910837522+911928367
746+911420007+907621577+900980393+894880281+893932697+897810582+901480928
733+901019513+896541336+892827822+894618918+900051627+903378660+902202762
719+897609788+891817713+887672530+884925216+882795732+885100650+890620097
706+891532001+887662412+884677950+883587780+881669544+878908201+877813512
692+877280601+875295254+874038688+874508669+872869737+867390354+862659852
679+861081759+859698727+859783308+862999928+862491163+856081530+856033102
665+864218857+865940278+858130482+851416116+855070477+863409947+864143180
652+858216344+854689663+851182272+843608208+837811547+840237131+850112606
638+860187729+853615612+817022159+783536193+788794615+819485783+841371210
625+843030106+836805822+833562964+828462844+823323739+832531744+847058807
611+841526004+823084432+813772624+815505107+816461122+808563844+806982649
##END=
