##TITLE=Sample description
##JCAMP-DX=4.24
##DATA TYPE=INFRARED SPECTRUM
##DATE=25/8/2023
##SAMPLING PROCEDURE=Instrument type and / or accessory
##ORIGIN=Default
##XUNITS=1/CM
##YUNITS=ABSORBANCE
##RESOLUTION=4
##FIRSTX=4397.6552
##LASTX=599.8556
##DELTAX=-1.9287962
##MAXY=2.0035219
##MINY=1.2481959
##XFACTOR=1
##YFACTOR=1.8659252e-009
##NPOINTS=1970
##FIRSTY=1.3115494
##XYDATA=(X++(Y..Y))
4398+702894966+704449923+706282217+709724986+714144596+715933509+715196950
4384+713467260+710834904+708846469+708573159+710133930+712383920+712151561
4371+710177629+711307224+715565517+717331368+714128943+709285313+706940322
4357+708128246+709539074+708776193+708707258+712525559+718186502+721036843
4344+719226143+713676620+708936934+710552840+716256269+718892331+717867001
4330+717279427+716852723+714448317+712407367+712304508+711129808+708505182
4317+707398459+708149265+708505821+708127160+708843211+709877166+710972198
4303+714358746+717400302+715854033+712023467+711220401+714668601+718763789
4290+720356632+718892012+716614614+717329643+719516512+718418733+716260358
4276+717160085+718017583+715570309+712808900+713271828+715514216+715900991
4263+715716675+717378708+719196883+720415026+720963755+720625407+722026077
4249+724410166+722368258+716013944+711237267+710792866+712031900+713124121
4236+715927312+719376534+719850580+718910731+719534145+719863676+719575352
4222+720896354+720992505+717761906+714888693+714402957+715167562+715803945
4209+716023335+716690321+717104950+716383022+717233364+721340883+725430897
4195+726508040+724823007+722623552+721687537+720992952+719281214+717459271
4182+716728717+717000878+719422342+725161867+729159882+726161450+720171103
4168+716897891+717189026+719314180+720802695+722142096+724431185+724766275
4155+722585412+720909706+721272204+724453035+728881780+729513563+725043483
4141+721317628+722757908+726398409+726463766+723688493+723860031+726719635
4128+728643543+729285804+728017063+725627734+725014159+725774675+725664533
4114+724347493+722683479+722147654+724062682+726157298+725221282+724142222
4101+726042556+727179114+724483829+722064984+724081529+727580967+728191284
4087+726944392+725409047+724745065+726597674+728384544+726988538+722872075
4074+718514436+718294025+722107533+723424829+720900571+720434000+723898172
4060+726714908+725958033+723588318+722086642+722050865+721760880+720025440
4047+718711274+719801322+723289324+727334425+729387386+728357072+726012209
4033+724537302+724296574+724875906+724824413+724001414+724226234+725665364
4020+726737588+725777678+724375539+724285841+724150719+724869326+726835591
4006+727707719+727817734+728418021+729709826+731657947+732966746+732255423
3993+729629136+727500916+728600100+730483887+729339087+727104174+725984865
3979+724865109+723945385+725035497+728234088+731830443+734347547+734486886
3966+732359815+730487273+730573840+731619231+731990418+731836832+731288677
3952+729670024+728836931+730378153+731754162+731072227+729883153+731328927
3939+735259796+737863979+735985750+729621661+725028214+726324811+727530495
3925+726092196+726509509+728957742+731085324+733798051+737745020+741639794
3912+743165874+741141152+738329782+736869889+735471136+733352052+732059672
3898+732957419+734487652+734709342+733340808+731290402+730647886+731357612
3885+731420669+729126597+724849840+724479676+729826868+735663246+736719945
3871+730480373+725254056+728823898+732404792+731017156+729727523+729634311
3858+729976045+728637602+723173815+725175794+733315636+737608109+736892122
3844+735267080+736931924+737145692+730209043+725713471+729896697+736823699
3831+740726777+739958402+736913460+735156746+733332119+730664113+731654625
3817+732016292+730938382+733636287+737296849+738004467+734768821+732415461
3804+733714805+734646668+734608336+733831080+732806772+734979458+738691386
3790+740625196+741107100+740326714+738262892+737688927+738790411+739529653
3777+741050751+744522781+747691089+746482913+741901285+738738023+737161344
3763+737501545+738756487+739113938+741134443+745492593+746217013+738080941
3750+733157259+738479215+741746741+740219319+742922143+747771460+747886905
3736+741686304+736414499+738843630+745848894+749974237+747268985+743013247
3723+742721281+743542874+743594559+743810882+743661961+740640401+735178979
3709+735265482+741190281+746614266+746956064+744248831+745536356+750208640
3696+752997138+750680002+743275888+735054143+734081264+738993254+743759708
3682+746458827+747088567+745682467+739627274+733645296+734938059+736374953
3669+737400730+742746453+747268090+746449372+743111761+741090361+739351791
3655+738567444+738991401+734289409+723529860+721849428+728303598+732289667
3642+729604284+723229142+720419945+722729286+726677214+729380358+725642428
3628+716319837+714126451+716062307+717874220+717693099+712574560+707619191
3615+705697135+704483848+704020216+703402744+702093241+701459158+700449416
3601+699194155+698876762+697395786+694639615+694371735+696263060+696489478
3588+694501426+693254534+693912192+695012526+694157839+691850031+689662971
3574+687934942+688556950+689920310+686585829+680572547+680099076+682972417
3561+684571584+684295335+683213847+681360535+678515816+677868189+680930061
3547+682279812+679195579+677285790+678795388+680274000+679111631+676968014
3534+676305181+674858896+671491833+670424209+672944763+675493171+675219094
3520+673051135+672531347+673924669+674364918+673963513+674216060+674093460
3507+673599290+672687680+670064906+668942083+671645547+675352235+677171304
3493+675741694+672823440+671930613+673152333+674563991+675206252+674784148
3480+674783062+676063048+676837045+676229794+675192453+674912881+675268159
3466+674519909+673112084+673292886+675064869+676929873+677659660+677488186
3453+677968876+677885183+674996829+672371820+673178208+674512562+675216283
3439+678329265+682680834+683242661+679685724+676421137+676623277+679998709
3426+683481025+684098178+682411612+681717155+682787526+682974269+681181778
3412+680399028+683854000+688431667+688198925+684719420+683551301+685410619
3399+686741076+686352001+687052975+689918521+693230960+695366399+696043223
3385+696535413+698570421+701268901+701324036+699875131+700937453+705082921
3372+710697546+714753635+716246175+717677446+719777173+722556407+726079035
3358+728604380+730537872+733977958+737284711+738337896+739828902+744531661
3345+750059782+753456872+755932385+758333405+758738452+757898395+760074339
3331+764994251+767662065+768231814+769849573+771384598+771688575+773209992
3318+776650014+778638960+779060170+781038957+784277351+786368388+786028890
3304+783383564+778973411+775695790+776255125+777667231+776862632+775717384
3291+776684513+778806792+779831484+778986507+775393475+770040980+766374477
3277+766276282+767675801+766147165+761804924+758609846+756356087+752440422
3264+749470548+751029020+754716606+758157011+761455587+762619361+760905196
3250+760342347+763017317+763570263+759443131+755547335+753597169+753411959
3237+754881052+755394452+755099739+755278305+754302615+753187267+754122580
3223+755724303+756894403+757058466+755409338+754590939+756906158+758457858
3210+755898525+753313317+752744271+752104821+752652912+754163596+754429623
3196+755536857+758337430+759196461+757143308+756069360+758023359+759662776
3183+758683444+757806269+757665525+756499003+755027866+754162510+755686162
3169+760683570+764826674+764651687+763245267+763906631+764251176+760735319
3156+756867506+758228310+762215209+763890659+764449419+764743748+764139500
3142+764401120+766376904+767828428+764881043+760122894+761113789+765383198
3129+765384284+762818371+762710273+765239963+766433828+764014473+761246100
3115+761532507+764480468+767274268+768717551+769894614+770146778+768541221
3102+766338572+766167098+769370289+773438964+774993858+774024941+772885954
3088+771852957+770243567+768877972+767589745+767741669+770963899+773732080
3075+772689628+770343871+771217532+774156868+773691512+770458932+769083626
3061+769595620+770483529+772313778+773604625+771506559+768207984+767845231
3047+770554125+773862539+775286591+774346934+772834461+771565783+770358565
3034+770951952+775010916+780191106+782572960+781325237+778785262+777749326
3020+778615704+779647040+779442089+778303231+777708630+778381685+778834327
3007+777266848+774848131+774463209+777229282+781023049+782433366+782015094
2993+783067130+785250740+785949031+785481183+786573914+789952349+793294176
2980+794702896+794234664+793798057+795120336+796740268+797906534+799809870
2966+801432996+800867528+798038781+795137267+793217000+792082614+792867663
2953+794528930+796241243+799584603+802369523+801126464+797654562+795478681
2939+795143591+796042616+798264496+801482253+804152751+804766326+803324705
2926+800665005+798531865+798263729+798426451+798018912+798330108+798693884
2912+797638782+796657022+797018881+798289156+799199170+799093117+799083342
2899+798750424+797776587+797451272+796949883+795768858+795687977+796918578
2885+798004665+798784029+799427759+799913304+801033955+801764444+799891135
2872+797220063+797346688+799941670+803265928+806341984+806701095+803569138
2858+800245775+799363872+799647277+799770260+800690240+802092762+803282092
2845+804396482+804012390+801911961+800808560+802087587+804812006+807443212
2831+807823982+805619352+803714930+805178081+808989290+810608902+809132270
2818+807232064+806480747+807455543+809100071+810126934+811091636+811485374
2804+810263334+809905245+812186987+814528336+814579126+812303134+809613215
2791+808945016+810205580+811975583+813960823+815989890+816319997+814507956
2777+813309618+813848317+814935555+816226082+816797747+816067194+815926514
2764+817244513+818683195+819585734+819862047+819117502+818402154+818740566
2750+818978483+818974139+819408638+819750564+820049877+820796019+822115743
2737+822938741+822027195+820557271+820419530+822103668+823955000+824182056
2723+823542478+823191416+823269040+823729157+824526473+825348003+825768702
2710+825722447+825187262+825194737+826530305+826875808+825219014+824870508
2696+826868397+827881206+826864500+826412943+827305005+827681877+827309604
2683+827949054+829787417+831694778+833135505+833428493+832209584+830923528
2669+830636610+830147998+829076349+828933241+830241913+831882352+832292382
2656+831326850+830857980+831882288+833165852+834258009+835520681+835703080
2642+835266409+836148759+836801178+835662256+834037724+833185274+833930968
2629+835000701+834061554+832922888+833969684+836261329+838212581+838166965
2615+836194439+834626448+834513559+835294072+836065322+837145085+838684070
2602+838819065+837697711+837929112+840087232+842095663+842340544+841776736
2588+842139937+843264676+843679242+843567439+843528659+842703744+841885217
2575+842271481+842646756+843201619+845199892+846163060+843638546+840433118
2561+839971723+841526042+843246915+845167565+846523066+846419824+846260872
2548+846366606+846319137+846961462+847607365+847124120+846354723+846088887
2534+846386922+847002222+847135939+846986889+846938271+845886491+844361688
2521+844957312+847430716+848906389+849031545+848850296+848062180+847447135
2507+847948332+849229788+850794201+851479905+851170051+850549512+848994299
2494+847608643+848468249+850363535+851163087+851348489+852293641+852930407
2480+851346700+849359160+850186375+853547305+855969599+855353149+853971071
2467+853343440+852242978+851390846+851611067+852554876+854665655+856100121
2453+854793814+852797138+852338426+853269458+853731109+852549765+851707984
2440+852131750+852193401+852146571+853017486+854200299+855106735+855622499
2426+855651503+855149220+854353757+853788800+853437099+853646267+855319480
2413+857617002+858447731+857354489+855857860+855447447+856501271+858331520
2399+859740942+860272806+860087532+859253608+858503633+858800326+859930305
2386+860998248+861026742+859255972+855889995+851532165+847255281+844704253
2372+843015004+839227625+834837213+832593548+829659962+825675682+823846135
2359+824113952+827046707+832513624+837787346+842803856+847734245+849366315
2345+845832826+841431105+839172043+837906048+838478928+840219479+840858162
2332+840682919+840114256+840168433+843615738+848662786+851057354+851343250
2318+852531238+856019687+859108584+859061307+858394385+859802402+862711711
2305+864532121+863498038+861620384+861446355+863356655+866041719+867327774
2291+867225746+867183452+867070755+866386967+865382464+865227728+866691263
2278+868135568+867341063+864765566+863573297+865178854+867618845+869358119
2264+869775815+868671456+867380801+867011531+867462002+868215810+868657848
2251+868569619+868028811+867763231+869458358+872734573+874456469+873725085
2237+872868800+873364951+874413600+874768048+874791303+875053242+874593060
2224+873520900+873264136+873696335+873745145+872983095+872205584+872843629
2210+874723199+876315659+876597786+875504351+874086816+873622417+874409511
2197+875987341+877212959+876903424+875888507+876091030+877284321+877909907
2183+877410499+875915915+874535817+874716235+876126232+877189192+876836214
2170+875679467+875382390+876260524+876671831+875665859+874707738+874911986
2156+875495982+876058000+877221647+878673938+879202671+878841834+878422860
2143+878324409+878332012+877991364+877336261+876623788+876886685+878744022
2129+880926803+882623271+883330889+882217394+880690611+880650809+880973121
2116+880695083+881487479+883335808+883878086+882603338+881382704+881295242
2102+881171236+879745331+878002416+877923004+879491570+881710894+883871761
2089+884643202+883969572+882928526+882347916+883245663+885233331+886413269
2075+885635950+884002475+883748522+884871856+885244831+884382925+883664893
2062+883604583+883870611+884014677+883950726+884437101+885646555+886951649
2048+888023681+888486099+887637481+886102712+885437004+884970306+883882685
2035+883588164+884575098+886089232+887875335+889561134+890490569+890300312
2021+889006335+887496098+887095013+887153470+886284728+885521591+886458438
2008+888687025+890226650+890050704+889207772+889048501+889287312+888574583
1994+887339766+887075080+887977810+889450097+890708681+891160941+890986081
1981+890970492+891213712+891191351+891656133+893148992+894492226+894464435
1967+893096604+892170044+892948257+894181094+894770009+895074050+894892482
1954+894542378+895440061+897070790+897783774+896869608+894415625+892088204
1940+891714270+892451085+892814541+892594832+892491909+893390039+895288201
1927+896827634+896580645+895109060+894439008+895020384+896257949+897555440
1913+897855967+896571892+894930750+895138896+896888199+898433127+899329660
1900+899092382+897787799+897244755+898167163+898773711+898221723+897945090
1886+898444626+898965757+899734834+901077622+902366744+902773132+902673723
1873+902560131+900695511+896976939+896351289+899038716+901142595+901543489
1859+900544033+900177064+902080592+904394341+904754603+903202648+901560036
1846+900761762+900371409+901187317+903487778+905707932+906288542+905387153
1832+902983386+899364862+898265103+899611851+900317872+901554798+903617214
1819+904737353+905337640+905730165+904389677+902369491+902609197+904712437
1805+906795872+907685761+906582552+904447943+903364794+903443248+902678259
1792+901275801+903246347+906594691+907912498+908463528+908669118+907329333
1778+906739651+907733293+906465893+900784123+897736753+900790384+905183799
1765+907332974+905855576+903677524+904226253+906673783+909630305+910252186
1751+907059728+903235614+902205747+902438426+903059859+904478353+905720710
1738+906409225+905153452+900197827+898309568+901466186+905792775+909683651
1724+912008134+912482818+908757666+898270661+891289482+897395338+904702982
1711+907804847+906991687+902821048+899117170+898352692+895581572+890784196
1697+891481720+896387449+901353616+903803254+904594309+905566613+903134608
1684+896461942+897154227+901310492+902171951+899016356+895767868+894784320
1670+893532508+895543431+901284106+903310937+900413192+899311133+900495096
1657+899391439+892409366+881187208+881554753+884252658+882313736+883066267
1643+887361360+889026779+886736284+880869559+876557856+881590402+887632754
1630+889588286+888814289+886473835+884077990+886657000+892164805+893894559
1616+893941900+898107237+903108861+907579197+912171750+915649210+917186982
1603+916664829+915793532+917164110+920428633+923106670+923255464+922372347
1589+923380427+926115260+928243672+928900371+929237761+928271782+922660990
1576+917497220+921417676+925231184+924489259+926476543+930298293+929697623
1562+925475299+915397238+903720073+911019027+921960656+928495260+931704393
1549+934098961+934722183+930573776+921415184+910127733+912242665+925064310
1535+931941096+932575563+934308192+937132978+936268772+931508961+924591734
1522+919279681+923112228+930942663+936510650+939986321+941221650+939024559
1508+930262964+923390841+934190320+945955905+950043108+946244485+941589514
1495+942669788+943214620+937338759+931301008+934893274+942547124+948174782
1481+950163855+948973759+945368587+938620662+929830765+927041564+931012428
1468+932411181+930472834+932734643+937620950+935905891+925686191+920837002
1454+927946275+934531926+936850595+937123203+940308570+946045092+949731337
1441+950188579+948395193+945055986+944946163+948207684+948731625+947593597
1427+949202987+950412569+949633014+948770596+945814330+943510483+945646689
1414+946985452+945995643+944764595+942789321+939615646+938112820+938995809
1400+938819097+935654110+929486603+923520661+923170302+925480921+923648180
1387+917883292+916183245+919828730+923085842+922978703+921001704+920009851
1373+922025949+924981384+925703569+923932671+920957558+918833682+920615121
1360+924582662+926915898+928232300+928841850+928810673+929376844+929647471
1346+928993775+928218819+927011793+924461212+921943662+922559473+924903442
1333+925751292+925336343+925694113+927429425+929359850+930966940+932253698
1319+932079732+931513370+933385401+936493911+938286594+939442383+941205358
1306+944809508+950162641+954262621+956660063+959614349+962890883+964792622
1292+966325028+969768308+973144762+973684420+974093683+977056211+980448445
1279+982033749+982677096+982965037+982215893+981046112+980894891+981344914
1265+981249786+980921021+981137855+983191582+986359188+987351936+986786404
1252+987736219+990758098+994013166+994413421+993181990+994974673+997940714
1238+998361668+999369366+1001552913+1000472192+997155281+996050091+998305320
1225+1001352242+1001183451+997665550+995024122+996897239+1002061393+1004778656
1211+1003363037+1002124450+1002215043+1001667335+1001727198+1004572236
1200+1008143228+1008951468+1008618487+1010469755+1012049820+1010658989
1188+1009528756+1011251801+1014326323+1015869079+1015073807+1015108115
1177+1016940727+1017852019+1017837197+1018234577+1019196276+1021362062
1165+1023836488+1025248849+1026366050+1026338834+1025441534+1026531007
1153+1026276671+1022253101+1019258310+1017708464+1017091821+1020393655
1142+1026063159+1030151767+1030268362+1026888202+1025024732+1026087820
1130+1027028627+1029897303+1036711033+1042173989+1042023278+1037706017
1119+1032106916+1027236261+1024441183+1022945002+1020109867+1018935806
1107+1020723953+1019150915+1017869716+1023315997+1029701105+1033537294
1096+1036785078+1038561215+1038130293+1036321766+1036657751+1041057171
1084+1044611552+1043955300+1042711091+1044980694+1047880803+1046736259
1072+1044301059+1043906937+1047254259+1054289358+1056226171+1050028637
1061+1046949387+1052173212+1059411921+1064093150+1065343939+1062477499
1049+1059444504+1057329061+1052272302+1048454130+1052952448+1063682673
1038+1070101641+1066664813+1060457312+1054918458+1047703324+1043075633
1026+1045901313+1054327307+1061845843+1063133815+1061141036+1061626837
1015+1065555726+1069789551+1069578147+1065236417+1059944679+1052892777
1003+1046571237+1046353956+1049416531+1048643748+1044472214+1042756259
991+1045260905+1048123129+1048974429+1050353058+1052393560+1052448376
980+1052200301+1053215920+1053893192+1054835085+1057019462+1059818374
968+1061386237+1058537557+1052886261+1050589250+1053168452+1056745257
957+1058008377+1057297181+1053154588+1043572294+1036958533+1039935818
945+1046174560+1051539129+1056554681+1058472903+1058354328+1060327174
934+1063605049+1064820317+1064797382+1064406838+1060908678+1056999913
922+1058011124+1061750332+1063962819+1065225620+1066378981+1067811977
910+1070996961+1073741823+1071816446+1065264719+1059538483+1059608375
899+1063902446+1069220505+1072745178+1070462158+1065534069+1065929149
887+1070016351+1068962335+1063594508+1060926758+1059202498+1054726923
876+1051701020+1053671183+1056676578+1055907628+1049939961+1039831490
864+1030572850+1027975759+1033491231+1042974052+1048522553+1046511758
853+1041719812+1038181020+1035468038+1033073087+1030554067+1028156816
841+1026499064+1024042270+1021305393+1020700187+1018192603+1011219219
829+1009240240+1016385673+1020380622+1011121599+998183103+995090245+1001516753
816+1010442922+1015223943+1012895307+1008409766+1003843088+997620062+991599241
802+986752608+983496006+985238793+988327626+986674473+989466293+996821085
789+993481814+983872495+978048128+972184469+965611852+962992848+961174673
775+955978192+952839016+954795060+957343723+954902966+946891537+940794498
762+940154729+940471738+940362299+939895281+936419738+932620476+931955791
748+930982401+927926087+925516314+925423997+926425881+925359087+923192279
735+923581098+923402277+919624737+917874092+919526095+918873420+915942453
721+913925014+911262694+908935081+911289783+913672850+909816856+903660785
708+900001245+900600127+903856089+906222099+907938053+907783190+902131382
694+892881495+885522869+882826817+885015283+888808348+887409595+881938972
681+880208004+883373566+886682811+886287539+883979411+881907987+878015449
667+878242314+887728202+895892129+895048623+885566824+879213851+884896005
654+890811604+885136414+879343032+883435409+896357294+905439413+895213836
640+875675953+861510754+848307125+824554137+805477458+816484124+846478345
627+870967572+877372294+873354729+881194236+886114467+878778394+881727952
613+874118568+855635851+860557935+877260427+866661491+833334451+809610212
600+806853786
##END=
