##TITLE=Sample description
##JCAMP-DX=4.24
##DATA TYPE=INFRARED SPECTRUM
##DATE=25/8/2023
##SAMPLING PROCEDURE=Instrument type and / or accessory
##ORIGIN=Default
##XUNITS=1/CM
##YUNITS=ABSORBANCE
##RESOLUTION=4
##FIRSTX=4397.6552
##LASTX=599.8556
##DELTAX=-1.9287962
##MAXY=1.9351293
##MINY=0.61625773
##XFACTOR=1
##YFACTOR=1.8022296e-009
##NPOINTS=1970
##FIRSTY=0.72944951
##XYDATA=(X++(Y..Y))
4398+404748382+405551586+406436546+407424296+407777877+406766711+405804824
4384+405755579+405520663+404850610+404785986+405260149+405038695+404185683
4371+403850788+403872881+403475512+402818192+402441097+402457004+402667082
4357+403241820+403854889+403799658+403719754+404166864+404652967+404992128
4344+405144825+404964314+404304844+403348546+402946415+403212121+403285509
4330+403244334+403557202+403857767+404155554+404667222+404976683+405112347
4317+405418568+405379410+404337454+403049800+402877094+403667334+404294558
4303+404415869+404562844+405268848+406232025+406805605+406826441+406213107
4290+405295438+404969209+405345345+405683050+405700678+405699719+405403487
4276+404532913+403834847+403413865+403139096+403787024+404852264+405170324
4263+404641822+403429673+402218054+401956846+402694037+403158345+402384079
4249+401935944+403127389+404805499+406178943+406832030+405926168+404696855
4236+404634843+404699038+404119537+403217148+402289392+402265778+403201538
4222+404244288+405048319+405120715+404731515+404628427+404379489+403804751
4209+403720746+404446594+404834437+403935521+403016099+403247443+403899736
4195+404185815+404032225+403569339+403319177+403873146+404601771+404490150
4182+404074062+404250274+405094091+405965558+405736496+404571212+403886375
4168+404211446+404817703+404849618+404406708+404179994+404242601+404103199
4155+403811663+403847382+404202947+404639837+404858911+404559405+403898810
4141+403377121+403468865+403871260+403904995+403885647+404133263+404062917
4128+403648747+403475248+403392963+403270362+403468236+403617626+403597881
4114+403960458+404351972+404372643+403765295+402549244+402390032+403691709
4101+404515583+404357760+404361332+404655977+404506654+404166600+404254606
4087+404708100+405179419+405010748+404281428+403697265+403143363+402733856
4074+402835489+402916186+402726812+402749367+402965299+403047386+403144884
4060+403500647+404020716+404464354+404639771+404782811+405372894+405721117
4047+404962594+404455887+405360128+405943101+405017793+404081173+403890112
4033+403521682+402890621+402478832+402004007+401447360+401763039+402935765
4020+403785800+404150229+404201392+403744856+403283657+403315804+403466616
4006+403147298+402485414+401950033+401787315+402222717+402955146+403371631
3993+403770554+404404591+404486512+403703218+402829073+402901204+403712346
3979+403787686+403293612+403454246+404102902+404445866+404065463+403535638
3966+403619511+403713040+403172103+402811478+403325825+403950966+403787553
3952+402918237+402152768+402352693+403380957+404219814+404104688+403478654
3939+403198660+403114457+402660832+401689353+400868819+401051480+401944510
3925+402639136+402851000+402852620+402606295+402383153+402910762+403975770
3912+404644898+404639606+404060668+402308376+399703667+398476967+399102008
3898+400547617+401879323+402218352+401464690+401201134+401782685+401689387
3885+401086405+400627917+400197013+401041525+402312377+402443246+401795881
3871+400178922+398535505+398557168+398532231+398879230+400666017+401424276
3858+400161493+397219674+393526641+394859439+399435811+402629148+403534415
3844+402483893+400276817+397362746+395137680+396057862+398470617+400550064
3831+402460014+403345669+403088991+402741265+401118650+398335911+398524459
3817+400000925+400858104+402571205+404379224+404161672+401534408+399383556
3804+398334390+397879078+399763926+401848069+402925215+404257914+405592563
3790+406054623+405657750+405161692+405206638+405118598+404020385+403368720
3777+404463725+405501746+405015974+403442605+402545805+403021556+404269820
3763+405615681+405936718+405219635+404896779+404789690+403319640+400695617
3750+401270057+404791972+408019142+411087861+414365435+417230525+419009672
3736+419018602+418581017+420495497+423588227+425063139+423985894+421766615
3723+419939380+418331979+416938195+416159828+415760211+415258564+416412339
3709+421202625+427050115+432037680+437212967+444712802+453431236+461215894
3696+468190138+474096894+477315664+478058080+480016945+481983945+480866418
3682+476978090+471201939+463357155+452956510+445767359+443932551+440783366
3669+437282981+436393259+435446949+433767847+432387259+431007630+428245595
3655+425093797+422750925+418873545+413868252+414318471+418106555+420758062
3642+421765259+421974807+421969946+421338951+419922777+417889201+414070194
3628+410101500+409568467+409057097+405743474+399765182+394485982+391941631
3615+389684781+387890023+388204809+389059012+388878038+388430035+387510117
3601+385591833+383897120+383133702+382527215+381834969+380882144+378349104
3588+374350380+372294910+372100310+371348898+369787303+368070762+366438425
3574+365111183+364268424+363547505+361828285+359258899+358242607+358298632
3561+358000018+357440097+356956971+356028983+354148203+352338629+351751125
3547+351961236+351769811+351096947+350818144+350858393+350791090+350340805
3534+349320247+347846791+346421952+346040358+346680382+346869260+346214023
3520+345843179+345917129+345515064+344479227+343642454+343570487+343765418
3507+343780400+343689218+343354522+342859225+342552443+342687280+343111868
3493+343251335+342845897+342221848+342088102+342648717+343259207+343260397
3480+342747836+342428321+342420648+342424749+342505777+342586938+342579463
3466+342753822+342925569+342507728+341941854+342078709+342509944+342690521
3453+342715491+342659268+342702064+342965389+343460388+344144564+344555195
3439+344229528+343637724+343910376+344980741+345410984+344880994+344576956
3426+344919788+345407446+345871026+346206549+346443879+347067333+347978685
3412+348574391+349155941+350139557+350956818+351523783+352298644+353411310
3399+355009682+356475333+357128221+357694492+358763668+360128877+361600613
3385+362867860+363991870+365602214+367839419+370321229+372653485+374706937
3372+376908787+379490212+382007642+384141627+386449475+389762369+393544599
3358+396742302+399517964+402559828+406192271+410037339+413686848+417332455
3345+421366236+426002867+430369393+433622459+436519663+439487146+441810009
3331+443563955+445670952+448280324+450580532+452058552+453428557+455329213
3318+457044597+457917022+458163381+458301327+458714372+459527697+460771430
3304+461599670+461294409+460866547+460219148+458241895+456349342+455569917
3291+454514930+452683561+450497024+447876639+445261677+443224430+441122163
3277+438657484+436592357+434940176+433585021+432603290+431470549+430218945
3264+429175897+428032739+426992469+426409132+425497483+424054354+423076758
3250+422491436+421433242+420219671+419775273+419776066+419170604+418031976
3237+417212467+416821647+416287688+415338037+414412001+414149205+414204337
3223+413727329+412810785+411986017+411286265+410514182+409795049+409415704
3210+409347806+409382003+409431943+409573131+409819423+409817869+409553089
3196+409581134+409628594+409104490+408360122+408061112+408286172+408538252
3183+408451403+407867537+407515346+408225913+408674478+407879840+407329510
3169+408240796+409770409+410172508+409317247+409171595+410195890+410401007
3156+409414580+409143913+410638436+412490443+412502878+410985468+410903580
3142+413570300+415528933+414196268+412330404+412652565+414331667+414835200
3129+413484443+412790214+414820846+416968820+415994928+414237476+415410202
3115+419140508+420881787+418063329+414851968+415645515+418532003+418236895
3102+414840194+413400373+416222997+420087711+419804807+416517212+415861049
3088+419405354+422357558+420264088+416785101+416786755+419518992+420874279
3075+418916506+416701824+417155218+419556298+420201249+417688847+415496059
3061+416117528+418503097+419166768+417246301+415905301+416317255+417213426
3047+417404289+416812783+416175935+416105192+416622119+416760264+416082802
3034+415526684+415959242+417136565+417957331+418105199+418432950+420664598
3020+429135383+444703641+456019243+453216759+442876439+434196205+429278588
3007+426714724+424954329+423520428+422722549+422573655+422634344+422967121
2993+423828864+425462293+427154228+427284964+426553726+426944613+428905197
2980+431114654+431239172+429504045+428558430+429436378+431132910+431525748
2966+429945070+428559422+429081805+431560904+433769600+432685806+429825082
2953+428789178+430648890+433854398+434943053+433275295+431847214+432331664
2939+434142627+434885176+433191985+431289972+431247937+433252904+435803242
2926+435992715+433816695+432036060+432126117+433422468+433431464+431407149
2912+429705061+429723615+431141343+432471925+432182870+431098712+430895613
2899+432236712+434322146+435014920+433843716+432566315+432338311+433186428
2885+434223920+434267543+433584525+433329435+433873746+434618841+434597774
2872+433784879+433430836+434138724+435065488+435489745+435446618+435245404
2858+435281751+435531814+435581720+435278410+434682473+434016918+433827841
2845+434288345+434874427+435317602+435659011+435861086+436241025+436970841
2831+437647906+438030888+438107022+438087013+438461991+439063650+439253554
2818+439191906+439324792+439479308+439446268+439555673+440129286+440759256
2804+440974460+440959478+441063855+441529156+442181019+442580372+442854082
2791+443248077+443620344+443946243+444355716+444710983+444901747+445238163
2777+445698535+445817597+445742323+445956965+446205606+446031544+445867404
2764+446207359+446805876+447491242+448134242+448335556+448160171+448099152
2750+448389431+448933874+449447461+449708471+449922385+450276329+450432300
2737+450394300+450585196+450832348+450915923+451126232+451515597+451936018
2723+452492632+453068296+453291867+453215932+453230848+453495794+453861347
2710+454320661+454905916+455407298+455750163+455834928+455681669+455879577
2696+456649973+457275576+457307392+457318373+457651051+457952740+458034298
2683+457960513+458225524+459024429+459383334+459029985+458916645+459172628
2669+459506133+460103030+460666159+460892939+461039550+461003964+460647109
2656+460412128+460625347+461151005+461634231+461756203+461862830+462348304
2642+462684356+462670432+462815159+463213222+463635759+463898191+464156192
2629+464684793+465123172+465127273+464920271+464768434+464939784+465485649
2615+466059758+466438342+466695846+466888660+466967506+467077274+467387662
2602+467874261+468559494+469247242+469467638+469168264+468897729+469030648
2588+469323144+469450143+469428414+469511063+469841955+470405019+471083737
2575+471460039+471234483+470811945+470762270+470936894+470907063+470856990
2561+471185204+471766755+472164289+472232717+472087627+471861938+471819142
2548+472214692+472915470+473492887+473680905+473560686+473576726+474047582
2534+474595763+474814572+474870663+475007055+475256754+475623531+475946453
2521+476010184+475917547+475863672+476045605+476485274+476810213+476872324
2507+477002763+477464590+477993820+478230224+478312046+478389337+478381730
2494+478411495+478715070+479260770+479713304+479857204+479911873+480100883
2480+480338875+480490844+480483270+480476623+480791905+481328642+481703158
2467+481949649+482248329+482297078+481957255+481751477+481979083+482231032
2453+482173584+482120502+482489925+483280958+484005979+484159701+483900377
2440+483732136+483913176+484242052+484416146+484511826+484628374+484779715
2426+484991149+485250638+485681244+486204455+486450284+486462290+486502407
2413+486407422+486279265+486614457+487319237+487918780+488205520+488261645
2399+488338605+488863403+490506390+494133839+500906671+511990928+527831739
2386+547885386+570685558+594263964+617367115+639991306+662542738+685852461
2372+710718455+735270389+756472454+774853878+789730122+796696561+798828098
2359+801331704+796890830+780266626+758841982+738854481+727204547+730911999
2345+745720246+752828303+746035099+736765938+729097696+723495639+723620588
2332+728379489+730709793+729129578+727942730+728108160+726391421+719935625
2318+708727543+696839353+692010933+696362577+700798952+695997983+681860252
2305+664441972+651002738+643214839+636751304+628842094+619285134+607631562
2291+595096867+583914648+574349090+565789273+558270718+551838007+546535291
2278+542434472+538995933+535494259+532046560+529246888+527044608+524949385
2264+522967038+521346872+519963473+518710083+517755769+517039745+516165500
2251+515125859+514350568+513889733+513617478+513527322+513340329+512922422
2237+512653772+512678940+512636706+512485895+512510402+512673682+512767608
2224+512735065+512747963+512992900+513353194+513619396+513939540+514476278
2210+514992278+515459100+516031688+516538759+516776023+516745364+516721916
2197+517048410+517702621+518387028+518880407+519151207+519359466+519636780
2183+519832339+519985201+520428211+520949106+520951289+520559179+520457877
2170+520815955+521305795+521703528+521973864+522128678+522102683+521844782
2156+521436135+521049416+520930188+521200723+521593065+521700353+521537602
2143+521548384+522022878+522693395+523063478+523218060+523725793+524459577
2129+524838657+525097120+525649699+526168875+526355769+526471623+526809031
2116+527280846+527657677+527955927+528208867+528311855+528405054+528625782
2102+528829741+528930944+528992624+529278439+529996779+530698483+530770317
2089+530479971+530499252+530817974+531070617+531345220+531864660+532385489
2075+532853898+533561423+534324973+534867829+535239070+535490853+535788276
2062+536492196+537452099+538063514+538445669+539066974+539848945+540534840
2048+541204861+542153320+543207348+543996662+544567464+545173257+545799820
2035+546186076+546440802+546640958+546752480+547153784+547741156+547918756
2021+547699120+547479914+547360819+547304463+547315113+547335585+547433910
2008+547657416+547678946+547224196+546787537+546953231+547387079+547662840
1994+547804953+547814842+547796486+547896002+548055777+548191209+548427514
1981+548900818+549448138+549763288+549714175+549715201+550141210+550547740
1967+550559448+550585046+551042574+551949859+553052272+553726062+553719679
1954+553660082+554006684+554462360+554702766+554776750+554847658+555294305
1940+556203672+556983924+557555355+558130291+558565065+558834872+559098528
1927+559306423+559184054+559112816+559551625+559855497+560134035+560950336
1913+561518724+561475333+561568267+562291237+563415114+564438384+565000290
1900+565109298+564938907+564797753+564775858+564503273+564327392+565041697
1886+566144209+566917317+567498537+567971808+568126985+568099337+568274093
1873+568483840+567987088+566870090+567060125+568789895+570272810+570852707
1859+570840669+570718432+570805744+571023429+571296742+571634943+571644204
1846+570814607+570282401+571521107+572935495+573379530+573546481+573701327
1832+572763649+570865936+570397163+571450596+572681497+574137755+575481367
1819+576294097+576595654+576374331+575739930+575368325+576016881+577058010
1805+577496290+577286278+576633290+576197127+576593405+576647710+575430634
1792+575015902+577091745+579115465+579619228+579192855+578810600+579080540
1778+579721026+579442091+577459712+575146605+575987380+579262109+582015943
1765+583005942+582471685+582015017+582263327+582658876+583438797+583631413
1751+582129911+580446840+580875595+582511438+583472333+583155695+582648889
1738+582630368+581635342+579890160+581259768+584398700+586823262+588100729
1724+588236922+587662185+586001272+582277548+579910136+582974324+586808247
1711+588557992+588244728+586439883+584712627+583872646+581899328+579246366
1697+579963251+583753848+587290447+588834282+589045352+588066532+584670360
1684+581248920+583629363+586933791+587718342+586438957+585041700+583668719
1670+581886827+583024992+585984868+586652011+585779751+586240917+587053646
1657+585979246+581869298+577629176+578927612+579000702+577876097+581129197
1643+585532566+587376436+586977976+584839361+584120757+588450572+592853346
1630+595156332+596611929+598096233+599323495+601420703+604095427+605541102
1616+607475856+611564902+614835331+616681451+618607540+621131651+623449057
1603+625148862+626383864+627476984+628562100+629836524+631757719+633908372
1589+635441491+636513246+637795674+639358427+640468744+640308474+638746515
1576+638454814+641465887+643677129+644008716+645287573+647636464+649240160
1562+649288909+646180007+643286474+648740828+654967629+659673679+663246989
1549+666108838+668033273+668244674+665467690+660927797+665970263+676566367
1535+683043065+687158768+691972437+695906504+697902575+699399976+700559968
1522+701887706+706379048+713559005+721339364+727584552+731817861+734350042
1508+734688772+738033880+748135746+756718383+762127228+764814652+767972370
1495+774559531+780575658+782947898+784474932+790796188+799731116+807230026
1481+813594740+820006880+823615445+822101177+820621239+826744521+836141144
1468+843048581+848321895+854433272+859655852+860385833+856913528+859050158
1454+868808597+877499051+883673993+887459563+890256987+893821631+897887923
1441+901341575+902767341+902152188+903963317+909132054+914455176+919126632
1427+921844681+921042932+918126844+914079007+908077961+905366857+908153366
1414+909734110+908115862+905515287+902693324+899088132+896035983+894000423
1400+889603933+882540789+877430855+875582685+874395440+871219268+866230908
1387+863422306+864734698+866575989+867703108+868908873+868747148+866479682
1373+865022696+866054036+867407901+867973907+867858880+867023397+867152976
1360+868198206+868048982+867354786+867234335+867893276+869308656+870321608
1346+870008541+869285770+868374220+867032128+867167396+869169883+871600596
1333+873768910+874619276+874972030+876106490+877150861+877686375+878095881
1319+878882549+880375518+881847916+883408353+886025662+889642959+894523633
1306+900693548+906549670+910827296+912999248+914203294+916706965+920051809
1292+922755702+924975544+927072884+929167446+930958135+932278663+933354386
1279+933728174+933909611+936027126+940154933+943347377+944603809+945569996
1265+945266388+942679506+940807325+942039747+945351716+948361003+949643961
1252+950059354+951413814+953177781+953549783+953809404+955925728+958295587
1238+958478347+957070110+955607370+954900010+955708572+956500400+955934393
1225+955237220+954482236+953446927+952767680+952962676+954458688+956630309
1211+957404939+955552006+953944738+955430960+957628444+957377422+955392860
1198+953657600+952991251+953712104+955119415+955791717+955780671+955989095
1184+956018530+955267845+953678172+950990947+949386919+951108818+953544029
1171+954344389+955649174+958103633+958504408+957121836+957047290+957620176
1157+957691282+958139352+959928321+963154037+966514689+968191674+968012486
1144+968746436+971294954+972561574+971176885+969825665+971370889+974732401
1130+978032067+981418119+982691022+980048974+977378285+978104628+980276382
1117+980911445+980209509+981044860+983546878+983831965+982330529+982608075
1103+984829107+988862326+994357624+997568787+996060076+993678046+994378725
1090+997588763+1002446287+1007425121+1011309645+1016807853+1022608743
1078+1022672177+1017827618+1015598781+1020465763+1027452972+1030199860
1067+1031417465+1033247644+1032631036+1030255157+1029522266+1030269511
1055+1032407067+1038233357+1045986133+1051007102+1051055388+1047810094
1043+1048113305+1053679246+1055485612+1049940771+1044510098+1043367633
1032+1044353862+1045219375+1045421714+1045637084+1046228292+1047593071
1020+1050652496+1053166817+1052213066+1049669178+1049100989+1050845840
1009+1053222380+1056747601+1060901139+1060477808+1054204309+1048726407
997+1048603244+1051173855+1053037106+1053046234+1050216201+1046980762
986+1046936974+1049719184+1053563095+1055168577+1051394781+1046185496
974+1044984294+1047003120+1049879322+1052761676+1055370982+1058438015
962+1061016761+1061607374+1061440555+1061823471+1061608101+1058383312
951+1053346667+1051540235+1053979083+1056242978+1056407283+1056644348
939+1058389993+1061250188+1063014883+1062474673+1061876652+1063272850
928+1066034886+1067286887+1065932228+1064466313+1064537816+1067483868
916+1072489822+1073741823+1069777792+1063801352+1057666362+1054958631
905+1057580306+1063530487+1069078503+1069829849+1066872155+1064840497
893+1064882103+1062931010+1057833313+1057602994+1064273697+1070400618
881+1071248867+1065870580+1060880766+1063062375+1065220172+1060642312
870+1055128758+1052473613+1050732995+1049805769+1048727201+1044261192
858+1039814366+1041142699+1044521144+1041871754+1032822130+1025545403
847+1025119360+1027241968+1026964355+1023693396+1019033383+1012995693
835+1003667001+995504123+992501186+990386582+988422194+989016511+989853714
822+988812453+984613936+980197140+982190962+986683826+986526929+984345121
808+980317326+972697767+964964967+958507385+955227960+957133610+958224084
795+954664996+950499354+946558871+942741021+940881342+940970969+942499987
781+942477233+937515663+930533151+926787664+927280051+928673405+927907507
768+924095875+918350415+914363829+913509097+912347583+907658665+901124354
754+897673546+898184982+899890807+901850962+901639958+897040004+892193461
741+890389939+890285760+891631225+894439893+897704436+900816248+902171370
727+902008388+902192735+902733210+903085302+902156554+900569989+901158154
714+904096071+905653597+901172045+893328319+890276963+892366101+893605203
700+891750419+887194122+881320803+879064251+882069106+884078010+882433832
687+882456057+885455158+886903809+884935850+882896387+883620680+885631303
673+889122989+895678599+899339220+893508499+887922251+886025332+883485545
660+877487806+866686055+857595686+856915512+858190664+852685709+846002042
646+846962143+853617103+858206870+855060000+845924520+838748664+836959959
633+842563008+857356967+865176748+854456886+847392750+853456700+857225338
619+858313298+858501614+846651590+826656614+811642523+805418302+807784391
606+818239209+839503648+867344798+875448476
##END=
