##TITLE=Sample description
##JCAMP-DX=4.24
##DATA TYPE=INFRARED SPECTRUM
##DATE=25/8/2023
##SAMPLING PROCEDURE=Instrument type and / or accessory
##ORIGIN=Default
##XUNITS=1/CM
##YUNITS=ABSORBANCE
##RESOLUTION=4
##FIRSTX=4397.6552
##LASTX=599.8556
##DELTAX=-1.9287962
##MAXY=1.838642
##MINY=0.12131222
##XFACTOR=1
##YFACTOR=1.7123688e-009
##NPOINTS=1970
##FIRSTY=0.13153133
##XYDATA=(X++(Y..Y))
4398+76812500+76829869+76916663+77194320+77367831+77357162+77157023+76711138
4382+76346477+76375795+76494682+76579293+76801343+76857402+76803902+77122250
4367+77485335+77565760+77830016+78375723+78759684+78851700+78771624+78555569
4351+78308734+78233279+78145936+77702313+77108379+76770242+76760766+76861701
4336+76843688+76776360+76862171+77039571+77115036+77132492+77105411+76860039
4321+76524313+76394669+76424744+76393956+76318169+76352769+76409602+76402292
4305+76505351+76656750+76678409+76823612+77193955+77238510+76759808+76559252
4290+77132101+77811463+77918960+77658533+77609340+77885091+78109170+78144021
4274+78101999+77906733+77692166+77767544+77937399+77911432+77813212+77827614
4259+77886344+77832609+77826831+77956509+77913878+77706133+77726522+78070097
4243+78371607+78406180+78427082+78519264+78437856+78209652+77992370+77801725
4228+77790082+78000533+78208504+78382441+78564802+78731351+78826534+78706306
4212+78695750+79152574+79466397+79222435+79099144+79470513+79846547+79929800
4197+79784319+79417770+79084133+79146335+79481852+79649602+79550224+79490676
4182+79518932+79521107+79650124+79955950+80238968+80290849+80138241+80009407
4166+79970804+79868564+79667842+79633982+79821529+79887848+79766932+79721386
4151+79779707+79813619+79833251+79826420+79699239+79526755+79642197+79925632
4135+79739930+79310030+79349137+79708567+80008041+80295453+80561179+80645398
4120+80606978+80616272+80773153+81000895+81033597+80869250+80746638+80738258
4104+80771038+80847060+80977756+81096218+81286767+81516345+81542025+81420022
4089+81397188+81587963+81941528+82291108+82486870+82488880+82396107+82342555
4074+82296573+82193227+82171698+82273382+82309078+82188398+82070867+82208360
4058+82545566+82727509+82610379+82495851+82627774+82647858+82319094+82126300
4043+82334610+82573360+82655316+82732495+82795385+82679917+82454838+82279569
4027+82093850+82019978+82196125+82280283+82241036+82377363+82567269+82686765
4012+82656482+82334566+82032883+82032987+82132487+82202608+82180679+82037295
3996+82020726+82122827+82081562+82027200+82079726+82043961+81976067+82062844
3981+82127909+82009761+81898514+81964650+82054194+82019952+82058432+82216636
3966+82208334+81969053+81745166+81741424+81981776+82246571+82099445+81409771
3950+80525918+80159283+80531984+80768480+80750876+81257484+81896861+81759664
3935+80629082+79332908+79367385+80403054+80646346+80054109+79966862+80215028
3919+79914798+79688866+80486072+81667570+82417445+82463731+81075159+77912772
3904+74965328+74644804+76382887+78799227+80314815+79863116+78504966+78677580
3888+79466859+79007354+78118637+77520300+77511885+78978254+79851081+78670427
3873+76660126+75305770+75681500+76660509+76424665+76638284+78432730+79393787
3858+78101277+74514134+70844678+73342921+78234288+81089769+81463184+79824723
3842+77063633+74226852+73415462+75559314+77846184+79223488+80359744+80975450
3827+80862201+80019771+77680671+75478463+76405991+78356726+80765112+83305579
3811+84193921+82893066+80645085+79387461+78179300+77198280+78668948+80783491
3796+82806532+84946172+86336894+86850734+86548268+85668375+85252764+85210411
3780+84760226+85078974+86528723+87230502+86349878+84799377+84298233+84902583
3765+85799245+86241023+85248621+83833098+83766458+83457099+80892502+77441120
3750+77731047+79943410+81141303+82698940+84770956+85418094+83490985+80235817
3734+80699151+85182555+88860087+89978016+89350666+88868032+89707216+91439495
3719+93224630+94117619+93260221+90690560+89567600+92531771+96075247+97805350
3703+98115805+98857909+100573271+102047541+102793866+102250752+100326932
3690+99934295+104157272+109197062+112397920+113976154+114073434+112869624
3676+112332071+115718631+119377201+122128684+127800801+134492009+139444594
3663+143035105+145913473+148120119+150644260+154348437+156664895+156154640
3649+157019017+165072961+174448507+181337243+186703604+191636236+196152873
3636+199910203+203021978+205306412+207479268+212953743+220480881+226292126
3622+229774836+231886934+235276722+240079972+244634585+249418638+254432704
3609+259214616+264464247+269396548+272881450+275420141+278107290+281023007
3595+284192424+288362424+292083709+293532848+294115330+297207247+301836263
3582+305490334+307961793+309871898+311567237+313200929+314498931+314556399
3568+313161526+313536621+317214117+320748343+322663391+324126175+325995242
3555+327391054+328019692+328516337+328774649+328882834+329888863+331659840
3541+333085066+334024159+335027125+336498646+337628906+337780705+337446406
3528+337170550+337305119+337695355+338121896+338894605+340310851+341690686
3514+341866886+340823264+339756981+339746016+340296022+340344998+339751412
3501+339410952+339868298+340333128+340388717+340534807+340762210+340435812
3487+339497172+338779947+338653036+338932372+339488818+340015050+340259021
3474+340174263+339705430+339227651+339023361+338547114+337471190+336348796
3460+336108654+336495896+336365156+335855771+335632755+335443606+334651683
3447+333595181+333345501+333458628+332920631+332362793+332584731+332986976
3433+332911999+332401953+331712191+331151047+330854341+330785699+330724854
3420+330391460+329945183+329770480+329883781+330178225+330741736+331502959
3406+332131283+332305255+332216807+332426458+332900686+333187402+333283647
3393+333666190+334722900+336269294+337673113+338598874+339498912+340823090
3379+341922475+342414873+343386616+345006455+346336167+347477949+348686284
3366+349643130+350500632+351785058+353483425+355396384+357570650+359845024
3352+362131059+364477487+366605805+368389696+370239652+372282517+374416822
3339+376771604+378828287+380250798+381717584+383468651+385152189+386525481
3325+387833890+389332387+390480957+391419353+392810049+394026982+394697599
3312+395271901+396026684+397308744+398945221+400247051+400658381+400703875
3298+401621109+402935401+403244255+402334226+401115588+400556950+400534463
3285+400460148+400183387+399861549+399912230+400171970+399739581+398912431
3271+398760528+398962764+398785555+398399079+398096943+397668661+397326809
3258+397751087+398320412+398122074+397615161+397368161+397557414+397952036
3244+397640362+396426597+395225641+394105997+392746107+392006152+391730923
3231+390759458+389716183+389221871+388319570+386647971+385025034+383900239
3217+382960171+382081540+381557327+381603309+381853824+381598227+380841773
3204+380213100+379918274+379668733+379506039+379673015+379784819+379288801
3190+378311384+377311515+376215785+374855581+373632382+372615388+371574725
3177+370728605+370151935+369730094+369351136+368716685+367766349+366727669
3163+365845975+365296770+364988472+364555770+363980424+363586220+363048641
3150+362280805+362153998+362517431+362059319+360713456+359682121+359277858
3136+358905722+358232739+357371477+356817050+356688677+356566361+356118030
3123+355077471+353801155+353186475+353279553+353177146+352308749+351287822
3109+350738721+350029885+348807800+347798011+347160288+346554102+346120356
3096+345875201+345431499+344761405+344293616+344195387+344145437+343765365
3082+342962825+342073473+341679583+341977019+342800967+343858060+344357629
3069+343716251+342168604+340089574+337958924+336066675+333926626+331388822
3055+329225661+327670565+326394284+325469079+324752098+324037727+323599735
3042+323297947+322617792+321671076+320916885+320371857+319673010+318536867
3028+317291705+316425013+315768459+315385951+315665670+316169207+316367197
3015+316575768+317213943+318240544+319521351+320999624+322569966+324201605
3001+326149234+328875768+332546720+337034763+342614394+349634045+357295247
2988+363997411+368704502+370882701+370292526+367616012+364179876+360747743
2974+357406981+354462408+352169063+350374034+348971538+348111216+347927985
2961+348015319+347904977+347920293+348624465+349860542+351089762+352221554
2947+353324908+354204479+354433900+353748420+352508166+351209190+349845157
2934+348123852+346175945+344465186+342962582+341259760+339054584+335998764
2920+331941265+327423670+323021464+318800227+314782827+311086256+307873728
2907+305358759+303329714+301225656+299185194+297720704+296614984+295706731
2893+295367907+295549885+295915267+296570568+297535072+298318084+298888940
2880+299834299+301210097+302458149+303319967+303934786+304429691+304941338
2866+305291161+304967374+303954627+302521221+300486084+297608865+293962974
2853+289584839+284505142+279131628+274075305+269494585+265031430+260673919
2839+256837400+253551845+250570619+247878858+245483072+243187552+241000477
2826+239205709+237720613+236279062+235003147+234036259+233285914+232678161
2812+232208110+231831240+231400888+230796651+230142864+229620182+229166508
2799+228646264+227948636+226954337+225750787+224548718+223344803+221958336
2785+220397080+218903682+217539005+216161850+214791952+213559755+212498050
2772+211586977+210808594+210100698+209317494+208457938+207780394+207291599
2758+206783310+206349408+206001307+205549809+205073527+204655584+204153735
2745+203475878+202697477+202033039+201633823+201378626+201021736+200497906
2731+199980498+199645468+199440535+199156899+198763792+198402360+198065259
2718+197704645+197401865+197145362+196837761+196561297+196400465+196224213
2704+195966997+195677061+195321355+194915560+194533034+194118711+193599406
2691+193084330+192718965+192447252+192086603+191549197+190899918+190261447
2677+189699728+189139210+188485458+187857864+187351595+186804757+186181497
2664+185584691+185006699+184532053+184190305+183824575+183421982+183062673
2650+182727695+182399105+182126869+181879000+181548843+181215536+181018312
2637+180890252+180776951+180749279+180748478+180663442+180492602+180287738
2623+180185437+180239807+180341621+180465887+180680950+180980858+181307430
2610+181602587+181766116+181863110+182064632+182246488+182304705+182398827
2596+182569196+182748493+182951582+183154550+183217744+183022400+182649603
2583+182331995+182147876+181974722+181737312+181427571+180991075+180402414
2569+179774385+179199196+178659127+178164328+177694851+177228385+176845023
2556+176500125+176063908+175646487+175379646+175158527+174901102+174661847
2542+174479486+174305393+174111058+174014917+174094872+174212211+174212385
2529+174135963+174131908+174236072+174313520+174320813+174418920+174641693
2515+174849881+174970248+175030223+175159780+175438472+175725310+175870078
2502+175949023+176100213+176314945+176523395+176717312+176892223+176904702
2488+176675594+176422799+176289361+176157107+175932733+175634112+175283488
2475+174880130+174544212+174385869+174195172+173793154+173348217+172985827
2461+172607809+172176743+171815346+171536862+171143598+170578903+170071276
2448+169771733+169557749+169290735+168968079+168631762+168309419+167982918
2434+167650533+167333238+167018397+166738260+166528418+166398218+166367621
2421+166305871+166093366+165883438+165766081+165652519+165566056+165566456
2407+165614892+165627179+165543482+165434271+165420748+165468732+165452563
2394+165352994+165261500+165244932+165223716+165046942+164614727+163855245
2380+162806419+161579235+160175538+158643851+157165769+155743484+154237051
2367+152790940+151762024+151285307+151246809+151538868+152204977+153364877
2353+155070031+156807052+157577760+157032801+155824553+154926046+154645317
2340+154868491+155323801+155609211+155660484+155782696+156169677+156648570
2326+157114113+157690208+158451535+159373590+160295957+160980358+161358394
2313+161573596+161826339+162188363+162561142+162852401+163006984+163039478
2299+163138681+163376666+163599387+163722399+163826824+164016129+164202179
2286+164279332+164317726+164319292+164246838+164164308+164145825+164202371
2272+164238397+164191006+164128125+164087068+164057133+164074746+164092133
2259+163975282+163792486+163739090+163769408+163719284+163659866+163713401
2245+163764709+163701497+163589188+163479002+163418697+163468246+163552483
2232+163622813+163716795+163788361+163814693+163832689+163829261+163783018
2218+163753500+163824492+163948653+164035082+164091454+164163299+164284745
2205+164460405+164641425+164774967+164872970+164961627+165052320+165192893
2191+165361853+165444261+165422819+165367335+165308526+165285727+165340428
2178+165432827+165460430+165310319+165044297+164966117+165138349+165267644
2164+165269297+165254104+165243748+165268410+165337992+165410132+165450353
2151+165477642+165562296+165685779+165780475+165866486+165961373+165999680
2137+166006276+166095229+166222732+166285665+166309839+166383059+166540427
2124+166716644+166834818+166880104+166886561+166911518+166986965+167084863
2110+167191986+167353601+167557839+167733290+167847774+167945725+168113240
2097+168355227+168595944+168805734+169038497+169313952+169565947+169815870
2083+170164475+170555007+170831228+170986160+171138655+171367120+171663651
2070+171919040+172031227+172154309+172462659+172751515+172890731+173099511
2056+173428989+173673517+173730290+173692714+173695795+173788646+173899893
2043+173964933+174077642+174287936+174500893+174651979+174776854+174955072
2029+175166115+175359597+175536284+175680634+175740121+175675499+175728460
2016+176182534+176776260+177149892+177359995+177580627+177813251+178019247
2002+178317153+178800484+179322469+179584802+179451869+179383419+179878984
1989+180654496+181392501+182067069+182631538+183105522+183550773+184069573
1975+184692467+185306033+185686035+185704049+185865507+186675479+187607941
1962+188166440+188523312+188756301+188851432+188975611+189203397+189362819
1948+189242991+188726645+187942170+187788631+188665173+189476729+189745553
1935+189851597+189958963+190037978+190066242+189805354+189081359+188607983
1921+188787542+189032766+189605380+190609530+191113833+190916487+190815578
1908+191382466+192183718+192766757+193216080+193490909+193335437+193047242
1894+193128119+193125387+192974232+193539223+194457152+195072511+195584436
1881+196053739+196453078+196809027+196973079+196387725+194681144+193407769
1867+194708451+196996122+198276423+198698665+198978228+199427220+199930409
1854+200314484+200441395+200062002+199048123+197922423+198466825+200847382
1840+202558366+203134948+203603694+203900592+203056734+201935524+202538351
1827+203954510+205387724+207185329+208577052+209280562+209779713+210016410
1813+209634580+209393289+210264715+211477662+211903507+211315177+210581174
1800+210929797+211737123+211527055+210481013+211080569+214037377+216297776
1786+217064429+217320409+217505624+218092196+219143546+219174299+217558567
1773+216405612+218331225+221650770+224374345+225597161+225747028+226649816
1759+228110251+229523746+230962617+230928853+229263467+228854382+231249246
1746+234219664+236506708+238569744+241106625+243009247+242892447+243364030
1732+247576026+252427432+256617133+259608611+261560591+262936319+262687996
1719+260859012+262290903+268914749+275091777+278930349+280614201+281345192
1705+283047109+285022515+286363122+289049557+294154907+302361904+310200071
1692+314545609+317520117+319719131+321084243+327068869+337756618+346229097
1678+352666335+358777628+365755334+371738881+377891630+387422421+395296650
1665+398807833+400618177+402779007+403609080+401456500+396381416+392965468
1651+395679402+396923694+398306210+404764716+411790632+416508061+418971340
1638+420152943+425817645+437117254+446276954+453652032+461825125+470806675
1624+481086157+493786174+504515310+512241047+521868361+533065912+541326095
1611+546907884+551494330+555924104+559341095+561074932+561447659+560519878
1597+558100110+554662373+551038759+547145555+542736284+538265019+533498544
1584+528032876+522409491+516912460+510270236+503461767+500366230+497819899
1570+493910544+492023064+492452703+492719230+491618975+488011721+487512326
1557+495667945+502913119+508358703+512973622+517921413+522114595+524537426
1543+526996772+535158378+556481559+574853275+586911913+601510375+618335732
1530+631130009+641551823+651173881+657928779+663261202+669711875+675173576
1516+679370691+682291873+682132312+678358814+671600017+669889676+678389932
1503+685578333+689401468+691127333+694482923+700156258+703588147+704769053
1489+708702113+717639004+726772284+734474595+741790046+748019827+751358708
1476+751633833+752014984+757084256+764727740+770549707+773832060+777333496
1462+782098334+784533732+783211504+785728561+794503246+802451930+807802592
1449+811028695+814908706+819932031+824924585+829317045+831254126+831214167
1435+833984629+839010112+842955284+846536362+849303831+848816932+847204612
1422+846233182+843363098+842033212+846260750+851151525+853266198+852640484
1408+850305822+846805569+843813726+842520598+839578253+833161204+827812491
1395+827790910+831085933+831882556+828131752+823486167+823159526+825640314
1381+827026519+826155477+823091720+819030705+817166164+818415294+820114636
1368+821112520+821079730+818383271+814724988+813965958+815124936+815884940
1354+815744454+815155985+813900797+812579196+812319804+811977917+809734244
1341+806684341+806119124+808304806+811129082+813481496+814936135+815546116
1327+815333646+815232772+816170438+817362065+818613145+820398950+821783276
1314+823043823+825792496+829000150+831035113+832559577+834645917+837559998
1300+840800720+844054043+847256337+849154016+849599701+850276374+850540361
1287+849049660+847242413+845982910+844617798+843236466+842106449+841314212
1273+840924707+840518355+839456215+837517532+835079907+832400851+829648002
1260+827140830+824634215+823040551+824012538+826030027+826487478+825534914
1246+824134437+823044172+822970656+823542835+824593628+826546165+828734215
1233+830137128+830906809+831855196+833660911+836299868+838610512+839795248
1219+840633431+841860702+843280742+844706629+845931951+847323238+849795950
1205+852008923+852499163+853385800+855877935+858371880+860424107+862023409
1192+862730853+864002818+866607732+868546693+869629162+871910846+874364761
1178+874700522+875112095+878440674+883450563+888094964+891555118+894113737
1165+897114003+900654216+903499655+905712558+908349008+910868572+912134480
1151+913908799+918709142+924484813+927646381+928973134+930622769+933277946
1138+937031464+941012629+944308626+946761289+948164133+948992361+950269687
1124+952131931+955403632+959799433+961725376+960486967+959575198+961613015
1111+965587287+967894451+968703187+970260580+970883300+970880098+973687596
1097+977781609+979872335+980764332+982206510+984920025+987452886+987670925
1084+988033836+992006368+996773156+998298734+998762798+1000740815+1003658586
1070+1007332810+1011727637+1016888733+1021884837+1024309096+1024615548
1059+1024503396+1023869955+1023426079+1023604576+1024133314+1025303012
1047+1026267620+1026939768+1028080854+1030070705+1033473425+1035999672
1036+1034907109+1031794412+1030213140+1031621345+1034567102+1037590202
1024+1039678492+1040214191+1041457126+1044379213+1044398218+1039728546
1013+1036042974+1036021462+1036796643+1036539618+1036141551+1037951234
1001+1040902630+1040070294+1035616433+1032787841+1033245431+1033940065
989+1033740613+1035446150+1038724883+1039528050+1038187304+1038274325
978+1040367000+1042488635+1043337401+1043273075+1041466385+1038934290
966+1040963475+1047122107+1051595948+1053096464+1052032723+1049973255
955+1051601239+1055904450+1058012022+1058911260+1058608219+1055167628
943+1053751904+1057145157+1059663050+1059135356+1058691968+1058085538
932+1055189766+1052717889+1055730199+1061591081+1062119402+1058714315
920+1059563707+1064333001+1065514046+1061304609+1058206114+1060607677
908+1065068291+1067140011+1067734328+1068401116+1067858664+1066121451
897+1065886982+1068006947+1070442901+1072559733+1073741823+1071099804
885+1065206619+1060360190+1059638127+1064051123+1068320500+1065344042
874+1060679382+1061028579+1060826830+1056887436+1053301694+1049911157
862+1046487482+1045110048+1041636946+1034171819+1027904236+1023966026
851+1021009339+1017489733+1010537819+1001946157+996449648+994456803+993179895
837+990328260+984498775+977522496+971872761+967669729+965715034+963702488
824+958550790+954304874+952539049+948359546+942765366+940544248+941329871
810+943271757+944827966+943861479+939217773+933166281+931192511+933669679
797+934488996+930799734+925498779+920738465+917372712+915441895+912308522
783+908069846+905408264+903775546+901048664+897299810+894689397+892895098
770+890205183+887376034+884839692+881624867+877450169+873431481+870511135
756+869342272+870025002+869901850+867572618+865008151+862033365+857896816
743+855167080+855054788+855781655+855888308+854655467+852630460+851724191
729+851488817+849424128+848626043+853360390+858826337+859415850+856591922
716+853174165+850266489+847555410+845726930+845284725+844509753+843267932
702+842494631+841753771+840914543+839062881+834864374+831953495+834737045
689+839195988+838526624+835019062+835436970+838297238+836021401+829177185
675+824552763+824075333+823978078+821121222+821226134+826098669+827701661
662+826784323+826129092+825622353+825829532+825781983+822752896+816615775
648+812828075+814215882+815987833+815751624+816609509+820250179+824414296
635+827997949+826948688+817473521+810029001+812623542+816731408+815916824
621+814128235+809873059+795340386+778291003+774822704+784871581+796618686
608+804046011+806949371+806365358+807070991+809233979
##END=
