##TITLE=Sample description
##JCAMP-DX=4.24
##DATA TYPE=INFRARED SPECTRUM
##DATE=25/8/2023
##SAMPLING PROCEDURE=Instrument type and / or accessory
##ORIGIN=Default
##XUNITS=1/CM
##YUNITS=ABSORBANCE
##RESOLUTION=4
##FIRSTX=4397.6552
##LASTX=599.8556
##DELTAX=-1.9287962
##MAXY=1.8177603
##MINY=0.76375675
##XFACTOR=1
##YFACTOR=1.6929212e-009
##NPOINTS=1970
##FIRSTY=0.82408917
##XYDATA=(X++(Y..Y))
4398+486785295+486899862+486917009+487244973+487840800+488408743+489448440
4384+490343256+490030537+488688472+488111516+489640149+491517976+492058914
4371+492031909+491752005+490726954+489668386+489533186+489619834+489585506
4357+490349382+490884229+490150878+489848546+490214640+489736232+488981052
4344+488979432+489470657+490035079+490499580+491122131+491829779+492074124
4330+492193374+492436768+492297203+492043704+492024481+491472910+490346917
4317+489809746+489826681+490115705+491307079+492567778+492986368+492670938
4303+491342322+490441698+491036187+491278842+490896094+491469459+493249020
4290+495238950+495710881+494452295+493672539+494102396+494255481+493608777
4276+492998902+493418759+494923908+495904948+495275004+494292731+493855375
4263+493249020+493079176+494468666+495981315+495672469+494165911+493510441
4249+493950015+493862030+493440975+493876183+494310124+494837472+496595697
4236+497751405+496859864+495583216+494782970+494302202+494893171+496715827
4222+498202633+498463736+498882784+499690741+499071007+497568569+497451959
4209+498127604+497383128+495330104+493933256+494201612+495297431+496026029
4195+496225835+496230764+496367724+497047735+498061413+498486551+498449512
4182+498986472+499819391+500094966+499653033+498815466+498433211+498554397
4168+498434197+498323960+498438879+497752074+496442401+496586754+498609005
4155+500735754+501297430+500266042+499767495+500877819+501869809+501327463
4141+499733589+498419797+498214216+498684175+498918485+498872010+498877362
4128+498713010+498843738+499841432+501012420+502055286+502915210+502690828
4114+501322005+500608935+501828052+503207614+503335701+503489772+503412314
4101+502088769+500831168+500700088+500940314+500883699+501068507+502025077
4087+503419250+504394270+504173761+503195713+502923343+504025781+505324645
4074+505508784+505101742+504773778+504454722+504779905+505552301+505332990
4060+504775539+505229125+505526740+504535137+503310914+503309048+504559290
4047+505867802+506209954+505644335+505290634+505424777+504929680+504032154
4033+504161755+505106601+505503573+505479772+506450391+507968004+508041166
4020+506925032+506451025+506879226+507310315+507484560+507568426+507268558
4006+506819478+507050056+507750699+508312163+508590413+508381770+508026097
3993+508455003+509531739+509788688+508919575+508458242+508571929+508211785
3979+507922163+508135735+508570662+509762704+511151244+511310596+510651464
3966+510254105+509947090+509371929+509340206+510311776+510813210+509995818
3952+508865741+507693204+507313660+508949431+510721000+511329151+511800729
3939+511873715+511143076+510504822+510717057+511629969+512710684+513549377
3925+513705878+513292710+512472923+511554448+511793406+513357775+514900244
3912+515271690+514423279+513071567+510600694+507324258+506884825+509370098
3898+511748973+513040866+513063082+512163021+512415146+513648840+513250460
3885+511837028+511367915+510830145+511831290+514487886+515221307+513193141
3871+510919926+510794620+512183406+512381241+512125207+513272324+514448735
3858+514145487+510653788+503542162+503736616+511032487+516763354+518408737
3844+516544677+513205394+509947899+508388389+510589427+513998422+515575255
3831+516423173+518172948+519722988+519357703+516201960+512350751+512408387
3817+513992895+516110454+519361682+521308693+520585271+517770061+515917232
3804+515616730+515209583+516464120+519472587+522490349+524359832+524881582
3790+525125645+525498077+524982101+523889486+523718480+523668520+523407768
3777+524398103+525558564+524975412+522882322+522121755+523088289+523173704
3763+522609318+522492849+523090226+523790235+522925839+520304239+517035866
3750+516374410+518367861+519149799+518674982+520494610+522664207+521872411
3736+518689311+517872975+520622451+523931454+525524377+525023576+524353952
3723+525368476+527553564+529272321+529592434+528341523+525290736+523618806
3709+527616270+532936259+535821180+536657550+537953034+542168402+547813291
3696+551505853+551669324+548918475+545387801+544783101+545847760+545409137
3682+543581587+541775796+540057391+536545518+533633451+533646090+531468536
3669+528526331+529638275+531624966+532008946+531261477+530111825+528325539
3655+526695858+525561768+521494310+513276866+511372140+516466092+520726984
3642+521557896+519830408+516698008+512798951+509848366+508300228+504982880
3628+500462609+500050075+501187334+500892607+497440728+492793532+491183393
3615+490474617+489294052+488507080+487483578+486987777+487533891+487405663
3601+486008532+484082892+481616596+478875007+477166777+476297241+474723436
3588+472693123+472359631+472873248+472577429+471470977+470242740+469204275
3574+467963892+466628200+464893952+461144071+457839292+459396267+461939247
3561+461940092+460731995+460089939+459947698+459832180+459655364+459303705
3547+458597993+457550304+456119268+455099640+455389825+456345551+456742804
3534+456286542+455725465+455353490+454360655+452866280+452079835+452830931
3520+454325870+454485398+453462073+452974721+452613169+451646634+451147242
3507+451513583+451762364+451712262+451812077+451756132+451575197+451966360
3493+452476561+452190037+451828907+452106523+452124339+451698637+451530447
3480+451385671+451365462+451806585+452297809+453025386+454248729+455622129
3466+456308758+455402007+453922666+453294517+453039680+452689711+452945675
3453+454113107+455142065+454819383+453576570+453235543+454350269+456094939
3439+457534037+458316997+459176393+460238975+461010843+461457494+461517031
3426+461800668+462640242+462930287+462213625+461998608+463244449+464798854
3412+465763664+466621088+468054377+469883863+471059534+471417179+471872385
3399+473020629+474541692+475833831+476811914+477652016+479062772+480983272
3385+482241013+483704792+486723505+490164117+492927605+495392423+498082326
3372+501006294+503633175+505424672+507064386+510387614+515773266+521320840
3358+525458996+528551786+532093446+536509641+540312509+543151132+546934848
3345+552407111+558032777+562532169+566024572+568482031+570425029+573628725
3331+577796209+580792283+582521039+584861326+587848492+589198760+589200485
3318+590176244+592090230+593900282+595264739+596196417+597424055+598998705
3304+599492746+598407912+596819390+595995801+595679561+594077872+591909119
3291+590984483+589859089+587009552+583509473+581152709+580370665+579879300
3277+578362709+575411878+571884724+569592074+568870624+568543892+568252122
3264+567751039+566476081+565147466+564805489+564776865+564047387+563034589
3250+561746816+560159315+559063531+558369966+558354720+559022126+558918966
3237+558367607+558772324+559283688+558817743+558036720+557297138+556275855
3223+555133702+554670890+555370617+556167977+556004505+555440330+555611195
3210+556367396+556017920+554239696+553008502+552919425+552774227+552740603
3196+553362450+553998309+554168787+553954827+554039150+555404629+557455328
3183+558094567+557577923+557855222+558219451+557226757+555880256+555943701
3169+557294004+558422531+559073460+559927997+561046384+562343312+563142256
3156+562405032+561575563+562362501+563763962+564819608+564870906+563997075
3142+563931623+564810348+565830188+567333048+568852210+569152817+568841119
3129+569312979+570166108+570515584+570570122+570705286+571246541+572433584
3115+573272559+573114123+573085146+573619078+574075305+574102662+574155228
3102+575119720+576569557+577491835+577997037+578605363+579663334+580842314
3088+580914948+579984890+579683895+580150544+580635079+581183375+581505777
3075+581430079+581644778+582361581+583386667+584382354+584829392+585314384
3061+585871025+585308997+583875321+582663703+582301657+582859495+583925352
3047+584927834+585270832+585387054+585953518+586640781+587337903+588069986
3034+588223459+587807580+587607985+587874933+588547691+589546300+590388901
3020+590526495+590582828+591578585+592367037+591731389+590837313+590729364
3007+591274950+592137480+593130209+594665355+596771437+598163145+598739573
2993+599960240+601668047+602633103+602723799+602713730+603451693+605260336
2980+607447608+609087111+610042238+610074841+609722266+610437485+611717583
2966+611980940+611270158+611246287+612643417+613741137+613453979+612783686
2953+612211202+611686811+612246832+614271794+616081635+616448222+616129870
2939+616192400+616885015+617893447+618503745+618840898+619963335+621350607
2926+621741980+621293499+620443222+619358951+618006606+616367173+615194178
2912+615337898+616993244+619040740+619912071+619992839+620341470+621053238
2899+622156733+623130379+623087566+622640915+623012009+623658220+623824543
2885+624170992+624519764+624178104+624076493+624988243+625875067+626141944
2872+626701895+627759407+628641231+628904658+628617923+628908390+630309534
2858+631304517+630895257+630363825+630891455+631555974+631032217+629930343
2845+629547067+629817817+630322350+631221285+632775092+634792731+636169933
2831+636405053+636652778+637458904+638149195+638630913+639053693+639144600
2818+639441827+640478919+641149634+641001197+641237373+641916750+642173910
2804+642204189+642670345+643625543+644486594+644885080+645141606+645698740
2791+646444308+646932364+647733420+649450874+650839695+651118333+651365987
2777+652082966+652521589+652215912+651947062+652585316+653490377+653916255
2764+654293757+654840328+655138682+655080237+655330637+656699389+658752518
2750+659998113+659797848+658940319+658206932+658144121+659298104+660798112
2737+661443760+661816966+662557605+663191493+663647438+664322801+664702275
2723+664446805+664501659+665052103+665328417+665452209+666138134+667321058
2710+668369346+669510161+670956089+671708840+671698841+672267664+673489176
2696+674201367+674204958+674270797+674666255+675029110+675481606+676150420
2683+676466800+676347515+676667698+678030958+679221557+678829409+678005115
2669+678128837+678711673+679275285+680126618+681265180+681980539+681892237
2656+681747180+682237911+683083400+683929734+684658120+685074703+685115685
2642+685105686+685725843+686518801+686058489+685240181+686151228+687922339
2629+688822260+689437980+690204743+690445990+690263611+690388178+691096355
2615+692190765+693491496+694340153+694226783+694178125+695056991+696146614
2602+696693960+696917743+697216026+697659297+698043841+698291284+698925101
2588+699971558+700444403+699955644+699491107+699951208+700870422+701747317
2575+702663785+703182613+703402030+703982401+704408913+704446022+704725645
2561+704819229+704513270+704816201+705709643+706087568+705988844+706505277
2548+707733690+708669734+708892813+708750783+708416728+708417432+709651549
2534+711502724+712504185+712530732+712245898+712122599+712233645+712300541
2521+712654735+713914624+715357665+716022043+716339832+716736980+717262075
2507+718180515+719107616+719562717+719946415+720607836+721382063+721714992
2494+721067373+720637411+721697599+722699975+722421690+722023908+722314657
2480+722906577+723240421+723353791+723687071+724318424+724976746+725658658
2467+726552734+727218098+727309217+727340693+727664678+728088444+728234417
2453+727876350+727247180+726824963+726969951+727447585+727883532+728748174
2440+730123264+731125359+731276261+730551818+729954406+730667441+731693689
2426+732237162+733119197+734283742+735109021+735149159+734399084+733976234
2413+734351412+735119091+736380036+737799066+738529424+738393027+737948208
2399+738028271+739020930+740308704+741025753+741357132+741815754+742191918
2386+742259940+741706115+740033305+737888776+736205263+734028342+730709269
2372+727676931+724928863+721610564+718982205+718188542+718715116+718890030
2359+718754056+720639523+724154495+727846000+732020843+735016846+734482950
2345+731348297+729320729+729602747+730629064+731719461+732880134+733591620
2332+733948631+735499198+737800615+739016705+740338419+742984453+745526342
2318+747369278+749022301+750167763+750758063+751404696+752213076+752916183
2305+753481274+754155158+755393499+757536902+760234622+762364363+763318152
2291+763792970+764010486+763174714+761987706+762183253+763303365+763599043
2278+763153730+763390681+764876677+766700882+767527077+767614534+767870990
2264+767660798+766878050+766596877+766723204+767007475+767922465+769073560
2251+769822156+770274581+770482309+770915299+771999781+772565576+772221944
2237+772492273+773204252+772917306+772243351+772404252+773547461+775165347
2224+776242294+776496286+776591911+777080882+777964043+778338729+777674984
2210+777427542+778847839+780204128+779756280+778893680+779330120+780805835
2197+781989604+782331546+782631308+783082324+782831572+782114522+782539414
2183+784369535+785619777+785407119+785172422+785715613+786471462+786967263
2170+787205623+787008386+786259227+785931932+786478574+787074014+787476232
2156+788101529+789226994+790313517+790534343+790344078+790700596+791412012
2143+791786556+792093360+792819634+793914115+795047043+795318780+794347880
2129+793309732+793315788+794197259+795278009+795917319+795941401+795888026
2116+796291370+796855828+796722459+796501281+797468731+798825372+799415531
2102+799949921+800920821+800901879+799556223+798768898+799192945+799891264
2089+800221798+800379672+800729429+800883430+801007081+802010936+803246320
2075+803681211+803964989+804461283+804510152+804151663+804296650+805304448
2062+806257040+806365693+806036496+805912916+805864540+805806165+805986078
2048+806176414+806525115+807295470+807833099+807691069+807605654+808411005
2035+809564495+810452234+811305046+811772610+811644593+811391940+811133300
2021+811251036+811989211+812685558+813478023+814621021+815210617+815036125
2008+814693902+815030985+816256651+816779140+816036530+815443202+815411303
1994+815455173+815803452+816814701+817957769+818646652+819144213+819914850
1981+820758860+821163824+821478796+822261826+822951554+823029223+822560180
1967+821772151+821778911+822951201+824148631+824894622+825071226+824825614
1954+825230226+825925164+826059660+826568277+827314338+827034926+826553489
1940+827014998+827684587+828392412+829515482+830578979+831346799+831749439
1927+831440523+830785933+830837689+831665714+831929846+831921466+832827795
1913+833548365+833168469+832901662+833966568+835320744+835852176+836217425
1900+836915322+837528014+837855732+838514758+839070695+838166197+837202550
1886+837577939+838137679+838926201+840151233+840699002+840330725+840010894
1873+839960687+839041190+837349297+837655961+840027864+841949314+842461945
1859+842414696+843015558+843794222+844066733+844710902+845938399+846291818
1846+844364242+842183448+843538399+846278862+847560721+847740705+848083210
1832+847910478+846094019+845059674+846090428+847261944+848820116+850774240
1819+851736972+852054831+852643934+852146584+850195136+849898895+852272488
1805+854594818+854604184+852790893+852274248+853842842+854554681+852812299
1792+851132096+852938204+856235659+858065287+857606665+856166229+855692538
1778+857060868+858425818+857405908+854958307+854887539+856919191+859600433
1765+862003601+861985152+859895548+858395117+857732992+858347375+858975277
1751+856864688+854105354+855208004+858109297+858878314+856491200+854395611
1738+856288190+858668332+856554927+854750438+857181632+860540280+863076816
1724+864503451+865421539+864704279+859514173+853854250+856272065+861782001
1711+865230711+865298381+861664617+857553994+856560983+855308417+852886025
1697+853133961+855406014+859016118+860970312+859906674+858174925+854254003
1684+847464602+848981863+855450306+859761475+859377636+856033353+853714755
1670+851895620+852752164+856974749+859397352+858790645+858572777+858701921
1657+856660904+850003463+841129668+843557412+847016543+844426701+843410242
1643+847215751+849806438+849230362+845090516+840291573+842785015+848053494
1630+850743750+850990840+850825362+851069988+853267048+856561828+857507378
1616+858175418+863373762+868425992+869918185+870950629+874327725+877613351
1603+879506705+881085157+882105349+882807048+884611396+887338831+890178651
1589+893035652+895347913+896856090+897803753+897896843+896448098+892780323
1576+890193579+893149023+895508322+893906350+893846708+896793208+898746346
1562+898935695+894218365+885484417+888993262+896083130+901513003+905905925
1549+909178594+909845014+906113301+897934727+888158899+889865650+900328953
1535+905490047+906235615+909230491+911906241+910844363+909403715+908905661
1522+908775813+911035402+913571024+917006284+921988169+924912277+923773856
1508+917962467+914778523+922855064+930916888+935147712+934801052+931736745
1495+932119247+934230962+932817002+930324194+933050784+937139367+938358696
1481+936979452+935457614+934647052+932999662+928679761+925066700+927207919
1468+930287296+929901977+928896573+930036613+929213940+923435999+920355425
1454+926277720+932965158+936778836+937277806+936221209+937741920+942979345
1441+947489299+947003215+943768853+945175630+950372566+953530527+954217649
1427+955094332+956017983+957660726+958896391+953695653+946011472+944778482
1414+945779802+945542710+943965385+941321674+938142025+935515003+933180843
1400+928664481+922404822+918224134+917654537+919238763+919420649+915522542
1387+910494394+910318353+913614682+916726731+917888460+916533861+914555233
1373+914776833+916910729+919059695+921168523+921944581+918708810+914754088
1360+916144388+919931237+920660821+918890977+918272510+918829011+918657195
1346+918176815+918501997+918158577+915742593+913695449+914553402+917413783
1333+920442812+921638340+921047125+921745655+924669411+927004064+926936535
1319+925255627+924268812+925813113+928785879+932167904+936855589+941678474
1306+944523997+946198568+948733767+952764608+957367512+961496937+964089454
1292+965022330+966058928+966915191+966587262+967145875+970026677+974157087
1279+977300965+978721755+980400973+982301087+982405444+981820637+982518814
1265+983121367+981628682+979411483+979216993+981052535+983221921+984870015
1252+985445810+985655650+987400567+990549796+993566643+995531469+995646952
1238+993806058+992059874+992829384+995361203+996916065+996731363+996264714
1225+996047973+995323107+995132068+996459768+997846969+997660648+996145007
1211+996425616+1000061210+1002784773+1001830843+1000959582+1002506699
1200+1003828202+1003409647+1002695767+1002797378+1003006584+1002419876
1188+1003030667+1006942927+1011153823+1011136501+1007949810+1006199683
1177+1007259167+1009065205+1010694498+1012277879+1012323650+1011238112
1165+1011913052+1013367853+1012742557+1011810737+1013347714+1016626158
1153+1020305129+1022784276+1022944192+1023089672+1024280764+1025370738
1142+1025275254+1022689918+1020353082+1021872596+1025444464+1027866926
1130+1028197813+1026076239+1022934897+1021956955+1022493246+1022899970
1119+1024973872+1027345212+1026222987+1023117909+1020982675+1019207831
1107+1019183115+1022521975+1023701026+1021310181+1022311501+1025404327
1096+1025199908+1024958099+1026691185+1029257931+1034430502+1040571792
1084+1044407932+1046139821+1047263666+1049714013+1051329504+1048774026
1072+1046096304+1047413794+1049482343+1050291497+1053942584+1061077447
1061+1065023015+1062364094+1058610552+1058204743+1059101213+1058544995
1049+1056589252+1055080864+1055286198+1056045708+1055801575+1055302464
1038+1056258436+1058256921+1059679683+1061115402+1062155451+1061130893
1026+1061423614+1064949782+1068015990+1069930962+1072344481+1073741823
1015+1070844543+1065900895+1064545874+1064702128+1062646253+1061362985
1003+1062071655+1061626202+1058879683+1055476815+1053161385+1052134293
991+1052011487+1053352636+1055365979+1056087817+1055998529+1056687623
980+1057109558+1056307375+1056467009+1057222647+1055358093+1052373779
968+1052622137+1055570680+1057078082+1057578883+1059307744+1060190765
957+1059459139+1060260829+1063833965+1067021007+1066737371+1063694822
945+1060701002+1060250830+1061646552+1062399232+1063178037+1065204478
934+1066758918+1066778846+1066162632+1066892850+1069611976+1070335574
922+1068002470+1067094945+1067807065+1067233946+1064537987+1060788952
910+1059503854+1061914979+1064261181+1063824247+1061530506+1059715525
899+1060171330+1061824072+1061288908+1059567651+1061191592+1063078890
887+1060428631+1057819354+1058504294+1059660178+1060278152+1060064227
876+1057265178+1053149696+1049987651+1047674404+1046053491+1044595591
864+1044282309+1046189606+1045578603+1038040254+1027273035+1020792621
853+1020823675+1021709723+1018593730+1013768170+1010968629+1010345796
841+1009406935+1005723387+1000411180+995216567+989458202+984451813+981268854
827+978692391+977737194+978523181+978388686+976890508+974051181+969011837
814+964739115+964454422+965956121+965307516+960964167+955847928+955176227
800+957028105+955065532+950456925+947710688+946642824+944145298+939757094
787+935411210+932471962+932556180+932547167+928898263+926187587+924567941
773+919699145+914944635+912988329+910686490+907443043+905124445+903402625
760+902116823+901491104+900405988+898347015+895270244+892004335+889988245
746+888538373+885613561+880611608+875947301+874548833+876170028+878867254
733+881328023+882045706+881319714+881672359+882062818+880361348+878272729
719+876872853+876193406+876754553+876341703+872920314+869030798+867252504
706+867664299+868831520+866943025+860689844+854585875+853373729+855586351
692+856176721+855684300+855062805+850928170+845423585+844597250+848923840
679+852164188+848953415+843228638+841770668+841213604+834815366+831069781
665+835545161+836871945+835039149+833169103+829698564+827361376+828514513
652+827750496+822709814+821437180+826069025+827586990+823760848+819516364
638+818151977+817153685+810573984+804844700+804693023+798975218+789771875
625+789563443+793510489+789765185+785018351+788743163+791847889+789946367
611+790459631+790705595+787311247+784852943+784356719+783051412+781515491
##END=
