##TITLE=Sample description
##JCAMP-DX=4.24
##DATA TYPE=INFRARED SPECTRUM
##DATE=25/8/2023
##SAMPLING PROCEDURE=Instrument type and / or accessory
##ORIGIN=Default
##XUNITS=1/CM
##YUNITS=ABSORBANCE
##RESOLUTION=4
##FIRSTX=4397.6552
##LASTX=599.8556
##DELTAX=-1.9287962
##MAXY=2.0620565
##MINY=1.2757888
##XFACTOR=1
##YFACTOR=1.9204398e-009
##NPOINTS=1970
##FIRSTY=1.3528625
##XYDATA=(X++(Y..Y))
4398+704454506+704784057+704938931+703818434+700392449+698399751+700840809
4384+704780457+707053791+706825297+704421545+703343817+704914102+705777302
4371+704808142+703800309+705600267+710670654+713589247+710684993+705903312
4357+704819563+706919587+706908910+704636817+704799637+706632992+705148493
4344+701238455+700625474+704643770+708713648+708999623+705719511+702029649
4330+701833496+704142771+705092999+705261033+707192526+708988574+707551934
4317+706649317+709358783+710964636+708547166+705999465+707403578+709757918
4303+708566595+707303390+709227683+712452300+714420852+712586628+708985594
4290+708416811+709580387+709764622+710484991+712058193+712768381+712594512
4276+711624855+709347796+707043114+705972214+707058757+710450664+712738772
4263+712036715+709477655+706882218+706875080+708549835+710136259+711694936
4249+711773646+709516016+706315173+706165078+710946448+715018686+714978648
4236+714298814+713808182+712767450+711104613+707907059+705816657+707162855
4222+709187273+709573931+709158781+709371322+710070957+710875436+711842238
4209+711106041+708617372+707882168+709191307+710513545+712360493+713946917
4195+713664481+712876762+711896552+710484929+709816020+708810918+707557831
4182+708679135+709704287+708120097+708582983+712543860+715133647+713649645
4168+709888832+708009171+708636801+708811167+709902737+713238964+714326748
4155+711400333+709829738+713084648+717111323+718234303+718144358+717794757
4141+716997914+716179469+715661027+715299322+714092977+713273042+714795344
4128+716004234+714419300+712604630+712247581+711852914+711161721+711850804
4114+714551579+717668002+720103536+721041970+718861374+715501870+714419859
4101+714807572+714581437+714714275+715829744+716049796+714375786+711784509
4087+710900390+712670801+714720234+715273500+714761327+715157980+715322662
4074+713027354+712410463+715403358+717036338+716538877+717491650+718892597
4060+718411276+716918087+715629059+716191822+718884714+720177218+717870177
4047+714994912+714702419+715476295+715671394+716721374+719793725+723391531
4033+724274843+722631746+721583317+721820501+722531993+722045333+718981611
4020+715960348+715314779+715285914+714955743+715867733+718947408+721652467
4006+720267597+717684638+718970935+721945022+722933549+723636661+724399674
3993+723259748+721695422+721138122+720788894+720048352+719249522+719243563
3979+719838294+720196647+720255183+721219315+722738886+722701455+722524668
3966+723745601+723956714+722170847+720888709+721448120+722318521+722327894
3952+722448876+723156519+723187122+722497728+721262084+719491052+719789752
3939+722633732+725539848+726508761+724187381+719677398+716969112+717762665
3925+719411039+719393286+718868388+719034188+721361899+725118118+726316828
3912+725147169+724867774+726389827+728134602+728653602+727343407+724056529
3898+721647998+723092086+725322528+723374461+721341104+723624184+723678499
3885+721977424+724908308+726481945+725020600+726977295+729814633+728793703
3871+725098503+723428713+725579141+726664070+723546095+721480398+723575953
3858+726179955+725058589+716868366+710850172+714976289+722111007+726287157
3844+725771633+724337414+724044363+720905097+717196737+718819350+723257638
3831+727493688+731688087+734196434+734811090+734756341+730264483+725592735
3817+726779900+729908862+732073442+733663839+733656142+729609913+725122029
3804+724264725+723422630+723121696+724349705+725584666+728700158+732795176
3790+735989316+738882024+739284822+735388564+732134958+731081625+729923759
3777+731258473+735577082+737669347+733572528+727816535+727534471+731139105
3763+733706360+733251420+731625951+732909641+735641577+732745207+721146937
3750+715987040+721621616+722623490+717689356+718775091+723075264+724981679
3736+724168945+722281400+721901756+725577341+730676592+732041598+730199181
3723+730597758+734050808+737883813+739522565+738436892+734632007+729962307
3709+729894398+733050238+736412970+738361099+737874564+737654201+738753903
3696+739037022+736829052+732320310+729757401+732805418+736191987+737181198
3682+737410126+738395612+738539934+733069109+726702059+725291304+722564892
3669+722423674+728027710+732006775+731775922+730240895+729802156+730272242
3655+732000195+733656018+730291113+719568707+712155959+712312820+714268336
3642+714675852+713679068+713591544+714583423+714683176+712385819+705892449
3628+700280033+703319670+707665468+707650570+703952142+701677876+702188434
3615+700803068+697449337+695624052+694106282+691289862+691001591+693436504
3601+693583433+690038638+686830097+685933625+685617048+683514665+679425916
3588+676449036+678298777+681116873+681063924+679797863+679570797+679560803
3574+679279980+679232494+678225965+674114807+669166519+669390606+672286356
3561+673658315+674069493+674347087+673585812+672061400+671663444+672964638
3547+673703380+672020059+670213086+670493723+671263998+670388818+667879726
3534+665443820+664737667+665862633+667280216+667275809+666305345+665963193
3520+666091065+666720495+668348012+668863412+667066185+665638981+666391565
3507+667863649+668159742+668007537+669254106+669828476+668144782+666881577
3493+666871770+666836760+667222115+667472397+666520741+665688268+666026571
3480+667423421+668517847+667132853+665022649+665047106+665799628+666319808
3466+666980337+666607335+665417439+664660447+664417365+664444988+664321151
3453+664962561+667038562+668103255+667193623+666860596+667376369+667357871
3439+668532186+671605219+672746821+670960643+670039838+671211546+672609389
3426+673554217+674540634+675000167+673358746+671027993+671926886+675142193
3412+677174804+678857691+681297880+682673625+681608188+680068257+680610784
3399+682041154+682599509+682333274+682255930+683349549+684488854+685438089
3385+686851637+687821542+689103059+691872488+695404000+697590865+697317616
3372+698628555+703197012+706196922+706939823+709354872+714060450+717423679
3358+717102198+715705969+716018387+718922827+723532377+727036017+728452607
3345+729879687+733119947+736704407+739839142+744066378+747593048+749005851
3331+751461186+755927904+759263137+760838698+763606017+766189783+764340662
3318+761784084+764189078+767959077+768852259+769498822+772066324+774729421
3304+774973620+774605770+775526513+775095409+773558520+772718597+771720138
3291+770448925+769502174+769126688+767922267+763633764+756762922+751574037
3277+752050144+756802526+760961977+761195623+759208760+758594539+758108748
3264+755936035+754741112+755937277+755849815+753347614+753309500+755843111
3250+756500846+755295680+753090752+749474385+745755535+742877165+741361568
3237+741725259+742743955+743952473+745889428+747159772+746177265+743272887
3223+741291114+742580142+744490654+743086293+739501956+738115783+739521323
3210+740499547+741155917+743401815+746149704+747340345+746718053+746039895
3196+746343375+747043011+747758475+747695346+746543750+745589052+744871043
3183+744012001+744880602+747744322+750122437+752035681+753960780+752735130
3169+749026956+748147927+749334408+748855756+748037249+748589459+749833235
3156+750027526+748472822+747788705+749518644+751273350+751800979+752611416
3142+752645681+750342179+748236320+747772504+748197524+749722867+751320340
3129+750674647+749527520+752181244+756750756+758034197+756727106+755882714
3115+755601519+754924416+754151720+754367985+755921200+757852879+758458845
3102+757383352+757451819+760554027+763396331+763520665+761970493+758048598
3088+753647058+753662329+756873787+758963196+760288164+762774164+766046641
3075+767432193+764877788+761389356+760839878+762899057+764590944+763426375
3061+760995249+759585053+758686470+759810878+764225639+768047595+768593907
3047+768435619+768636614+766503629+763217372+763249402+765817277+767226356
3034+767057329+766230255+765145886+764576233+764961898+765641546+765709331
3020+765293994+765471401+766422312+767755599+769413159+770096842+769939919
3007+770782263+771244465+770859669+771661788+772099099+770993686+770539678
2993+771286551+772583773+773614014+773973609+775277534+776924480+777072340
2980+777814745+780972198+784486019+784725252+781909763+781005967+782984139
2966+784175401+783532004+782078108+780743208+780584981+781320806+782107407
2953+783275390+784750267+785837989+786598457+787275312+787814921+788441805
2939+789798245+790603469+789153607+787836150+788887745+791328555+793718774
2926+793818962+790838170+787357436+785023703+784017795+784205569+784058826
2912+783750070+785131029+786721302+786123716+785017868+785213029+784613084
2899+783627846+785137547+786996351+787618146+789315931+790669702+788445964
2885+784447719+783137462+785721477+789135358+790274415+789544860+789087188
2872+790237605+792567240+794497926+795657220+796119981+795430215+794343735
2858+793707166+793109456+793198408+794629834+794871860+793312376+792853960
2845+793159426+792508643+791020233+789486883+790135990+793834480+797449481
2831+797919257+796210857+794999112+795707872+797794240+798336269+796204960
2818+794592713+795188996+796473306+796930853+796551147+797566180+800463916
2804+801659647+800144111+798921006+799468436+801530160+803625343+803399952
2791+801893665+801797451+802354316+801787271+800435052+799737216+800387751
2777+801461258+802206642+802675797+802997092+804506420+807006697+807034444
2764+804351670+803141476+805201152+808194482+809330932+808244017+806881432
2750+807364864+809726157+811881240+812055854+811175149+811069003+811377262
2737+811805820+812675290+812821661+812205142+812126370+812760270+813791070
2723+814421927+814203365+814498092+815803259+816128092+814607218+813484052
2710+814571525+816819844+817881557+816776951+815555832+815694567+815759621
2696+815748820+816656279+817434811+817022453+816036843+815389164+814828449
2683+815236337+817581181+818846683+817496202+816871924+817865418+817868708
2669+816400534+815859560+818006450+821103319+822333811+821891286+821000711
2656+820419202+821006732+821901218+821911708+821971299+822756038+823383668
2642+823120474+822388747+822330956+822991112+823691555+824543458+825090205
2629+824831729+823926877+822417983+822020648+823501484+824444388+824982010
2615+826325725+826397172+825463952+826062718+827080544+826510519+825306036
2602+824664005+824364188+825129436+827822949+830458857+831005418+831104612
2588+832228647+832862360+832135350+831002066+830068536+829165732+829259774
2575+831625164+834101729+834255362+833176641+832470612+832409531+832706369
2561+833540270+833967835+832613754+831352474+831960116+833494087+834605397
2548+834338044+833249702+833132072+834447046+835720307+835972514+836263144
2534+836923673+836730809+835481695+834551579+835412607+836860482+835987163
2521+834003466+834294158+836284622+837515610+837454529+837012625+837108529
2507+837434666+837092390+836667990+837918594+840240098+840668346+839809615
2494+840688396+841920378+840818255+839453931+840507699+842350861+842366814
2480+840924339+840111481+840500933+840769278+840012969+838628969+837980234
2467+839078943+841328254+843210647+843285694+842129443+841926709+842632614
2453+842230748+841046377+841132225+841668730+841311681+842009578+844253924
2440+845522467+845184599+844156778+843193701+843194570+843943740+845197945
2426+846401745+845829113+844489308+844803837+845876289+845678087+845278206
2413+846727757+848668003+849019776+848237582+847055818+846084423+845844631
2399+845674300+845578023+846518195+847360042+846414966+845480195+846382316
2386+847587854+847894251+847230618+845230471+842412810+839174350+835783250
2372+832922945+828913091+822525620+817798378+817855113+819686233+820353900
2359+820248188+821115734+824949173+830295354+833936612+834783549+833435179
2345+831889910+831535219+830907031+830210375+831633607+834063367+834662691
2332+834102598+834431031+834174418+832963727+834207875+837940506+841223163
2318+842738947+842449496+842916727+846132158+849212640+849583904+849694395
2305+852024652+854540695+854921643+853814989+852659854+852888162+854670243
2291+856579514+857848057+858214232+857723723+857586912+858332731+858462776
2278+857247926+856663190+858112306+860232132+860965039+859869620+858724231
2264+859057817+859950688+859419025+857379151+856695220+858849062+861439160
2251+862106268+860759140+858823363+858468735+860452494+862370641+862250963
2237+861785346+862098137+862264930+861975292+861435746+861149088+861458961
2224+861802975+861838854+862289759+862698206+861458403+860084272+861135556
2210+863342533+863840428+862859350+862843148+863780341+864105608+864028078
2197+864012125+863594057+862770522+862666548+864031430+865590045+865779619
2183+865229892+865275392+866209108+867344751+867200864+866013079+865321885
2170+865427722+866690864+868322106+868917147+869568240+870464899+870057197
2156+869331925+870058128+870891347+870734610+871165341+872106879+872067834
2143+871053049+869321000+867868904+868171142+869245021+869458432+869383943
2129+869899964+870989982+872152565+872797452+872903970+872519857+871877950
2116+871697501+872297508+872921041+872511166+871853307+872360078+873361580
2102+873604165+873103849+872734757+872981625+872857663+871329030+869737082
2089+870605744+873474492+875102009+874232477+872331462+871270867+871913084
2075+873349165+874243216+874402932+874664015+875377059+875479915+874596541
2062+874358984+875382273+875857387+875108651+874306904+874192812+875032610
2048+875676131+874997911+874146939+874082631+874650856+875466259+875926537
2035+875804500+875346829+874916036+874788660+874790770+874570159+874669664
2021+875260670+875313681+875407475+876812643+878390687+878966609+879541973
2008+880610762+880328512+878407013+877395952+878226253+879590266+880162588
1994+879741168+879399637+879520930+879301622+878620361+878403847+879399265
1981+880803936+881458568+881551927+881127279+879786792+878672130+878891934
1967+879918762+881351553+882755479+883714584+884395659+884345814+883936436
1954+884421172+885323479+885303305+884520676+883901861+882592721+880611134
1940+881028582+883531900+884486970+883085837+881523001+881056267+881336903
1927+881918350+882429839+882753927+883734572+885712931+887334550+887969629
1913+887812954+886380226+885071024+885819263+887228032+887698180+888637793
1900+890466802+890073005+887328778+886374639+887217603+887139266+887424496
1886+889206763+890331729+890016083+888980193+887495943+886792645+888524446
1873+891087604+889858105+884873008+884456864+889377342+892789051+893160563
1859+892138392+890772703+890561527+891608839+892302143+892362044+891881095
1846+889234634+885846824+886877934+890519317+892792403+893412211+893225058
1832+891046387+887367636+887522945+891125469+893290236+894282302+895424214
1819+896135209+896280214+895765993+894075099+892347643+893405259+896746327
1805+898555783+896988602+893793966+892310026+893257523+894025067+892998737
1792+892100837+894181556+897149808+898073593+897377744+896451290+895264932
1778+894963625+895608077+895212542+893469692+894276156+898059626+900402918
1765+899411597+896538442+896074191+898592965+899334749+898431883+897238698
1751+893611965+889469584+889819992+892858263+896823237+901505041+902939756
1738+899827740+894256665+886899474+886563902+892848580+898263911+901353456
1724+902380718+900887032+896759301+890542222+887589923+891202130+895676979
1711+899102903+900315704+897175569+892975645+892356582+889858043+883605272
1697+883272183+888458896+893793780+895808080+893957717+890411184+884889333
1684+881536098+888609115+896036015+898548645+895680952+890257737+886768002
1670+884003786+884965250+890884994+895008008+894313090+892085629+891015163
1657+889818750+883263927+868422293+866363983+869443286+867268835+869245704
1643+876439454+879958489+878674551+874591203+871661250+875443043+880733793
1630+882393588+880573828+879419625+880018701+882009847+885117641+886477682
1616+887018532+891269232+896113670+898227474+898859697+900721667+902657382
1603+903598361+906128371+909963175+911894979+912166428+912883693+914219462
1589+915780125+917720992+920210095+923174809+925348639+924830135+921177828
1576+918080090+919790289+921453126+919344784+916863006+918070158+921643569
1562+925053974+921851144+908892089+909691540+917747994+923110501+925918788
1549+927455801+926810356+921901176+913695310+906136254+908027461+916784668
1535+921999749+924064639+927527435+930505929+929999344+928392746+928126945
1522+927631781+927472934+928510438+931652932+936840762+939734278+937799805
1508+931058449+925315554+929990095+936551187+939884372+938324888+935739819
1495+938484791+942509728+941718533+936453669+935497482+939274372+940816599
1481+938416385+935994570+933829927+929619265+925151244+925334672+929724604
1468+931931892+928781763+926160877+928153016+927089255+920129523+919667817
1454+926462494+931156837+934168603+934866562+934124406+934675312+935804686
1441+937193715+938453319+937973115+939134209+942677452+943654620+943601733
1427+946328331+948369944+947666025+945289213+940852105+939736450+942801414
1414+942467766+938810927+936859260+937433444+937110287+935770173+934641917
1400+931099977+925413506+920943251+919598108+922384297+925282096+922826450
1387+916454187+914333120+917006396+920945113+925128090+926662869+923781644
1373+920246408+918140550+916689633+916874986+917306338+915921840+915751882
1360+919189972+922397395+922088143+920596257+920332008+919567257+918531678
1346+918494309+918227763+916862571+915391915+915790492+917407705+918495923
1333+920403952+923841918+926089802+924944600+922763383+922801621+924784076
1319+928186660+931814572+932178760+931308670+933323280+936245163+938865242
1306+942412707+944871642+945524474+947338585+951528577+956277793+959905705
1292+962855894+965327741+966250470+966427939+967860730+971022840+974801467
1279+977852402+979843362+980158946+978661908+977623659+977607272+976602233
1265+975920412+977785052+979861115+980408856+982794730+988685983+993093792
1252+992983300+992382859+993092178+993623531+994362770+994578663+992310667
1238+989420566+989029065+991244423+994778541+996746285+995633610+995306604
1225+996993961+996945357+995996060+997125930+997428540+995275071+995540251
1211+1000304489+1004816396+1004938247+1002882047+1002347218+1002433873
1200+1000797914+1000118950+1004243702+1009846497+1011623488+1011473082
1188+1011970667+1010713732+1008166900+1008371495+1010915286+1013189800
1177+1014043006+1012197113+1009088325+1009326938+1013650450+1017884266
1165+1020290129+1022262342+1024644058+1026080635+1023541873+1020468778
1153+1022152471+1023748082+1021408639+1019929417+1020040716+1019318051
1142+1018129086+1016717152+1017756394+1023751186+1030874855+1034589050
1130+1035566094+1035921529+1033605861+1027576742+1022748381+1021496101
1119+1022235588+1023734116+1023331070+1020132275+1015490198+1010994927
1107+1011970915+1019184095+1025405767+1027500577+1026798955+1025826380
1096+1026316020+1026738123+1028218648+1032291631+1037290757+1040804577
1084+1040233062+1037235200+1036166039+1037412049+1038855082+1041388134
1072+1046991177+1052030589+1052337483+1050642119+1051509913+1056340135
1061+1062565904+1066576130+1066897673+1062962929+1055216845+1046738536
1049+1042285475+1043823419+1048287033+1051989869+1053943957+1054667863
1038+1055426158+1058758040+1064603172+1066781967+1063237793+1059386849
1026+1056406058+1054399331+1056408789+1061624491+1065592382+1064336502
1015+1059323285+1056796627+1058424082+1059946135+1058292485+1055817348
1003+1055331806+1054492939+1051342189+1049276864+1049012802+1046981370
991+1044705242+1044910955+1046316309+1047560644+1046936676+1045203075
980+1045481663+1050141555+1058943517+1062849831+1057392289+1053566299
968+1055830508+1056903891+1053902739+1051276639+1053470332+1058628181
957+1057560385+1050642615+1051693652+1061178303+1064029360+1058744508
945+1053916396+1050153224+1049377300+1053330418+1056290104+1056832878
934+1059785240+1065654828+1069799506+1068164603+1064286098+1064877166
922+1067878069+1067900664+1067451373+1068162244+1065674940+1061015794
910+1058239226+1056094695+1055544471+1061019891+1068244802+1068419106
899+1066057937+1068810420+1069890258+1064843025+1061930888+1062977951
887+1064005151+1067106987+1072320454+1073741823+1072290410+1072789857
876+1072377438+1069240096+1067718167+1067451497+1062858273+1055224915
864+1051148518+1051573476+1053940605+1054596726+1050191586+1043989902
853+1041471189+1041302844+1038954959+1036603225+1036686156+1036071935
841+1033724546+1029765221+1026451093+1028055828+1031150215+1029431325
829+1023317848+1016931617+1014522776+1017691465+1021621739+1020261140
818+1014465730+1008720972+1006472343+1009205583+1012190906+1010359165
806+1005987049+998386466+988468289+983641605+982529178+980773851+980566213
793+981773241+980899426+976612723+971154188+968679858+971270328+976045926
779+976532772+968690969+956353089+947721954+946151545+948172673+950234273
766+951337327+950150970+947682847+945085921+941292272+939949178+940159981
752+934494429+926957596+924800216+925825491+924121623+920187438+920549019
739+924319453+926704210+927255240+924898293+922949357+925804324+927973933
725+924717781+921390990+922351522+924953414+926169505+925991477+923889901
712+918330248+910374664+905865363+908443046+911298821+908338762+905485223
698+905470573+902329259+895626451+891695059+893605075+898666026+901833474
685+900300806+896884069+898163786+905484788+910983982+910202470+906550287
671+900247671+890881953+887719533+896597039+903744979+901235453+897502947
658+896886118+892472474+886209274+887176759+896537759+903989861+902529075
644+898117727+896159170+891025033+884608573+892201459+910022891+910888760
631+886905992+860879749+849503021+842199835+832803638+839966041+856618372
617+852143213+845211849+865099474+898637286+924001883+926558771+903725426
604+884821611+883534631+887718540
##END=
