##TITLE=Sample description
##JCAMP-DX=4.24
##DATA TYPE=INFRARED SPECTRUM
##DATE=25/8/2023
##SAMPLING PROCEDURE=Instrument type and / or accessory
##ORIGIN=Default
##XUNITS=1/CM
##YUNITS=ABSORBANCE
##RESOLUTION=4
##FIRSTX=4397.6552
##LASTX=599.8556
##DELTAX=-1.9287962
##MAXY=1.8606387
##MINY=0.6641534
##XFACTOR=1
##YFACTOR=1.7328549e-009
##NPOINTS=1970
##FIRSTY=0.75714219
##XYDATA=(X++(Y..Y))
4398+436933412+436072563+435611268+436066544+437297639+438129766+438333705
4384+438481164+438513118+438652873+438912706+439023292+439090365+439071413
4371+438759812+438256759+438403083+439277828+439976083+440457844+440254490
4357+439052839+438692188+439640645+440079755+440018666+440187864+439695199
4344+438618201+437752021+436811509+436305601+437025492+438114976+438801157
4330+439578765+440430396+440693049+440771681+440644928+439677415+439472583
4317+440940603+441960709+441556787+440977855+441039460+441385766+441494426
4303+441151283+440382722+440030292+440613765+440959143+440524918+440522476
4290+440941669+440545178+439696196+439635383+440546760+441425426+441589361
4276+442103249+443221179+443179662+441954517+441044172+440565609+440376668
4263+440555531+440401124+439809740+440055436+441462162+442490213+442381829
4249+442002054+441890677+441718246+441119501+440498398+440562032+440960691
4236+441029312+441220765+441834954+442215761+442236846+442214901+442049212
4222+441646185+441087168+440888939+441330628+441640440+441602913+441927481
4209+442546692+442517283+441968861+442379902+443469318+443407025+442322357
4195+441936906+442608160+442711935+441794641+441502991+442311900+443047303
4182+442793661+441964561+441704728+442079412+442258103+442117111+442335531
4168+442940570+442980952+442462489+442626699+443362000+443592733+444040786
4155+444979337+444587626+443037191+442385750+442825238+443297643+443310783
4141+443193971+443666549+444562448+444809141+444230381+443727293+443735652
4128+444170324+444973248+445585752+445250143+444341414+443804789+443514171
4114+443154484+443206904+443595003+443714016+443810706+444318987+444939540
4101+445437467+445830004+445973817+445714568+444908789+443989191+443961260
4087+444907516+445582897+445496458+445957616+447014320+446791600+445608660
4074+445475201+446282081+446692469+446437589+445965458+445513897+445171821
4060+445522118+446561073+446900191+446089527+444970909+444228936+444638980
4047+446091660+447338956+448155502+448688790+448375263+447760558+447551735
4033+447584206+448165271+448695153+448000407+446837382+446578994+447201060
4020+447642439+447334210+446779768+446116323+445028937+444382587+444790739
4006+445149566+445226994+445810260+446685108+447164186+447041527+446726109
3993+446439033+446161726+446146970+446089906+445826874+446170463+447060549
3979+447409676+447130787+446541914+445529960+444814232+445297129+446557633
3966+447583896+447942173+447809917+447662149+448046154+448757790+449000941
3952+449072555+449525664+449975849+450042407+449212068+447694894+447205359
3939+448198842+449145304+448662820+447541347+447629231+448388403+447902204
3925+446256111+445680997+446610742+447340848+447106331+446991824+448391429
3912+450726593+452047361+450864937+447062234+443036159+442273066+444621369
3898+447588058+449093158+448634030+447422093+448241047+450415543+450498198
3885+448008524+445589054+445175398+447566526+449211208+447626686+445232222
3871+444126847+444336736+445591152+446056025+446241527+447610003+448337633
3858+447450402+444889492+440996601+442297316+447385255+450596160+450768282
3844+448736842+445873412+442677572+440699241+442714824+446614044+449516927
3831+451096187+451425123+450744548+449491989+446783655+444377943+445926005
3817+447926832+449848649+452865042+454489843+453499628+451218054+449749105
3804+447585409+445216778+447076475+449913797+452116430+455457459+458144226
3790+458595375+457366928+455865542+455563126+455743537+454951448+454716690
3777+456319993+458022531+458211610+456545154+454941954+454936967+455672817
3763+456177934+455568113+454558602+454928987+455424128+453738514+450709154
3750+451851746+455995837+459199554+462647592+467671862+472129342+473509204
3736+471973903+472981454+478582077+484253282+486462313+484607500+481229460
3723+478653932+476320625+473765047+471548759+470051707+469061492+470375863
3709+476450439+484357229+490550405+494923682+500599152+507872732+514418269
3696+520230088+524105162+523329721+519276265+518328049+519539779+518231532
3682+513533893+506467864+498003708+488005834+482242962+482213415+480301813
3669+478181561+479675654+480987857+480332185+478379239+475347265+472070764
3655+470946161+470100482+464821882+457234603+458937004+466036020+470770841
3642+472741880+473246756+472690663+471506623+470093293+467865619+463818837
3628+460760687+461002703+460071547+455896843+448812068+441828350+437688662
3615+434805213+433396218+433704206+434252973+435452320+436962546+437176253
3601+436038785+434330882+432443289+430622942+428783642+426219155+421879863
3588+417097092+415766762+416342839+415676539+413372642+410775237+409009100
3574+407682897+406261106+404024145+399816730+396475116+397886967+400355108
3561+400596058+399338958+397976673+396669905+395516512+394800921+393873962
3547+392605133+392369859+393089543+393064846+391916819+390727412+390316371
3534+390134205+389302525+387852322+386654007+386273922+386476210+386629000
3520+386143524+385366913+385279752+385711294+385366122+384378075+384368856
3507+385037186+384772124+384153085+384586485+385517227+386168909+386353241
3493+385551418+384043050+383271220+383573155+383921148+383848192+383502126
3480+383308816+383760205+384534270+384871634+384932964+385221862+385289211
3466+384621638+383777782+383764780+384474592+384900080+385071961+385388755
3453+385415550+384905962+384190750+384098188+385056517+386031425+386405249
3439+386691465+387148530+387682402+388080063+388102112+387769804+387672289
3426+388265325+388757818+388728340+389238169+390620576+392258035+393996311
3412+395475924+396442164+397308757+397812635+397982934+398816781+399967525
3399+400656699+401579290+402977416+403889310+404482620+406244389+409138913
3385+411539637+413359296+415681802+418334620+420795917+423105868+425333954
3372+427642563+430208220+432912668+435716763+439003445+442796344+446799821
3358+450982230+454802785+458014688+461587483+465778181+469729134+473386201
3345+477230661+481037457+484789700+488547102+491797014+494723493+497963326
3331+501408234+504356589+507002493+510401378+513337281+514062778+514090812
3318+514555512+514771593+515585249+517354035+518326673+518472000+519056401
3304+519425341+519473428+520287394+520884900+520290076+518458688+514753500
3291+510665992+508039660+506131945+504211469+502249923+500101706+497911353
3277+495936530+494036073+492431669+492343441+493447166+492943700+489981207
3264+487356079+486764454+486664910+485693991+484538982+483911137+483319340
3250+482269309+480940355+479477735+478264491+478255651+478774492+477927747
3237+476535949+476274362+476131477+474942552+473365563+472493123+472467531
3223+472655751+472826496+472673190+471649404+470261562+469561312+469952129
3210+470905745+471441200+471212805+470681375+470418790+470450125+470592975
3196+470858897+470694549+469879104+469318264+469553573+470154829+470362345
3183+470223106+470313983+470178941+469627801+469655628+470215367+470460375
3169+470606355+471053135+471491729+471995435+473054960+474256440+475319610
3156+476567973+477157740+476831349+476813738+477279470+477624092+477675584
3142+477796660+478490960+479437181+479719407+479092216+478482051+478865678
3129+480251835+481842033+482440846+481831817+481440037+481939375+482300060
3115+482298168+482754339+483680472+484329884+484335525+484161958+484267660
3102+484680696+485062914+485318172+486178608+487252407+487330763+486997527
3088+487387655+488379142+488843877+488129663+487223995+486928148+486796546
3075+486811406+487294027+487866527+488353551+488951643+489249828+488953810
3061+488478549+488082917+487926859+488519997+489901304+491405269+492466066
3047+492502836+491625752+491183926+491650484+492282043+492753898+492886670
3034+492568190+492215657+492072291+492277950+492978475+493556994+493687909
3020+494494204+496524921+498335740+498726350+497921500+496600457+495729496
3007+495776413+496451966+497215987+497622695+498222988+499578531+501190399
2993+502484475+503576779+504618521+505210558+505754647+506934147+508193929
2980+508942163+509093061+508976353+509108437+509502624+510052285+510509280
2966+510494662+510290448+510655983+511668005+512223926+511874317+511808963
2953+512198541+512012317+511661676+512224373+513399471+513919929+513818871
2939+514306824+514969237+514966141+515180055+515873047+516098621+516084828
2926+516564663+517045118+516673013+515671619+515155633+515244033+515150371
2912+515069848+515357990+515619474+515764044+516042795+516323163+516710781
2899+517606783+518354879+518280100+518119123+518338850+518530096+518819029
2885+519601040+520577840+521240150+521616382+521816296+521886913+522282201
2872+522800836+523060841+523627287+524345114+524824743+525284525+525329894
2858+524975057+524985101+525076355+524292074+522971375+522451605+523139438
2845+523991446+524238725+524513074+525125852+525785720+526573510+527323326
2831+527897408+528408235+528916860+529494073+529941369+530190848+530504478
2818+530893334+531102191+531242393+531633278+532251113+533278924+534765002
2804+535842069+535982821+535849636+536127562+536535268+536504207+536332567
2791+536790423+537846267+538692634+539198749+539878188+540347292+540181603
2777+540023377+540246716+540723902+541463158+542162651+542599009+543123973
2764+543700738+544032461+544402089+544987763+545546229+545847132+545990739
2750+546187798+546308875+546503148+546877660+547241681+548080997+549335586
2737+549880121+549697784+549806375+550323255+550830333+551434237+552156329
2723+552940817+553862341+554658833+555133165+555074071+554595302+554671801
2710+555431385+555981424+556302759+556889362+557521368+557834689+557984728
2696+558147424+558345343+558505461+558527130+558829891+559906786+561355613
2683+562143196+561940496+561647263+561800123+561979536+562072270+562404749
2669+563198937+564034332+564132259+564026111+564676279+565405629+565568566
2656+565793831+566154137+566418992+567202517+568288148+568504229+568151490
2642+568338677+568802484+568976015+569252050+569804737+570307446+570698125
2629+570840597+570671468+570767022+571433322+572226409+572846824+573306881
2615+573825756+574611207+575159458+575182400+575393459+576135638+576789659
2602+576921192+577028338+577503943+577941057+578333043+579090873+579916602
2588+580287606+580095672+579601390+579479763+580148918+581328109+582393378
2575+582715263+582361045+582242101+582899286+583563419+583416957+583142402
2561+583593482+584410956+584956695+585204077+585262758+585010148+584832385
2548+585385348+586385744+587060059+587206727+587084274+587085100+587456241
2534+587944332+588345329+588801500+589182822+589428003+589822603+590243275
2521+590451995+590688164+591077398+591621486+592502044+593589395+594364974
2507+594360434+593864294+593759797+594103352+594452823+595065774+595912417
2494+596188485+595946676+596238911+597405031+598635267+599114964+599001111
2480+599056008+599530822+599878023+599731768+599509014+599563774+599817278
2467+600241941+600645965+600799719+601135982+602051418+602942708+603177225
2453+603134780+603269546+603539492+604192343+605134059+605464887+605260983
2440+605525632+606120421+606211435+606061602+606203248+606352255+606506422
2426+606967683+607569420+608180651+608871751+609237733+608766291+608263685
2413+608922590+610343865+611186518+610970162+610679096+611076173+611767755
2399+612596305+613427537+614063397+615919241+621352489+632077890+649315428
2386+673033597+700989107+730928486+762173016+793710607+824610276+854843472
2372+882523119+905782917+924970959+940287437+952525815+961562058+966143160
2359+965322315+955488067+936808821+914740941+894455503+883629182+888382131
2345+904948726+916647624+912921902+902081409+893519429+889868003+891556129
2332+895896316+897500720+895110281+891577042+888855087+884743294+875948035
2318+862625470+848880444+841188978+841000277+840684721+832384845+815994843
2305+797423947+782979910+773141396+764207586+754501156+743699463+731167750
2291+717989651+705967561+695189602+685458887+677535724+671912331+668207177
2278+665364764+662877739+661010062+659357778+657404109+655623524+654452245
2264+653304630+651980354+651092229+650403261+649356085+648107344+647065741
2251+646514498+646266703+645824292+645308753+645455696+646057364+646080548
2237+645469317+644868955+644560760+644593643+644870950+644878862+644424205
2224+644340001+645004960+645677211+645939590+646053237+646439444+647058242
2210+647381434+647676903+648404257+648970566+649025051+648932317+648829746
2197+649029797+649994696+651059346+651376346+651532508+651978841+652237092
2183+652259931+652242870+652319850+652903220+653935949+654771585+655044007
2170+654969710+655125872+655487932+655673675+656230697+657318117+657841705
2156+657449925+657079334+657212106+657439469+657630440+657897221+658259075
2143+658930363+659685717+659961097+660008771+660313458+660632935+660827759
2129+660929367+660799966+660905908+661529728+662095143+662361924+662625748
2116+662907113+662959741+662998540+663318637+663783337+664486958+665261987
2102+665477861+665427710+665824649+666362340+666437944+666376649+666733137
2089+667238082+667730369+668617256+669565850+669899362+670019888+670686360
2075+671503697+671797377+672119812+672725884+672948087+673012134+673427165
2062+673814198+673961554+674195383+674593079+675018911+675573319+676189365
2048+676502032+676631777+676875375+677084232+677334916+677729585+678102790
2035+678647979+679355246+679882549+680244196+680374079+680173752+680413704
2021+681471749+682059315+681815923+682119165+683135591+683889018+684123535
2008+684361630+684730157+684822134+684908470+685260418+685440657+685413071
1994+685491771+685772242+686095159+686324035+687038457+688328749+689053902
1981+689071926+689441485+690331399+691236723+691982170+692270484+691646526
1967+690657068+690716781+691825458+692668730+692887700+693132949+693800040
1954+694756959+695613714+696086670+696201280+696083574+695764578+695915168
1940+697272946+698765492+699273670+699295890+699592184+700235955+701198583
1927+701898283+701296958+700314723+700779355+701799082+702352733+703215680
1913+703948263+703555176+703129757+704171567+705788628+706744584+707284339
1900+707712785+707640345+706876461+706132596+705826465+705627170+706182334
1886+707717600+708983334+709548954+709921403+710298736+710630733+710816751
1873+710250167+708251507+706213291+707261912+710324052+712513407+713459388
1859+713913976+714687216+715817150+716263552+715803804+715172830+714548597
1846+713543522+713408962+715730470+717994949+718565247+718821985+719216723
1832+717942941+715184524+714459990+715972761+717727066+719696558+721419975
1819+722498589+723257313+723205925+721881098+720869076+721688476+723145455
1805+724024293+723962723+722964184+722239994+722314635+722147742+721200110
1792+720809844+722937630+725984222+727738734+727866346+727140986+726622351
1778+727029128+727045845+724872862+721788639+722461922+726076750+729238365
1765+731013721+730879849+729752459+729501569+730165427+731310634+730875790
1751+727291782+724776895+726997552+729614528+730321520+730127591+730096014
1738+730327780+728434581+724797189+725913709+729892867+733459401+735874331
1724+736281796+735820603+734030182+727719265+721857983+725743651+732241205
1711+735664580+735898891+733679816+731237025+730418106+728028492+723694841
1697+723091383+726255063+730757190+733761405+734204849+732601821+728009780
1684+722877710+725204929+729731065+732166151+731847637+729672246+726987577
1670+724462577+726341880+730960681+732181423+730362865+730271507+731379290
1657+730102550+723836280+715390492+716795808+718988328+717909988+719999731
1643+724590877+726812841+725883852+722066428+719169049+723368828+728548916
1630+730457525+731228219+733409801+735586843+738184626+741691998+743877088
1616+746105106+750499021+753982109+755612172+757115863+759240965+760575629
1603+761162301+762967100+765877894+767810994+768678894+770386075+773037449
1589+775166541+776474857+777461839+778491266+779431262+779141778+776537735
1576+774486929+777216246+780059141+780108741+780845864+783559220+785551482
1562+785239228+779760164+773577822+779929946+786867710+790827812+793821778
1549+796694323+797652755+794716714+788414671+782976883+789400552+800742068
1535+806040137+807342537+810563039+814040073+814255535+813037613+811915796
1522+811146615+812732858+815444150+820592524+827364427+830799084+829959252
1508+826146024+826498247+836052230+843965762+847151111+846170321+846700376
1495+852968847+857803316+856024864+852651502+856569434+863931241+869558831
1481+873127636+875221988+874722202+871022828+867481953+869940017+876322891
1468+880690596+882627479+885769970+889961081+890656584+885818263+884110256
1454+891559569+899807919+905692935+909099799+913375114+919229860+922709783
1441+923814608+923843777+922016826+922064568+925850623+929927262+933422182
1427+936443321+937213878+935269909+931811931+927254631+924961604+925195777
1414+924083660+922318417+921092171+918914441+914558707+909320282+905665899
1400+902804980+898201864+893021983+891476260+892891275+891923624+886168078
1387+880255958+880848064+884878061+887500335+888273987+886551602+882246500
1373+881212670+885393600+887838799+886865095+885288002+882575265+880468049
1360+882336413+885352118+886599827+887388820+888314094+888677737+889960462
1346+891737744+891518155+889109279+885914024+884641755+887684839+893295506
1333+897159572+897761516+897593729+898047010+898916767+900060873+900622916
1319+900131524+899495596+900001435+902191479+905348829+908638607+912572086
1306+917404147+921913566+925457468+928419994+930657574+932510392+935800926
1292+940645577+944010408+945020986+946234642+947499481+947506429+948234540
1279+950641077+952980610+954319126+954850625+955443626+955910391+954999632
1265+953741604+953172750+953670196+956793700+960173047+960252022+960219896
1252+963202304+965702881+965200276+964184951+964423527+965769267+967957729
1238+970067077+970872788+971097330+972448986+973702405+973228555+972690108
1225+973096747+973201726+972970579+973471396+974361104+974309165+973315304
1211+972048126+970266923+969579537+971962822+974995725+975394521+973635332
1198+973254834+976155653+978824913+977803466+975074562+974590530+976760142
1184+978419444+978469112+978751785+980846412+984468119+986411675+984806790
1171+982328501+980819583+979816848+979786785+982087104+986541902+990231301
1157+991376233+991325394+991093285+991626297+993780018+995285222+994608086
1144+994523677+996101320+998900599+1003526486+1007317081+1007999582+1006910855
1130+1004911163+1001761931+998361051+999000006+1004105178+1006315034+1003574160
1117+1001956479+1003868734+1007685540+1012373891+1014820191+1012473641
1105+1008679538+1008066725+1011801597+1015312202+1013844354+1011561301
1094+1012853313+1015121919+1017048552+1019841365+1023009997+1025646030
1082+1027545902+1030173954+1034725888+1039496379+1041702864+1041314593
1070+1042039540+1044736386+1047003066+1048687683+1049327669+1048130936
1059+1047034711+1048931006+1053520019+1055241716+1051057759+1046019593
1047+1045185746+1048626112+1053184650+1054665982+1053117370+1053291899
1036+1056588350+1059275703+1058730032+1055382399+1051612579+1051030310
1024+1053701565+1055887481+1055837056+1055476784+1057131063+1059382677
1013+1060653156+1060801338+1058859020+1058253155+1061810127+1063319045
1001+1058221303+1052457777+1050285207+1049672256+1051038153+1054199700
989+1056030090+1056079622+1054497988+1051892982+1050344920+1050410824
978+1051591597+1052742308+1051767227+1049311984+1048608295+1049441110
966+1050247990+1052364562+1055273774+1055285675+1052394350+1051752712
955+1055744322+1060676753+1063592569+1065200481+1064429580+1061868670
943+1063079300+1067806726+1069976062+1067796063+1063778793+1060804158
932+1058992273+1058624640+1061803592+1066625746+1070023668+1071710349
920+1070050841+1066347545+1067415221+1072624822+1073741823+1071794621
908+1072454420+1072284087+1068592417+1067399743+1070514303+1071464962
897+1067476723+1063212346+1063112114+1067188959+1072369185+1072705310
885+1065822168+1059516549+1057535225+1055482149+1054172939+1054173489
874+1051631429+1047811390+1044023684+1039062979+1035808699+1036910979
862+1040914146+1043687559+1042972587+1042160754+1040237836+1032929481
851+1025169772+1019306633+1011630851+1005746386+1005301360+1006257178
839+1004752044+1001178217+996649123+990045283+981841993+976354329+975788089
826+977605822+980026186+982425431+981187766+976257261+973317024+973452960
812+972906257+970354497+966423563+961475310+957790863+956956810+955362243
799+949674046+943569029+942131587+943742526+942998180+938688743+934381371
785+931190037+926418032+921401398+919500081+919531726+919359192+918876811
772+918139963+915257856+909346906+904798687+904666259+904558322+900143494
758+895604287+896086255+898304848+896987657+894067576+893595583+893927513
745+891315351+886520852+882577122+880739370+881646345+884929519+886748627
731+884309964+880942449+880851779+883681190+887383454+890854366+891901335
718+890253110+888624284+886310963+882488516+880099246+879485539+878875684
704+879554263+882290459+883425072+880718939+878547745+879242904+879008799
691+877399924+876968657+877035249+877502151+879318233+880051091+877425446
677+874550494+876174228+883614254+892947204+892982358+875552541+861401220
664+858950449+860210609+861720078+861662567+858053036+853660841+850329237
650+846106275+840110020+835914162+838528799+843010839+841399762+837276756
637+831010830+818376339+808905527+813331156+822230912+821346227+817487457
623+816895420+816220280+823515632+835569506+831423523+814954271+802284558
609+795126173+794198147+798987419+800412134+797718040+798168363
##END=
