##TITLE=Sample description
##JCAMP-DX=4.24
##DATA TYPE=INFRARED SPECTRUM
##DATE=25/8/2023
##SAMPLING PROCEDURE=Instrument type and / or accessory
##ORIGIN=Default
##XUNITS=1/CM
##YUNITS=ABSORBANCE
##RESOLUTION=4
##FIRSTX=4397.6552
##LASTX=599.8556
##DELTAX=-1.9287962
##MAXY=1.9377134
##MINY=0.62485403
##XFACTOR=1
##YFACTOR=1.8046362e-009
##NPOINTS=1970
##FIRSTY=0.73549718
##XYDATA=(X++(Y..Y))
4398+407559800+408107282+408150286+407645113+407555936+407583547+407404334
4384+407716488+408339969+408713457+408905155+408750713+408565984+408714018
4371+408774031+408644592+408232758+407740400+408240553+409440383+409643443
4357+408932073+408962096+409695100+409651403+408962955+408482653+407928465
4344+407754239+408513204+408778853+407837703+407367904+408153952+408770761
4330+408784468+409238876+409887525+409552417+408339341+407622290+407710675
4317+407779936+407961428+408386671+408582927+408612917+408640298+408579724
4303+408362296+408181927+408359588+408634485+408614734+408496921+408239925
4290+407862144+408165446+408964672+409164892+408663352+408025206+407920274
4276+408780108+409936011+409908333+408760423+408399553+409018146+409241023
4263+409083014+409188871+409742827+410391839+410367464+409765451+409075450
4249+408283556+407618921+407308683+407456387+408441103+409733711+409972541
4236+409330795+408931908+408644889+408274242+408179417+408037096+407614231
4222+407524690+408024876+408285637+407780794+407325627+407863927+409018146
4209+409560178+409417131+409460960+409656424+409395299+408639803+408078514
4195+408309913+408756063+408526250+408220504+408617013+409000839+408893694
4182+408822748+409225004+410157204+411081543+411347819+411087818+410630405
4168+410008674+409483948+409152770+408817232+408527076+408333033+408657209
4155+409759011+410562068+410388536+410035163+409908267+409751084+409646614
4141+409375713+408717552+408397439+408644955+408704869+408473570+408488664
4128+408848511+409448608+410018120+410012208+409681790+409704877+410000879
4114+410181579+410018616+409656985+409425455+409298063+409117099+409033537
4101+409439624+410019177+410057127+409658405+409158121+408880879+409012068
4087+409174833+409280690+409595585+409875800+409716569+409706759+410174775
4074+410119122+409385919+408702062+408362098+408583159+409161655+409268668
4060+408815680+408872225+409365409+409256579+408830708+408835729+409287824
4047+409469548+409173479+409441804+410285421+410598004+410226531+409569624
4033+408898384+408710946+408989246+409034131+408885602+409259288+410125926
4020+410712547+410798487+410727971+410610621+410286246+409356689+408132549
4006+407711335+408430434+409661939+410327103+409933204+409444941+409945754
3993+411047688+411443701+410606129+409460564+409022406+409111617+409306585
3979+409598855+409714191+409724793+410409773+411607821+411802557+410660130
3966+409749531+409757029+409745898+409231444+409077663+409674391+409968841
3952+409552119+409272664+409612264+410437022+411142976+411136370+410864247
3939+410550806+409795243+409019533+408699783+408868064+409777374+410823556
3925+410778505+409939941+409430508+408996644+408423201+408571070+409421293
3912+410171274+410580664+410381534+408944228+406472167+404811257+405355635
3898+407477129+409387736+409681096+408337723+407697694+408282202+408481761
3885+408639274+408584744+408016123+408914370+410298698+409881018+408108273
3871+406314819+405791910+406582318+406805327+407139775+408665037+409668413
3858+409090742+406316603+402023939+402908511+407176833+410129030+411130392
3844+410549947+409100486+406988174+404974947+405156010+406567554+407831229
3831+409267809+410185179+410130880+409822789+408084691+404712039+404103586
3817+405707918+407961098+410558667+411936488+411393366+409713530+409004274
3804+408750151+407825482+408209242+409398338+410683911+412460421+413617084
3790+413952820+414158753+414122917+413848020+413340238+412179843+411902568
3777+413489395+414566888+413638784+411527000+410841127+412200255+413555023
3763+414092762+413772021+413179190+413357248+413153758+411000656+408308460
3750+410546479+415657328+418447553+419905072+423362773+427273890+429343298
3736+428400397+426690737+428834360+433273010+435784903+434971672+432726585
3723+431122054+429803089+428471970+427415318+426064613+424299101+425698293
3709+431731598+437841892+442515905+446937776+453347509+461807856+470026367
3696+476962213+481988178+484530952+485879412+488228704+489868840+488558660
3682+484075818+477501041+469874238+460304360+452743283+449905497+446115859
3669+442762562+442812204+442871160+441391082+439650903+438431751+436201889
3655+433226011+430825193+426541414+420566900+420924864+425727721+429306306
3642+430630721+430415407+429678274+428989793+428225676+426424096+421965794
3628+417350276+416763126+416340987+413065043+406843541+401382721+399387099
3615+397681567+395483380+394491002+394319452+394415070+394867396+395007966
3601+394197477+392591064+390832554+389399773+388330867+386849303+383886999
3588+379993849+378132092+378241714+377708896+375754394+373702723+371992633
3574+370358112+369589305+369276458+367020042+363158236+361707718+362049664
3561+362402674+362509554+361985225+360728915+359166695+357910220+357361713
3547+357228443+356768321+355977385+355536585+355468480+355128219+354331635
3534+353771701+353278451+352462512+352425322+353330240+353378363+352212618
3520+351201512+350426892+349534690+349085930+349046593+348850535+348482167
3507+348231876+348068781+347878734+347505874+346849364+346678837+347426011
3493+347944362+347549042+347126210+347125351+347176678+347368607+347381620
3480+347019098+347044332+347184340+346728645+346542495+347492035+348657384
3466+348714821+347685814+346603004+346249300+346563898+347129645+347581311
3453+347557729+347159602+346920111+346899436+346832057+346810522+347206172
3439+348051044+348784643+349162953+349321986+349429989+349703466+350051060
3426+350502660+351062297+351569154+352101807+352359958+352301366+352571176
3412+353157434+353567121+354058125+355074085+356172122+356841480+357380705
3399+358265674+359479277+360530149+361464595+363070446+365121425+366600909
3385+367767380+369462772+371495915+373272426+374774567+376630313+379194821
3372+381955155+384652272+387595419+390492128+392833659+395181532+398363905
3358+402194994+406209425+410437617+414568803+417942413+420747104+423584362
3345+426626066+430140708+434442091+439024746+442741853+445322247+447490741
3331+449664454+452123633+454978561+457631552+459319612+459789345+459975197
3318+460816766+461814494+462770970+463992567+465050573+465740673+466109767
3304+466093319+465958695+466057582+466251526+465724720+464023118+461631318
3291+459278095+457328878+455312778+452845143+450445515+448406361+446470884
3277+444388330+442278462+440868833+440313325+439573286+437956072+435959723
3264+434191173+432900745+432539213+432630736+431720665+430086475+429060309
3250+428359970+427405806+426607273+426168125+425973058+425711009+425039867
3237+424323972+423726517+422852712+421732843+420631669+419657391+418813113
3223+418011377+417555251+417743217+417726009+416825385+415790103+415598008
3210+416202696+416510985+416083001+415492548+415113611+415095907+415402314
3196+415675758+415619708+415685270+416087757+415901079+414763441+413592940
3183+413142198+413329603+414165689+415514611+416624108+417115343+417290824
3169+417648194+417754645+416908650+415716845+415307852+415981404+416746909
3156+416796584+416826805+417717422+418948068+419188649+418251429+417997538
3142+419842252+421689246+421380890+420413119+421078315+422982382+423208694
3129+420860392+419245986+421269782+424292363+424144329+422647142+423812755
3115+427078889+428220853+426119936+424262571+425108864+427414195+427420339
3102+424642268+423295262+425725772+428983980+428442542+425324243+424809790
3088+428209326+430907897+429035703+426046447+425922458+427797757+428524849
3075+427029709+426096155+427566589+429758600+429599171+426895085+424857285
3061+425422471+427555690+428284665+426835072+425624837+425939798+426749362
3047+426421586+425367048+424974569+425021734+425070088+425385941+425796388
3034+425899173+426090640+426816146+427544196+427901764+428526731+430738361
3020+437987416+451015523+460093637+457154916+448453460+441786699+438220929
3007+436137021+434635045+433638307+433047293+432629844+432360231+432650024
2993+433606104+435321743+437207677+437705748+437024368+436715220+437939096
2980+440322738+441511934+441029022+440673601+441120016+442180004+442681477
2966+441447032+439940366+440227781+442668497+444907672+443747377+440802446
2953+439887256+441732532+444405571+444984199+443555051+442929390+444198449
2939+446247181+446564982+444538544+442893917+443394697+445724140+447838962
2926+447057868+444406991+442864555+443035412+443897426+443842235+442252898
2912+440615074+440725985+442774221+444589739+444407322+443489027+443513138
2899+444632610+446150803+446913798+446356506+445302827+445080247+445961285
2885+446666248+446420581+446028432+445906524+445900810+446292959+446834661
2872+446691515+446079693+446144858+446999243+447546064+447426501+447419433
2858+447996377+448776777+448954306+448217602+447177960+446355614+446121903
2845+446779602+447615590+447977583+448365141+449115056+449788576+450116385
2831+450350822+450757867+451218285+451569479+452093511+452858421+453437214
2818+453685656+453839239+454159121+454584430+454917095+455247348+455581465
2804+455811080+456087001+456557164+457110723+457617052+458028226+458343352
2791+458576699+458575014+458340676+458302859+458737515+459327043+459569935
2777+459469661+459494564+459878423+460210658+460120589+460154575+460855971
2764+461649153+461899576+461867340+462029511+462664354+463593218+464138124
2750+464141559+464058360+464102321+464346898+464760515+464960272+464883382
2737+464920176+465062727+465235401+465855810+466904436+467644046+467932353
2723+468162232+468238528+468307327+468874032+469752890+470470338+470845774
2710+470858689+470810929+471096131+471560580+471836270+471964685+472228121
2696+472730718+473125311+473178454+473277507+473616017+473857852+473880906
2683+473949011+474183548+474405566+474472977+474526583+474760690+475142170
2669+475553773+475941199+476303093+476651347+476960462+477083395+477085178
2656+477348581+477695349+477727585+477667175+477767054+478045386+478490744
2642+478976001+479237686+479299252+479505780+479736881+479721324+479817702
2629+480229800+480424702+480343418+480694281+481517190+482168217+482526478
2615+482975502+483469676+483758644+484080607+484446002+484559588+484798814
2602+485601575+486422831+486606206+486408596+486314663+486344884+486461970
2588+486762432+487127299+487380926+487554458+487752399+487950108+487953708
2575+488000609+488532634+489201397+489418792+489255531+489088076+488948860
2561+488776550+488924023+489597972+490344254+490668363+490662154+490750142
2548+491111541+491389841+491209868+491010474+491384226+491979798+492234977
2534+492360981+492694306+493004213+492917778+492567905+492626333+493275907
2521+493832175+494008383+494117740+494279349+494561546+495024409+495530110
2507+495835460+495773795+495555840+495478156+495631409+496120332+496754845
2494+497109836+497352762+497876728+498292921+498095410+497708876+497847563
2480+498505527+499070151+499195792+499151599+499381743+500051035+500733373
2467+500817794+500383567+500150880+500535168+501146990+501506012+501566058
2453+501380701+501156965+501202280+501481835+501815159+502136528+502337276
2440+502387744+502585585+503152389+503690492+503784194+503665687+503641015
2426+503806785+504094465+504172775+504213037+504688352+505304765+505736350
2413+506142338+506425129+506394710+506183261+506048041+506343780+507171774
2399+507950523+508540844+509980693+513473866+520264286+531716729+548351792
2386+569503056+593447089+617721275+640847387+663509380+687043461+712006228
2372+738098640+764043613+787526235+806156293+819471649+828726070+834317221
2359+832950497+820694567+801840311+781977163+763533849+753462366+757808734
2345+771837112+778375458+771152032+760704155+753320541+750663190+753421410
2332+757949436+758015757+754016057+751526822+751392066+749566376+743824548
2318+734176954+723018631+717992071+721981995+725942126+720771694+706017875
2305+687487762+673037609+664625219+658063555+650404482+640913312+628900406
2291+615892943+604660636+595123225+586163221+578446744+572386983+567222827
2278+562564668+558640207+555486701+552856467+550567649+548384755+546146834
2264+544221959+542960795+542060699+541081136+539912088+538694157+537581555
2251+536537157+535577379+534924997+534687323+534602539+534290121+533699735
2237+533026248+532520316+532488542+532756834+532717827+532453994+532377170
2224+532404947+532649689+533354751+534315256+535215088+535892307+536256348
2210+536308170+536292812+536307840+536166840+536137577+536636970+537360792
2197+537883239+538339595+538844173+539260400+539547287+539738820+539896003
2183+539991191+539999085+540135526+540568466+541050056+541221838+541388170
2170+541907512+542171939+541832570+541591065+541832207+542119688+542199155
2156+542186769+542089334+542098847+542278225+542342829+542331005+542392174
2143+542656337+543118638+543559141+543950101+544183316+544417357+545112708
2129+546076616+546798621+547178384+547290583+547103773+546930637+547331472
2116+548158277+548579491+548317607+548052388+548202305+548544613+548899737
2102+549238115+549618407+550061651+550372846+550401912+550402209+550669542
2089+551169299+551686824+551835189+551593881+551656140+552335902+553087138
2075+553588678+554056793+554534948+554925214+555341507+555914421+556497244
2062+557049285+557768846+558602026+559381370+559989030+560431416+560966281
2048+561787174+562764821+563608637+564242522+564654455+564858109+565109061
2035+565539556+565990529+566282700+566577249+567025183+567234651+567090778
2021+567178040+567687869+568060829+567970462+567821173+567932017+567948201
2008+567744943+567862591+568150336+568076022+568027602+568267324+568449840
1994+568529967+568642793+568871351+569076195+569059548+569188756+569804410
1981+570569551+570896732+570749292+570906905+571663458+572177384+572038201
1967+571994868+572550013+573213624+573647356+573893419+573949369+574044360
1954+574500881+575271175+575943307+576216916+576160768+576057190+576510409
1940+577624926+578583285+579087434+579444671+579846894+580230290+580430377
1927+580306982+579953246+580057286+580802676+581325849+581770877+582763585
1913+583541805+583480042+583210925+583392186+584018408+585032387+586025822
1900+586427978+586290910+586004552+586051320+586448456+586702050+586945141
1886+587453980+588066330+588727365+589223058+589507039+589939515+590553187
1873+590648508+589249746+587175086+587421942+589575474+591170756+591889789
1859+592251056+592415737+592612852+593096589+593768854+594036782+593268536
1846+591703772+591158602+592662791+594251270+595139013+595941080+596169176
1832+594745180+592619788+592513436+593924815+594972549+595748127+596414644
1819+596909347+597338191+597592048+597329669+596752527+596861521+597695032
1805+598582313+598999860+598397484+597535636+597557633+597702959+597116238
1792+597157062+599141025+601176843+602111090+602152640+601832923+601843228
1778+602155217+601716927+599750403+597637628+598767603+601749955+603825144
1765+604643131+604405324+604162630+604483867+604740036+605302580+605533648
1751+604054164+602504329+603262138+604485122+604631769+604386300+604868452
1738+605732547+605158972+603103534+603476890+606116868+608544934+609774655
1724+609783441+609184103+607630503+604241899+602093585+604784691+608395182
1711+610429679+610212218+607950484+606350908+606307707+604441590+601259877
1697+601349252+604278759+607407824+608589126+608105323+606922171+604231065
1684+602223190+605343601+608229841+608406676+606768324+605129378+603685102
1670+601873218+602945790+605991953+606634360+605431854+605741068+606801287
1657+605879260+601321905+596531962+598891130+600263668+599305904+601697110
1643+605819214+607793136+607247966+604325792+602353851+606241584+610849737
1630+613337981+614869980+616110007+617175642+620209189+624153071+625968984
1616+627203330+630750009+634323442+636397309+637532965+638792016+640465510
1603+642628026+645268928+647346825+648075436+648450179+649730963+651714596
1589+653839789+655918412+657940953+659775495+660612968+659897172+658029668
1576+657675997+660480391+662373526+662696083+664431077+666714742+667822852
1562+667711017+664272672+660435671+666170760+673086491+677812821+681033772
1549+683816565+685293803+684332406+681600146+679840844+686291928+695001972
1535+699044080+701090732+705083430+708971361+710357109+710041620+709317302
1522+710756491+716863880+724265263+732115308+739536046+743924427+744177162
1508+740443540+742141013+754097176+763296637+768034857+770220097+773963495
1495+779813392+783060171+783805693+787303622+795677633+803605558+808865630
1481+813181282+817328620+819913506+820098070+819921235+825763469+835480357
1468+842069765+845902538+850842035+856378556+858867329+857117935+857945830
1454+865653191+873653582+879492777+882368249+883487853+885511120+889580445
1441+894956249+899416500+902332795+905563060+908850795+910147036+910210055
1427+911327677+912088591+911629559+911159892+909681729+907285305+905965547
1414+904723473+902379035+899349848+896919206+894285372+890350408+886333929
1400+882166312+878132659+874985295+871984711+870557611+869604537+864964742
1387+858345146+857437916+861766647+865108483+865037009+863249236+861214276
1373+860767201+862756911+864683999+864979143+864149134+862934341+862603724
1360+863088320+862856195+861962837+861580234+862538130+864186390+864863543
1346+864769213+866116450+868431823+868438164+866418530+865677698+866511869
1333+868161120+869643379+870175470+870022547+869382981+869550172+871358092
1319+873667850+876010438+877933959+879346725+882012927+886282603+891310748
1306+897000258+901641242+903328608+903639473+905284893+908784342+912973097
1292+916822451+920024047+922958442+926114194+928183570+928332925+929275033
1279+932221583+934670787+935606290+936038766+936711097+937378738+937248605
1265+936594704+935786428+935292980+936542717+939823450+943853999+947013781
1252+948493991+948916427+949284829+949481613+949246780+950036362+952085986
1238+953062246+952288716+951542137+952484840+954974669+956342913+954517553
1225+951436379+949428173+948068252+947573880+949314951+952017551+952433909
1211+950413351+948735563+947623159+946250027+946456125+949039624+951837479
1198+952816579+951652650+949457436+948067988+948302161+948823221+948672808
1184+949080448+950533971+951021672+949857016+949230331+949257679+948610384
1171+947905355+947792992+949086591+951821625+954296988+956014410+957272734
1157+957769683+957684932+958600683+960937524+962794063+964001523+964945283
1144+965217505+965929206+967521053+969040370+969953479+971652735+975085598
1130+976556032+974656358+973520966+974397215+976190273+978548318+979333475
1117+977972828+978773376+982843955+984631067+982664675+981865383+983392230
1103+984154530+984928919+987686149+989448292+990204647+993248168+996768887
1090+998794533+1000581051+1003421974+1007773495+1013187348+1018292186
1078+1019991971+1018133913+1017073298+1017036966+1016232918+1016525287
1067+1017906610+1020991483+1027848159+1033191925+1034188266+1035929271
1055+1038272916+1038004591+1036706104+1038077188+1040498186+1039837548
1043+1040066238+1044175989+1046737094+1045202188+1042573308+1040575341
1032+1038720388+1037825114+1038363546+1037799021+1036966634+1039789656
1020+1044119510+1044072411+1039904794+1037428440+1038973321+1041328195
1009+1043245639+1045888391+1046952243+1045211436+1043190745+1042059515
997+1042201208+1043299211+1043225954+1041126985+1038511647+1037891369
986+1039915627+1041133459+1039480640+1038674676+1040436621+1041802685
974+1043189358+1045339521+1045035658+1044116207+1047234307+1051646204
962+1052685483+1051286655+1050277697+1050744853+1051362422+1049873426
951+1046426031+1044042752+1046306071+1053012995+1058830061+1060319322
939+1059885854+1058466284+1054346823+1050460279+1050355710+1052874671
928+1057269327+1062416375+1063830264+1060484201+1057992654+1060672596
916+1065564663+1067463743+1064393666+1058369642+1055249891+1056444999
905+1058511996+1062465654+1068183436+1070584485+1070499469+1072444723
893+1073741823+1069956875+1063783958+1058764268+1056046740+1057272101
881+1060828029+1061305953+1057942979+1054371726+1050493307+1045936481
870+1041512429+1035077397+1029353603+1029798829+1033200446+1033735180
858+1032047946+1030760424+1029791695+1028350722+1026647502+1024283776
847+1019957885+1014074101+1009013588+1005903679+1003159199+999281044+995703120
833+993301146+990384653+986608359+984582581+986405959+987745997+983141741
820+975942096+971303755+969309685+967620799+966354680+966723610+965271738
806+960259116+955912550+953818007+951692813+949801727+950457411+951760456
793+950045808+945968689+942142522+940047450+939583068+937302904+930810798
779+925090704+923761103+923398383+922618115+922821439+922112843+917754519
766+911365264+907121417+905582415+905056137+905626145+907204318+908062798
752+906361890+902759723+898924374+894348655+890478889+890335743+891779424
739+891614281+891024258+890714119+888747595+886040569+886540623+888312014
725+887009299+885455897+886827906+890195239+892229010+890913612+890142988
712+891565399+890829785+885706055+879790101+878317685+879843277+879527788
698+878064025+876337289+873382813+870107827+866112883+863820763+868782917
685+876501639+878213777+878107623+882238248+885788759+884103771+880004721
671+877390704+876633952+874489998+872843918+875644613+877530877+869825564
658+855765875+848008179+852419481+861193468+862814843+858077218+854780962
644+854185125+852595656+849408064+845098886+837492791+833424722+839972316
631+843544031+839100624+842755175+842880221+819133502+800425167+805760808
617+807444805+794300934+790111451+796041674+802020251+814755955+833129908
604+839644738+834440484+826373045
##END=
