##TITLE=Sample description
##JCAMP-DX=4.24
##DATA TYPE=INFRARED SPECTRUM
##DATE=25/8/2023
##SAMPLING PROCEDURE=Instrument type and / or accessory
##ORIGIN=Default
##XUNITS=1/CM
##YUNITS=ABSORBANCE
##RESOLUTION=4
##FIRSTX=4397.6552
##LASTX=599.8556
##DELTAX=-1.9287962
##MAXY=1.9485257
##MINY=0.79513216
##XFACTOR=1
##YFACTOR=1.8147059e-009
##NPOINTS=1970
##FIRSTY=0.86078054
##XYDATA=(X++(Y..Y))
4398+474336099+477545779+478601789+477731749+476730426+476562718+476598782
4384+476664637+476935315+476499819+475519746+475190702+475171290+475208602
4371+475809475+476361770+476382200+476550171+477027413+477190425+477087980
4357+477318489+477779703+478248078+478940326+479531543+479222764+478066016
4344+477480876+478054849+477945310+476564064+476077592+477065186+478004957
4330+478382415+478570159+478305524+477146839+475961319+476023988+476703788
4317+476741495+476684278+477477723+479069179+481162019+482572168+482385639
4303+482089046+482125734+481124411+480094545+480346403+480700311+480972764
4290+481847271+482165280+481819878+482056791+482448636+482438093+481926461
4276+480834255+480639351+482202001+483794146+483907134+482980665+481924228
4263+481070216+480651241+480585681+480483105+480956965+482665908+484513788
4249+484614853+482962863+481864416+482471201+483830276+485123627+485921276
4236+486052231+485834368+485436315+484609630+483757228+484055726+485508607
4222+486604197+486238135+485378868+485389149+485617096+485502038+485906332
4209+486877700+487201522+486216359+484751292+483981923+484343353+485529201
4195+486912976+488069822+488581815+488184682+487208978+486190772+485660287
4182+485791570+486410212+487158593+487215777+486670709+486659837+487272501
4168+487678896+487361348+486758011+486941420+488101747+489083790+488906820
4155+487997431+487213478+486834048+486589055+486261817+486347970+486925293
4141+487303113+487327189+487397149+487696929+487887267+487717588+487167823
4128+486409227+486465721+487801180+489495671+490559663+490138093+488620310
4114+488003803+489164097+490931965+491852653+491746431+491347393+491128216
4101+491374622+491697919+491067288+490179446+490495188+491250664+491693288
4087+492501020+493036071+492672013+492333148+492126288+491971356+492411287
4074+492689914+492152433+491759405+491846248+491817344+491844475+492548482
4060+493604558+494142269+494004286+493296962+492600804+492820507+493434584
4047+493756928+494302423+495064764+495484494+495579023+495113112+494113563
4033+493706017+493752099+493296370+493257613+494028165+493983626+493110925
4020+493357003+494817997+495686165+495682256+495839520+495553076+494158101
4006+493384889+493740012+493656520+493290031+493662267+494643785+495934673
3993+496971994+497025795+496706637+496673759+497006613+498115013+499010344
3979+499021774+498995366+498505839+497580093+497132017+496751766+496169878
3966+496001546+496361564+496717312+496975640+497371197+497648773+497247468
3952+495868227+494186315+494062554+495561123+496220690+496325729+497956172
3939+500043823+500936855+499866491+497201025+495607763+496112859+496739055
3925+496770948+497484743+499000162+499690013+499426166+500435503+502353343
3912+502612230+501218044+499426987+497420958+495584049+494387887+494440505
3898+496144981+498268827+499451621+499204525+498972046+499230670+498557866
3885+497751579+496672346+495122145+497296966+501261203+501762423+499325429
3871+497155337+496876152+498235029+498847267+498664614+499810489+501509480
3858+501736245+499585564+495840866+496001119+499418907+501944878+502384645
3844+501256111+499543128+496816176+494112249+495255595+498444780+500079263
3831+501122201+502786803+503599955+502936381+500938004+499059710+500016561
3817+500873463+501765280+504777264+507120188+506773637+504464084+503536925
3804+503774988+502256252+501888549+504235907+507044086+509568382+511257848
3790+511620658+510583336+508897581+508538647+509113835+508202442+507548327
3777+509255136+510342415+508859415+506465022+506733598+509557806+511252133
3763+510855788+509304601+507854742+508167495+508510072+506060532+501127161
3750+499916186+502786606+504157669+504141707+505957397+507719616+506252217
3736+501659288+500470582+504601311+508831299+510506675+509382346+508174458
3723+509644714+512302954+514106886+514790135+513957243+510603306+507055122
3709+508390909+512263769+515008918+515937948+516320104+517474881+519053559
3696+520670864+521424501+519874365+517083955+517376213+520320864+522148642
3682+521199773+518303569+514377762+508934894+506505488+507761395+507300214
3669+507887784+511698829+514413103+514295188+512452663+510050749+507613000
3655+506330126+505147431+500631787+493667359+492861794+497214689+501273552
3642+502733561+501461789+499353479+497595563+495875978+493413694+487855572
3628+481877324+482801494+485834072+485895723+481615711+476486319+475533870
3615+476494104+476604989+475762868+473867199+472130107+471601658+470828249
3601+468915598+466560489+464621299+463340823+462858949+462850508+461268578
3588+457502530+456035394+457525062+458760606+458612342+457555543+456357837
3574+455382560+454344943+451938824+447021515+443213360+444361469+446327295
3561+446912862+447660882+448268488+447415757+445907860+445160038+444685160
3547+443652239+443155388+443938125+444591386+444162294+443108025+442494900
3534+442665007+442453220+441315358+440487984+440625508+441318347+442122861
3520+442354454+441966912+441655078+441080153+439686196+438728262+439004984
3507+439555406+439670135+439498617+440105960+441219319+441092207+440007555
3493+439178375+438585910+438565940+439195093+439453914+438881650+438160333
3480+438267967+438960544+439283381+439282034+439923307+441466381+442235685
3466+441199940+440129444+440085990+439999508+439799381+440150695+440691790
3453+441514664+442404510+442042292+441034071+440904233+441266714+441795820
3439+442754477+443804149+444420886+444135099+443293305+443297082+444736760
3426+446877192+448387815+448343671+447359756+446869539+447679965+449300456
3412+450771172+451828398+452428713+452853600+453846909+455155468+455568859
3399+455268324+455672749+457451324+460379881+463269483+464928896+465607973
3385+466523012+468481252+470573599+472048453+473694925+475885742+478679929
3372+481895652+484191279+485348585+486960076+489587934+492431421+494983899
3358+497961723+502176832+506250509+508655281+510639042+513967819+518339436
3345+522442345+526191182+530053302+533473586+536124041+538659341+541367472
3331+543510598+544671123+546083374+548575810+551358665+553712363+554887832
3318+554575473+553705137+553409660+553935448+554357117+554812156+555815844
3304+555866558+554440544+553093031+552368725+551499112+550447437+549446343
3291+547968336+546178856+544769100+543722188+542514924+540922713+539497028
3277+538521193+537933984+537781746+537168589+535372211+533682909+532940243
3264+532269705+531662428+531456422+530973858+529884247+528599994+527121230
3250+525271676+524263784+525001786+526214962+526652462+526331990+525948947
3237+526222549+526481206+525376354+523271460+521450974+520654934+521165384
3223+522034077+522001955+521339497+521119564+521640327+521904831+521042608
3210+519811794+519670034+520759317+521779657+522060419+522237981+522492566
3196+522231544+521840093+522044621+522633472+523519245+524858547+526751950
3183+528853888+529547549+528301364+527008571+526977926+527703414+528022638
3169+527403043+526710795+526902743+527994063+529303147+530227119+531066712
3156+531706900+531634838+531821991+532818814+533516975+533709645+533809955
3142+533399815+532735124+532819340+533833965+535399079+536846836+537127729
3129+536741796+537362409+538768584+540016445+541116698+541879104+542018795
3115+541461114+540884186+541193523+541594762+541198417+540853508+541008013
3102+541199501+542087442+544132591+545794894+546019720+545697934+545600975
3088+545943946+546721198+546922080+546317759+546260148+546785903+546801341
3075+546549614+547277959+548989366+550135143+550074511+549603870+549534303
3061+549910744+550122826+550396034+551313667+552005521+551987654+552273211
3047+553041332+553382793+553074440+552826984+552816210+552307764+551523352
3034+551222423+551237006+551762663+553173699+554522657+555189155+556016135
3020+557257689+558348089+559030221+559105174+558867440+559081789+559928147
3007+560816877+561299441+561614033+561916408+562399891+563329349+564497198
2993+565801421+567038836+567830344+568316586+568801449+569405409+570114606
2980+570632971+570794636+571297892+572441764+573091248+572870331+572984238
2966+574092112+575201693+575219692+574937617+575325389+575436275+574811490
2953+574911603+576287626+577845809+579024103+579884586+580161406+579630034
2939+579101881+579615845+580450248+581012757+582101515+583315676+583757840
2926+583746147+583623897+582777144+580903645+579398671+579055897+579240620
2912+579920453+580713931+580807671+580870603+581662833+582466427+582885599
2899+583501515+584216427+584427820+584235149+584356414+585075530+585741962
2885+585964588+586213621+586795181+587583403+588358291+588963565+589604903
2872+590324150+590715404+590630992+590400680+590453824+590484895+590066117
2858+589992281+591036106+592391568+592598428+591930551+591780382+591732624
2845+591038274+590832136+592100033+594038105+595170613+595158920+594861078
2831+594782118+594851947+595522058+596904256+597985853+598518407+598969899
2818+599067910+599160402+600338039+601637139+601214879+600205082+600459830
2804+601450708+602502811+603705082+604535215+604645904+604483319+604245913
2791+604371842+605502904+606772114+607344806+607991859+609018539+609580720
2777+609454988+609487570+609888875+610290639+611062965+612071842+612480701
2764+612548100+612856386+613113631+613368445+614126384+614856339+614847931
2750+614826122+615655861+617001994+618110196+618457372+618105467+617846383
2737+618143305+618501582+618607672+619017713+620059962+621264007+622185319
2723+623012430+623835009+624134690+623813002+623164307+622676094+623221392
2710+624297012+624664025+624768474+625173457+625833188+627275165+628964795
2696+629641081+629581565+629055974+627792545+626865518+627454369+628961051
2683+630314607+631206227+631647209+631897622+631838894+631289654+631445341
2669+632814401+633886210+634061999+634236407+634730139+635144713+635145107
2656+635104050+635768511+636920595+637860300+638518061+638813998+638544666
2642+638241175+638577577+639364289+640126892+640755223+641084005+640891531
2629+640664176+641006490+641361548+641375606+642034287+643386924+644301075
2615+644746327+645085816+645328149+645765255+646229820+646704435+647486680
2602+647820717+647470651+647586398+648293493+648677849+648844704+649216841
2588+649639889+650371815+651340162+651716701+651642207+652006659+652685638
2575+652705543+652048307+651603056+651628084+652169835+653193296+654018305
2561+654529904+655110807+655473289+655444844+655461333+655591006+655611305
2548+655843061+656522829+657296008+657719582+657618221+657563435+658298382
2534+659649706+660850006+661111126+660278300+659320004+659183564+659752183
2521+660382420+660916879+661609325+662087027+662229576+662806603+663557251
2507+663703084+663514289+663294882+663261380+663913032+665057758+666040228
2494+666604182+666577512+666124903+666129567+667063032+668113951+668434325
2480+668450288+668944544+669885038+670385207+670036587+669757270+670027456
2467+670348749+670525260+670840706+671340218+671388107+670772125+670442949
2453+671028188+671986549+672929473+673816363+673870098+673019929+672609100
2440+673093634+673704492+673896243+673913585+674540078+675715810+676444648
2426+676649077+676923139+677212441+677332523+677546412+677920849+678042968
2413+677908171+677962169+678390406+679163126+680007054+680701865+681392274
2399+681812497+681615359+681455862+681992424+682814017+683317471+683671150
2386+684139393+684119226+683048139+681140547+678796506+676703469+675621018
2372+675504942+675751545+675796084+674900128+672262121+669090378+668243888
2359+669344141+670294948+672105515+675010883+677440847+679108537+679804727
2345+679012169+677366026+676549162+676895352+677477437+678583602+680242555
2332+681409222+682172613+682807514+683126180+683456013+684325100+685903779
2318+687781482+689575954+691129802+691951067+692333715+693366964+694517011
2305+694864515+695177925+696025664+697085123+698192077+699132308+699313680
2291+698891420+699255215+700724979+702188173+703090960+703306360+702961813
2278+703036569+704096554+705088877+704915191+703993353+703598684+704220249
2264+704668063+704176630+703891204+704625561+705523290+706081004+707249838
2251+708625861+708477203+707284129+706679314+707054211+708004099+708916674
2237+709401537+709633359+709981848+710292237+710373036+710732562+711451940
2224+712040989+712696648+713795127+714769058+714778648+714343185+714351725
2210+714209241+713719058+714032599+715149341+716012976+716574829+716874904
2197+716529371+716319883+716937836+717566627+717554606+717472558+717823806
2183+717835105+717356745+717691505+718848778+719689028+720021160+720073515
2170+720182825+720851556+721448093+721192228+720881839+721311982+722234805
2156+723061522+723377560+723545728+723995578+724284551+724317659+724640201
2143+725295006+726215989+726994555+726933069+726537611+726385405+726220587
2129+726087761+726157327+726543589+727510556+728678339+729158604+728970860
2116+728683331+728483435+728591299+729011588+729381164+729600308+730013568
2102+730873196+731828076+732429803+732375543+731834777+731755422+732482027
2089+733547859+734525468+734860030+734631164+734639047+734918364+735095269
2075+735258641+735285640+735020184+735139347+735915351+736321779+736221536
2062+736495137+736817350+736756455+736774323+737403245+738742876+739905535
2048+740339619+740512517+740387048+739856924+739495297+739752279+740363596
2035+740700393+740785593+741246085+742224811+743160772+743555573+743734449
2021+744056530+744174576+744234618+744471301+744486607+744708707+745335791
2008+745506324+745280545+745157046+745171761+745730132+746965314+748224079
1994+748849848+748876585+748916590+749034045+749135997+749473910+749697981
1981+749759927+750575543+752075261+752820719+752564657+752475646+752653011
1967+752569781+752644209+753303677+754116600+754388296+754184195+754295410
1954+755019518+756041074+757044697+757554785+757083257+755780808+755033051
1940+756050665+757457169+757817679+757810453+758481878+759634946+760428950
1927+760646517+760495363+760543449+761138015+761390005+761481906+762148732
1913+762621705+762670513+762827448+763240249+763549586+763791459+764687809
1900+765860913+765845936+764600966+763993524+764349107+764282431+764560106
1886+765695241+766323835+766620560+767271752+768128227+768864489+769275778
1873+769314536+767938447+765357657+765533379+768259017+769646799+769640099
1859+770421358+772130958+773283173+773438794+773429532+773829588+774173282
1846+773175966+771522991+772495016+774742689+775675037+776463588+777777073
1832+777112218+774376595+773415343+774312021+775360773+777502289+779997419
1819+781282460+781442811+780861317+779342745+777752176+777986495+779844228
1805+781657028+782129410+780817041+779556437+780025206+780799633+780147193
1792+779472878+781684487+784596161+785527195+785220354+785294716+785788776
1778+786286514+785749558+782652571+777994312+777583680+781685341+785784374
1765+787643093+786753049+785706597+786481681+786892445+786947231+786687490
1751+784568374+782771996+784001989+785818862+786486082+786300178+786365868
1738+787277721+785973104+781151867+781680546+787668449+792634074+794619904
1724+794108830+793117952+791583943+786415268+781276416+784472006+789836373
1711+792079119+791573170+789428040+787112640+785912471+783322222+778908858
1697+778290577+782537152+787621021+789771077+789629054+788713917+784614161
1684+778594463+780779926+785736092+787613269+786745101+786209196+786004832
1670+783993515+784272832+787852055+789029955+786955771+786683220+788722653
1657+789417464+785438907+775689489+773103706+773930818+772627054+774475590
1643+778926135+781076717+779990850+775345467+770995626+775012940+781228725
1630+784454663+785344181+785674014+786358840+789120673+792312847+792328810
1616+792104870+797185257+803352036+807363373+809495233+810408990+811029636
1603+813034976+816716282+819978022+821102450+820819060+821369482+823244820
1589+825130800+827026371+829630153+832132048+833083775+831893854+828722898
1576+826855049+829515194+831396904+830501211+831584779+834787660+836314903
1562+835041095+827707912+817950610+822987444+831513111+838126324+842193169
1549+844168160+844897786+842850930+837593113+832072664+835137989+843629496
1535+847950104+849805538+854138167+857414753+856452582+854865232+855195459
1522+855166030+855598997+858697298+864383748+870202892+872601259+870283757
1508+863498828+861190195+871096548+879817513+883527329+883274420+883232509
1495+886700255+889210822+886655257+882689970+885360953+891274824+894984705
1481+896203465+896036085+894211723+890173782+884903483+884234424+889500255
1468+894224336+894989041+893744859+894735081+895801044+892365486+888552864
1454+892518940+898739717+903459790+907564079+913623782+919308721+921484134
1441+920907501+918157820+915749533+920476898+928392824+932818734+933992955
1427+934546399+934297629+932603269+930036405+924488103+918862484+919952292
1414+923254301+923602790+922057416+921259471+920124139+918499937+917102959
1400+912427489+904087136+897720986+896480811+898896980+900522825+898912483
1387+896143161+895964351+897437202+897648200+897143236+897763947+897637164
1373+896310803+896838037+897966603+898293349+898564323+898514266+899675546
1360+902758542+905014886+905507041+905198886+904603071+903713291+903478578
1346+903976119+903112483+900846089+900208823+902492692+904468471+904390299
1333+904588093+906029347+906864210+906685072+907516387+910276973+912665158
1319+912970029+913782031+916392054+918456253+919468283+920527283+922390534
1306+926022835+930881581+935423567+938508862+939815450+941363188+944915478
1292+949403729+953663902+957434744+959817937+960625801+960777941+960485552
1279+960376834+961478466+963670171+965844073+966709613+967473662+969482089
1265+969624244+966009088+962264127+961694786+964174018+967664559+969548502
1252+969197977+968622855+969153767+970594298+972992140+976173671+978793416
1238+979962316+979999432+979559698+979849066+981317778+982267928+981443773
1225+980840798+982729208+985182164+985867056+985979387+986034698+985470087
1211+984766211+984663668+986868050+991550614+994933028+994405729+992295612
1198+991596926+992510684+994387467+995845078+995598475+996094637+999537026
1184+1002384126+1000834548+998127041+997751027+997531423+996700962+996845875
1171+997908488+998763912+998206789+998014644+1000455447+1003938828+1006770097
1157+1009165048+1011419618+1013450577+1014442835+1012878280+1009923841
1146+1010057522+1013175399+1013567375+1010941981+1010438068+1011592713
1134+1010756799+1009884558+1012951788+1019134070+1022963509+1021509643
1123+1018706292+1018464813+1020398025+1023056002+1025603618+1026596401
1111+1026275962+1028397443+1031635009+1030014748+1026036191+1024658526
1099+1024344327+1024093389+1024399245+1025737693+1030111313+1037034061
1088+1042059202+1042670585+1041888078+1041664664+1040963022+1041484737
1076+1043438115+1043479698+1041869684+1043141062+1049275390+1055254032
1065+1055918624+1055920070+1059713116+1063421947+1067533264+1072795417
1053+1071414993+1064625531+1061362149+1062849387+1065143240+1064724659
1042+1062594178+1061035075+1058689523+1057444422+1061611577+1068149049
1030+1069901414+1066487074+1064955627+1067778685+1068712347+1064754942
1018+1059924968+1059975616+1065582185+1069454520+1068581359+1067275231
1007+1067376526+1066210648+1061586549+1057093108+1056717949+1058645445
995+1060117639+1061570652+1062220792+1060571693+1058797453+1059107316
984+1060128084+1059657279+1058539289+1057967911+1057708761+1057529294
972+1055953900+1055205815+1058587309+1062310657+1062585507+1061192602
961+1060766072+1061263942+1060979961+1060508827+1062474161+1066494563
949+1068294488+1065655890+1060785385+1057868521+1059682241+1063187168
937+1063577108+1062621571+1063733780+1065201705+1065862027+1067218212
926+1067649405+1065031566+1063973748+1068720295+1073593888+1073741823
914+1072726770+1072784710+1073309513+1073417245+1072583368+1072389120
903+1073479586+1073033152+1070080684+1066988163+1062732983+1057048570
891+1054967489+1059223392+1067277728+1073155271+1072694648+1069545896
880+1067192527+1062704998+1056934400+1055931368+1059406734+1062345408
868+1061826123+1058007588+1056046130+1058789045+1060231350+1056164308
856+1050688266+1045938435+1038935084+1032077764+1032320688+1039250137
845+1044427286+1040931162+1032546270+1027620125+1025416925+1021675577
833+1016583826+1009798832+1002355419+998145697+996537129+994639194+994622968
820+997890489+999946016+999138940+998680025+1000211998+1002147377+1000488687
806+995812561+993174685+991578664+985647649+976397414+972053814+973630325
793+970991792+962805550+959157417+961964446+963361096+959239662+952215028
779+944981563+940469204+939323886+938901232+938832520+938939661+937977950
766+935586874+931798886+928726927+927105286+924240778+920227733+918606159
752+919465787+919286911+917354488+915629254+914009847+910802170+908092101
739+908142026+907196408+903270667+898206965+894648698+896301344+899988957
725+899511385+897682228+898356280+898251898+895315918+894269728+897449157
712+900743283+900731590+897146126+892429797+890446990+889931252+888287211
698+888529347+891182200+892214332+890479638+886625959+881158523+876891452
685+877563665+881502939+883615683+883906956+883102704+880490777+878970563
671+878431177+876861038+878450884+879928333+875901756+873647975+875120497
658+872642907+867909104+865401625+864378821+866139134+868356786+866150302
644+861793235+860678661+865283250+873372205+874232490+861719662+848792981
631+842278107+836071388+833622701+837672795+836125780+828174250+828703323
617+834132330+835864396+846279064+861339247+862888693+866683053+882704225
604+887596933+880246539+873266574
##END=
