##TITLE=Sample description
##JCAMP-DX=4.24
##DATA TYPE=INFRARED SPECTRUM
##DATE=25/8/2023
##SAMPLING PROCEDURE=Instrument type and / or accessory
##ORIGIN=Default
##XUNITS=1/CM
##YUNITS=ABSORBANCE
##RESOLUTION=4
##FIRSTX=4397.6552
##LASTX=599.8556
##DELTAX=-1.9287962
##MAXY=1.9609798
##MINY=0.59340793
##XFACTOR=1
##YFACTOR=1.8263048e-009
##NPOINTS=1970
##FIRSTY=0.64531642
##XYDATA=(X++(Y..Y))
4398+353345417+354201250+354795010+355220724+355540238+355296180+354783718
4384+354395276+353756281+352966537+352816734+353661667+354635156+354607284
4371+354033008+354146649+354799873+355211684+355749113+356276719+355864778
4357+355312956+355630870+356054462+355783643+355405579+355594970+355627411
4344+355067136+354822556+355100947+355103917+354827125+354873600+355160248
4330+355469579+355785634+355896860+356005116+356309551+356371333+356145193
4317+356178090+356754651+357449879+357682644+357874712+358290961+357950788
4303+356799820+356265883+356958304+357868184+357964985+357460192+357275958
4290+357927094+358702902+358782568+358752966+359375578+360301776+360444366
4276+359492319+358686159+358629273+358825420+359332008+359779000+359444572
4263+359022970+359194215+359337458+359281290+359885462+361234077+361946309
4249+361238712+360267507+360148481+360444496+360413589+360164571+360013952
4236+360097176+360675858+361335675+361263450+360772463+360624096+360864858
4222+361025039+360859211+360697235+360626511+360631831+361086167+361648858
4209+361811780+361967425+362162593+362152116+362341768+362906319+363210428
4195+362913629+362708344+363067348+363630300+363844429+363520771+363563003
4182+364486035+365244839+365353226+365278651+365091447+364715602+364432739
4168+364553397+364629278+363997267+363292216+363384871+363971647+364776829
4155+365592943+365598491+364599480+363452625+363154260+363893384+364804929
4141+365344643+366099628+367122562+366973314+365406326+364629180+365663569
4128+366805202+366781018+366429423+366678147+367059867+367067895+367123704
4114+367411136+367512114+367320634+367112184+367089109+367226184+367350921
4101+367502258+367812209+368025751+368003591+368276499+368931911+369142026
4087+368941147+369130668+369490815+369514966+369454621+369715454+370023022
4074+369585592+368749602+368973392+370477163+371757078+371724311+370923535
4060+370261630+370115352+370452652+370883131+371141092+371117822+370701671
4047+370181441+370140319+370762147+371535376+372031977+372187459+371904531
4033+371527511+371451794+371243963+370813321+370982249+371678358+371975972
4020+372155214+372832981+373394986+373352754+373199361+373121588+372675313
4006+372162720+372319474+373019010+373734016+373896384+373424652+373355593
3993+374123503+374610606+374253430+373892924+373961723+373992075+373743448
3979+373498901+373853956+374891870+375396173+374893698+374738412+375345194
3966+375583214+375069022+374535313+374676696+375715001+376945733+377026476
3952+376189866+375697149+375714218+375875770+375581517+374973070+375537588
3939+377018448+377757278+377230782+376125082+375868525+376865218+377620400
3925+377375820+377048865+377065999+376814631+376385882+376764012+377735934
3912+378227998+378150062+377420924+375360762+373057228+372767087+374080488
3898+376206478+378449602+379007690+377369586+376715285+377904111+378228194
3885+377925096+378185374+378254107+378782562+379493749+379097572+378054273
3871+377148570+376951085+377445238+377556236+378108058+379653310+380327553
3858+379193458+376023255+372152700+373978531+378702569+381685176+382575833
3844+381652115+379470348+377158035+375765882+376641395+379082918+381156297
3831+382551616+383217732+382723742+381608643+379582978+377433163+378589809
3817+381163184+383161042+384887918+386011438+385758177+384180386+383291948
3804+382790093+381209234+381221147+383113295+385270388+387401992+388672181
3790+388828805+388582724+388282890+387984394+387543178+386702260+386733167
3777+388375252+389664534+389197698+387659267+387022557+387513805+388123557
3763+388615817+388154399+386630230+385990648+386076711+384447746+380427193
3750+378758574+380804963+382891756+384406558+386316428+387403558+385808502
3736+382370417+382041863+385669046+389104912+390251179+389517114+388635008
3723+388806677+390066814+391670388+392366138+391437851+389040062+387488153
3709+389179062+391701850+392877981+392735489+392945212+394139717+394720880
3696+394276987+393019102+390307869+387489327+388765196+392283567+394281230
3682+394137857+392588950+390057480+386292603+384890724+386256148+385899265
3669+385917933+388734648+391019318+391170100+390084797+388394834+386043291
3655+384437074+383631370+380798729+375645779+374324611+376727491+378962390
3642+379731834+379017220+377448763+375539318+373655851+371764029+368396080
3628+365140108+365926588+367413094+366668128+363434251+360358335+359816500
3615+359744373+358848037+357638781+355962198+354415445+353777625+352839253
3601+351049454+349693169+348990630+348142042+347722007+347658855+345997873
3588+342757861+341554152+342470363+343193202+342931096+342067952+341191688
3574+340173259+338940275+337407099+334725435+332197784+332761323+334465875
3561+334795898+334166270+333556126+332634529+331726216+331650727+331450827
3547+330434323+329672190+329800746+330160534+330066115+329572778+329257899
3534+329238774+329182312+328857414+327900439+326457993+325582414+325493446
3520+325698536+326219614+326951232+327252012+326616575+325566846+325168906
3507+325517075+325746968+325574092+325977873+327033803+327613627+327355503
3493+326548723+325675918+325359962+325248246+324922727+325194820+326064883
3480+326743173+327477010+328017899+327509516+326601953+326701724+327781870
3466+328605001+328536040+327864473+327216210+327118626+327637256+328415218
3453+328905879+328924678+328667402+328476184+328713257+329305581+329898950
3439+330223098+330388175+330748158+331498248+332604863+333627535+334114834
3426+334211798+334523087+335363451+336188181+336631127+337257851+338365248
3412+339722382+341359441+343017323+344277232+345596539+347294368+348924149
3399+350274919+351438876+352420426+353440847+354952907+356933598+358930347
3385+360728926+362286286+363614569+365108712+366973347+368912557+371102907
3372+373649748+376075964+378321861+380554378+382909380+385602826+388450741
3358+390967034+393228695+396075174+399694295+403032153+405512056+407993428
3345+410835044+413517720+416643471+420298820+423025097+424777169+426581948
3331+428524813+430558376+432467593+433611283+434456770+435592790+436324408
3318+436421307+436366934+436497514+436997019+437486146+437461407+437270221
3304+437826939+439157082+440230602+440410202+439748231+438518903+437381415
3291+436893691+436426235+435087965+433334034+432056468+431333173+430680209
3277+429613379+428288654+427503936+427547408+427520972+426382309+424458536
3264+422619586+420974890+419644192+418961529+418930067+418901347+418237352
3250+417580570+417188048+416320270+415578175+415943544+416913736+417554396
3237+417256096+415873995+414315949+413983087+414826714+415384444+415053050
3223+414578316+414702238+415146359+414974755+414052767+413587823+414691272
3210+416317822+416624379+415798343+415084022+414790096+414643655+415030629
3196+416017890+416633256+416780546+417025191+417345520+417520976+417741110
3183+418374165+418778665+418315191+417773421+417907036+418701936+419780711
3169+420262136+419870789+419658356+420295556+421324658+422210386+422794715
3156+423271799+424124075+425612017+427212653+428132095+428291298+428186468
3142+428133205+428214014+428621940+429240766+429679893+430254267+431199950
3129+431609573+431327266+431417702+431846418+432056011+432487502+433519900
3115+434582193+435016589+434999128+434750828+434408207+434622239+435461427
3102+436123170+436411842+436779854+437062064+437134387+437386277+437580792
3088+437554193+437681444+437662188+437175509+437042743+437630107+438051969
3075+438358852+439261879+440248226+440517545+440295419+440251718+440283050
3061+440148554+440285530+440474921+440156060+439847447+440032367+440298193
3047+440270419+440284290+440846066+441579773+441605752+440973056+440490489
3034+440608112+441334573+442395887+443352666+444107554+444624553+444766066
3020+444778468+444955522+445484825+446524958+447830721+448790046+448946441
3007+448672162+448914784+450068623+451733391+453592772+455671047+458150232
2993+461463090+465139065+467671839+468569121+468719153+469225708+470376708
2980+471335445+471410248+471153266+471212437+471275001+471346802+471816086
2966+472070522+471455613+470421094+469597897+469023164+468775973+469201197
2953+469961731+470479350+471107999+472235436+473543680+474729079+475433184
2939+475343237+474972288+474805090+474740371+474994318+475326723+474896766
2926+474113582+473734343+473372173+472618330+471614783+470646157+470055888
2912+469958109+469937776+469642152+469407657+469693131+470541164+471668046
2899+472561444+472862910+472622834+472228517+472483083+473697953+474928979
2885+475408347+475380541+475218695+475175125+475516897+476063693+476081611
2872+475434326+475031850+475377995+475965391+476416594+476690188+476488689
2858+475985234+475848682+475935104+475714611+475300026+474979990+475015172
2845+475613665+476371425+476841427+477089858+477219589+477400494+477917558
2831+478616344+479007821+479162356+479419991+479707227+480178273+480979897
2818+481657893+482159617+483030464+484234629+485260141+485922960+486124851
2804+485913789+485972372+486844557+487802021+487838933+487411424+487551893
2791+488291964+489090389+489821061+490431564+490707899+491013640+491649143
2777+492298157+492754647+493002393+493171614+493385613+493734761+494489160
2764+495447016+495970868+496175076+496669882+497332016+497710537+497871763
2750+498114515+498453219+498666794+498882523+499409019+500193867+500862039
2737+501045458+501060699+501518070+502239701+502616330+502609835+502798671
2723+503398567+504134656+504935954+505600764+506000434+506540702+507152543
2710+507423167+507483513+507490660+507636905+508188107+508827200+509364466
2696+510049675+510650942+510884001+511077243+511660102+512411009+512643937
2683+512426478+512405101+512904998+513871079+514742056+515196718+515475207
2669+515668972+515908493+516186297+516376438+516684954+517002183+517038312
2656+517167847+517850477+518732257+519249223+519483750+519794485+520227346
2642+520365758+520175813+520390367+521072801+521589539+521758695+521895345
2629+522391880+522902286+522848795+522772914+523375062+524316991+525055757
2615+525609766+526164688+526753488+527193464+527260565+527268887+527788334
2602+528663847+529233946+529483127+529905316+530449501+530699009+530750445
2588+531163136+531967991+532594812+532878981+532967655+532965925+533236320
2575+533925413+534557978+534841134+535111921+535614527+536100325+536378782
2561+536709784+537154394+537374464+537569273+537983890+538262085+538491261
2548+538885676+539044323+538885349+538839201+539234334+539970978+540590554
2534+541099035+541689955+541930619+541783264+541899451+542434236+543150744
2521+543918327+544446194+544559541+544603764+544898311+545355225+545785116
2507+546198069+546739480+547123647+547090749+547145416+547425407+547638786
2494+548096810+548956723+549851100+550449789+550680204+550943778+551584242
2480+552211455+552301336+552078884+552159171+552732729+553611245+554603076
2467+555507048+555957566+555809917+555349478+554932707+554982772+555472649
2453+555882044+556279756+556915063+557459378+557611596+557601479+557650956
2440+557550631+557534378+557929152+558222491+558512892+559470063+560591331
2426+561172526+561353138+561371284+561492758+561889425+562362854+562868854
2413+563419566+563820084+564031244+564231699+564574058+564806628+564746250
2399+564984368+565854463+566781543+567171878+566983238+566765877+567137283
2386+567990734+568651106+568771992+568501630+567844717+566928865+566260791
2372+565880311+565440499+564521056+562974597+561855483+561929176+562558217
2359+563136867+563673023+564783978+567238000+570477393+572769015+573023842
2345+571435020+569492742+568849733+569801878+571431039+572776978+573272012
2332+572883831+572641079+573256281+574320109+575664547+577144036+577975098
2318+578210148+578866538+579793291+580269331+580746414+581651497+582564347
2305+583139928+583621124+584368832+585087493+585456419+585660986+585741207
2291+585914443+586615415+587561946+588160961+588306260+588308740+588725838
2278+589678896+590543378+590868440+590843245+591002577+591664516+592457132
2264+592847859+592897924+593106407+593609666+593983618+594258549+594901885
2251+595543784+595630794+595625768+595986078+596564662+597187502+597553164
2237+597634560+597791020+598085600+598518036+598944925+599133761+599165745
2224+599251254+599787932+600618798+601054499+601211612+601617613+602308794
2210+602925433+603198799+603259503+603460872+603875685+604186191+604278226
2197+604321372+604632792+605312028+606004384+606663059+607181461+607095561
2183+606719585+606873370+607644576+608487322+609168386+609736135+609985088
2170+609908587+609862112+610109695+610812821+611784482+612542764+612913713
2156+613081662+613347586+613623954+613542232+613200329+613137732+613788770
2143+614852075+615681375+616009961+615888292+615790708+616036136+616380323
2129+616670464+616885018+617004729+617282860+618031873+618997268+619697718
2116+620247582+620821923+621158930+621252794+621323942+621432296+621906116
2102+622722557+623022358+622785285+622845075+622999121+622838874+623007606
2089+623678422+624207659+624456286+624705892+625277296+626086818+626626173
2075+626851105+626846667+626659397+626704762+627053453+627559779+628345607
2062+629093380+629355649+629474904+629937301+630460207+630494345+630241671
2048+630451721+631259089+632137605+632799805+633260309+633531455+633685566
2035+633865590+634269111+634917081+635504542+635861132+636014785+636082931
2021+636415565+636925481+637192972+637352174+637656675+638186500+638738387
2008+638997392+639423628+640128517+640418984+640499727+640929227+641474717
1994+641797038+641964529+642226929+642574510+643004336+643783179+644838848
1981+645807310+646587720+647108015+647209059+647246526+647671064+648135094
1967+648337572+648570468+648895073+649322027+649873392+650260660+650513725
1954+650985587+651651311+652114818+652210052+652091516+651878659+652122586
1940+653224141+654357420+655054149+655631885+656124177+656530309+657032393
1927+657413982+657297991+657118423+657566983+658203203+658723564+659418857
1913+659976554+660102727+659987715+660249854+661357871+662673850+663349170
1900+663479129+663377433+663250084+663596687+664075337+664012283+664053993
1886+664547395+665150718+666027341+666870479+667234183+667338751+667315513
1873+667078571+666447833+665697906+666546135+668788671+670371488+671066455
1859+671587663+672082371+672503450+672887716+673286928+673466430+673371784
1846+673220088+673548871+674661327+675359166+675675612+676814634+677982507
1832+677358623+675595129+675494608+676753146+677636036+678654694+679843585
1819+680572755+681122423+681408387+680627846+679633274+680476607+682610463
1805+683948113+683716000+682577892+682041801+682535138+682910982+682522605
1792+682675410+684823104+687157480+687921767+687499905+687342857+688041936
1778+689206284+689747924+688500221+685941631+685705928+688032340+690165935
1765+691119972+691022780+691152674+692018332+692682555+693346517+693500497
1751+692027209+690410711+691191577+693118190+694203166+694264784+694192918
1738+694572222+693916093+691262660+691213575+694390305+697659919+699637837
1724+699999844+699610161+698402340+694701790+691135964+693512181+698047318
1711+700863347+701364712+699681178+697383356+696418548+695046042+692933858
1697+693280721+695819403+698766566+700486653+700723727+699819232+696643220
1684+692979810+695247542+699239016+701291737+701009820+700120469+700128367
1670+699795472+700343639+702316857+702769006+701785074+702442051+703976762
1657+703983746+701132600+696220900+695402697+695132073+694107736+696817500
1643+701277246+703470043+702765220+699530592+697430679+701830047+707205645
1630+710530220+713338416+716343608+719156569+723017104+727295260+729775652
1616+731457815+735256406+739224317+741728926+743991305+746744280+748851504
1603+750230667+751501151+752517002+753391667+754754773+756712456+758713153
1589+760711632+762806063+764579935+766040625+767102886+766945642+765002842
1576+763578444+765705446+767619721+767253929+767853335+770639795+773379846
1562+774785511+771581431+763950046+767277754+775116447+780542763+782877335
1549+784330910+786258959+787150856+785230836+781738312+785491799+793766063
1535+798777500+801457891+804450224+806636429+807192428+808031062+809095281
1522+810142790+813714229+818421101+823731687+829320207+832434928+832297854
1508+830401136+833233549+841532943+846606325+848136401+847653834+847990515
1495+850757980+852582897+851394136+850089449+852583876+856569736+859774208
1481+862069354+863279003+862777310+860617672+857811891+857652036+861699972
1468+866614282+868925682+867917402+867657353+868155846+867267213+869769668
1454+875885207+880001418+882833831+885851620+889758761+893820012+896571812
1441+898090857+897821539+896208043+898484195+903586885+908038537+912510881
1427+915457783+914121243+910522128+908257399+905663039+902705105+902141795
1414+901682531+899798216+897123569+894744742+892417611+889942180+888245199
1400+885840459+882451785+881031826+881792654+883361437+883876901+879365916
1387+870791068+867119434+869984353+874354543+876440162+875674308+873881702
1373+873513103+874845922+875815103+876727235+877539237+875781944+872939153
1360+873004035+874982148+875644152+874340379+873333144+873809967+875313737
1346+876296234+875559949+873961597+872647054+872555998+874101413+876048390
1333+877032127+876857521+876642836+877847002+880540382+883835975+886739275
1319+888371242+889696751+891426042+892480339+893549650+896095316+899396588
1306+902350801+905048424+907514260+909987865+913594421+918391696+922761495
1292+925831765+928465224+930526038+930998488+930528584+930118340+929632705
1279+928017708+925989531+926384109+929338452+932109051+933123988+932900753
1265+932121192+931568652+932492533+933951983+933783055+933051992+933945260
1252+935902289+938151614+940759420+942354835+942740863+943240857+943718398
1238+944174986+945583131+947558764+949286880+951176417+952970394+954096818
1225+953929000+952288873+951602653+952570267+953870123+955396675+956255608
1211+957030209+959272484+961335387+962035772+962543796+963228253+964114863
1198+965249121+965304473+964226873+963926549+964586007+964801997+964599193
1184+965711126+967965803+968940141+969530278+972508708+975656914+975096802
1171+972807856+973766528+977752715+979547344+978605774+979153354+980886365
1157+980649683+979234684+979606743+982467419+986393359+989867671+992901713
1144+995179105+994766381+993084348+992766989+993035916+993937342+996527199
1130+999659086+1002629161+1006282192+1007396671+1002135301+995886474+994665077
1117+996561990+999283698+1003885610+1008473031+1008785756+1007222978+1009308271
1103+1013462537+1016274258+1019843412+1024229726+1025028216+1022494560
1092+1021102538+1023573466+1029851797+1036381496+1038285001+1035984763
1080+1033611093+1032664758+1034088764+1036775878+1037171697+1037276134
1069+1040082176+1043718954+1046528913+1048346127+1049780773+1051969132
1057+1053047907+1049654469+1045909728+1047009326+1046910763+1042856691
1045+1043439779+1050387359+1056294676+1056942646+1055376147+1055392857
1034+1056034561+1057528997+1060930595+1061840703+1060109976+1061656110
1022+1063993814+1061131311+1057041731+1058182646+1061047630+1057809347
1011+1051730035+1050670385+1052899997+1052726631+1050002311+1048142539
999+1048399390+1049740760+1050004987+1048305135+1048511269+1052617037
988+1056676199+1057220841+1054963292+1052293867+1050351198+1049291483
976+1048344691+1047122183+1046927864+1048694818+1051483758+1052880676
964+1052878587+1052849280+1052436164+1052846538+1054469955+1055742070
953+1056470718+1054805200+1050065757+1047199467+1049015963+1052594582
941+1054443324+1055244360+1058019201+1060131582+1058233364+1056275094
930+1057120777+1058770825+1058799350+1058478204+1061104744+1065040344
918+1066951422+1067670083+1067277071+1063871688+1061164470+1063715684
907+1066165464+1064464632+1065386751+1070422796+1072484590+1071083234
895+1070398058+1070491399+1071589364+1073741823+1072764287+1067055272
883+1062081628+1062490501+1066706711+1071060519+1072516444+1066818394
872+1054880264+1045865081+1044902689+1047333082+1045782510+1038875792
860+1031455827+1028486210+1031196169+1035601477+1035951278+1030419154
849+1022898016+1017802245+1014566311+1013499351+1015723284+1016091753
837+1010613871+1003542271+998434686+993859014+990543839+990616358+993070119
824+994342821+991362564+986534023+983106969+981355289+979005901+974787275
810+974040611+978485083+979771755+972979591+965395268+962124609+958542987
797+954860714+954550077+954742765+952729861+948924873+944199660+939119359
783+934212293+930772380+930131656+930461548+927545390+921303090+915769268
770+912646454+909557190+907048469+908600281+910515862+906548017+900230522
756+898028194+898697900+899424655+901511841+902445186+897907765+891850972
743+889056222+887987826+887677907+887631759+885047908+882079269+882977367
729+885287853+885618529+885681975+886462189+887073475+887723142+887063423
716+884356792+881672159+879431972+876494861+873677461+873402138+875443044
702+876745511+876202697+875802897+878222585+880873733+876396755+867005075
689+863466142+867451741+871716842+872848945+872733411+873978960+876459222
675+877331276+876856607+876241665+873614342+868875748+865180550+862545981
662+860248354+857783105+856619540+858191260+858539625+854997624+854152071
648+860812121+865759983+860174595+853284195+857005894+868897027+878176763
635+880925299+881249056+880153310+871876174+856893427+846104829+842992328
621+842560413+850313794+871923497+893138165+897070110+889766659+884548435
608+878540663+863173586+849509559+843716929+843198722
##END=
