##TITLE=Sample description
##JCAMP-DX=4.24
##DATA TYPE=INFRARED SPECTRUM
##DATE=25/8/2023
##SAMPLING PROCEDURE=Instrument type and / or accessory
##ORIGIN=Default
##XUNITS=1/CM
##YUNITS=ABSORBANCE
##RESOLUTION=4
##FIRSTX=4397.6552
##LASTX=599.8556
##DELTAX=-1.9287962
##MAXY=1.9460346
##MINY=1.1771492
##XFACTOR=1
##YFACTOR=1.8123859e-009
##NPOINTS=1970
##FIRSTY=1.2426299
##XYDATA=(X++(Y..Y))
4398+685632060+683503983+685352781+687781646+686704387+683027642+682348386
4384+684466137+685637914+686858300+689121347+691273103+692867023+695229325
4371+696402747+692851764+688176098+686999387+689222048+691959726+692792369
4357+692414625+691814890+691014016+690093564+688606199+686722409+685530241
4344+684666684+684138118+684991546+686127542+685467492+682206378+679775342
4330+682506443+687467308+688617512+686327958+686238767+690064623+693423807
4317+693162221+690467428+688059216+688057045+690729672+694208303+696027173
4303+694634392+690848724+688463073+690013845+693687893+695931931+695255372
4290+693441303+692988246+693424662+693282194+693894426+695177165+694244939
4276+691540543+690623511+692902213+695258003+694336366+691859683+690789395
4263+690670606+690380145+691208578+692696075+691624275+688950793+687802431
4249+688244964+689395496+691133924+693341128+694500409+693478861+691553370
4236+691418794+694559146+697558541+697347667+697046879+698381055+698144200
4222+695451117+693077700+692056284+691880073+693488990+696972620+698068099
4209+695231627+692960687+692115086+692295638+693960135+693811418+692036617
4195+692467376+694441211+695883258+698166564+700863264+700085609+697431004
4182+698416508+702278211+702925040+699655836+697532823+698729727+701797660
4168+702937406+700556096+698610083+698643562+698807670+698819312+698490439
4155+698773994+701182469+702825523+700541296+696343484+694439567+696123138
4141+698360533+699142332+699187388+698961123+698664084+697769942+697093711
4128+698513920+699836980+698454920+697878010+700750723+703092240+702121864
4114+700086398+698614292+697283471+695457958+693335537+693189912+696039078
4101+699143911+700606348+700666071+700705273+702243350+704082808+704413524
4087+702552886+699056759+696837518+698488334+702685817+705052657+704413260
4074+703597522+704443517+706422548+707403514+707230263+707557492+707972005
4060+707473564+706008825+705328319+706812396+707514015+705647787+703826155
4047+702955099+701498977+700046670+701275738+705174143+708467750+709172461
4033+708129338+706580342+705341671+704920976+705000629+705354366+705439544
4020+704565200+704549283+706253573+706829168+705482166+705368442+707923661
4006+710176513+708751107+705258729+705014179+708856347+711222397+709661233
3993+708496822+710310364+712692924+713308445+712055238+710378704+709872304
3979+709882697+709555007+709339857+710113895+712646356+714195089+712609127
3966+711355920+711720181+711407027+710893984+711657169+711991897+710481181
3952+709765091+710561558+710193219+709401883+709542181+710403765+711604549
3939+710859978+708271741+706488323+705066075+703995393+705981068+709970966
3925+712987858+713767618+712912217+712842167+715352659+717324324+715406726
3912+712190997+712023469+714574741+715130669+711820488+709111619+708542404
3898+709607561+712267361+712967074+709265400+707249140+710552547+711569951
3885+707137389+705040291+707686674+711840746+713502612+711572188+709231132
3871+708445123+709287501+710738624+708801820+705785059+707702723+711946512
3858+714570400+713250431+704288617+698317188+702731597+709205940+713015484
3844+713679612+713778603+712462055+707766262+707022151+711932370+716467279
3831+718948369+718870821+716320667+714259943+710041609+702161658+701723138
3817+706516804+710434152+715151980+719719052+721854496+721005673+720200524
3804+719302303+714555863+712050370+714818305+717839867+719237055+719600658
3790+720259918+720757965+719180423+717731733+718192880+716906786+714793047
3777+717140549+721876597+724122279+722458901+719906050+719240870+720883792
3763+723941530+724671302+721832659+719725104+718797350+713944947+703056787
3750+697827626+702313335+705677912+706327109+711182933+718513861+722334324
3736+718449862+713204455+714618941+718863914+722045572+722677734+720493682
3723+718048044+718673957+722331298+726572193+728490383+722919916+712796848
3709+713205705+720821964+725694691+726184779+726224178+728252804+729980247
3696+730386801+730598859+729977945+726772082+725541633+727177518+726729986
3682+724844421+723968695+721849169+716774973+716281004+717651093+713538985
3669+711834629+717180606+723281283+725901553+724283230+720713567+716404661
3655+714509953+715721985+713394544+704123588+700080807+704398987+708896338
3642+709920188+708301668+706477668+704973201+703289367+701561792+696689591
3628+688995849+688556407+691798775+692045431+688418478+685863917+686977813
3615+687271694+686719055+687517232+687257290+685743088+684332022+681533239
3601+677610365+675373102+676560994+679660039+681102940+680689349+678569362
3588+672868267+668570542+668994132+670472289+670883841+669643395+667625424
3574+667060156+668163067+668680781+665569107+658847188+655599295+657142305
3561+658285537+656838360+655433805+656013742+657389290+657832743+657874116
3547+657624106+656682211+657001613+658808841+659802764+659209936+657791766
3534+656094250+654080029+652107969+652060151+653657163+653534361+652347784
3520+653283233+655142752+655338169+654699101+654572945+654097262+653856394
3507+655419006+657031014+657053904+656765087+656308478+654792238+652894307
3493+651970631+652057980+651991416+651714833+651631234+651167653+650890478
3480+651247832+650816744+649502498+649558210+652124939+654976342+655755773
3466+655225497+654805853+655173666+655766494+654469547+652812417+654024120
3453+656254872+656476862+654689695+652758811+652965870+655188005+657109681
3439+657743487+658886981+661131743+661773705+659435280+656217709+654596427
3426+655638299+657929893+658613424+658764246+660558648+661394645+660535955
3412+661430163+663734320+664546704+665127693+666181273+665332055+664716600
3399+667462434+671479761+674380429+675495311+675492023+676089718+676559284
3385+677363973+680692637+684162060+685814059+687122649+688221482+689413847
3372+691607042+695129347+699110432+701497464+702323398+703342184+705809593
3358+709887367+715183815+720762043+724098206+726044613+729385906+731896004
3345+733394419+737155816+741071849+742963729+744911978+747138981+748667455
3331+749766552+750594393+751228462+753343516+758053648+760805402+759185961
3318+759133473+762204300+764914155+767403862+768452970+767099588+766713030
3304+767143263+765296965+762334468+761729406+762579151+761294240+759121699
3291+759228452+760335770+758194209+753213150+751217807+753113633+754841866
3277+753687387+750093584+748011746+748265308+749798189+752777458+753897997
3264+752083008+750022810+747238761+743433887+742499425+746149070+748928252
3250+747361760+744703998+742790873+741500766+742514685+745344579+745430020
3237+742784493+741978686+742500609+741165118+738839782+738026674+737663334
3223+735960491+734720373+735440541+736850226+737931498+739363217+740583537
3210+739651969+737377477+735733962+735671279+737436016+739419784+739733858
3196+738727438+737729109+736546873+735912607+737969384+740937932+742510804
3183+743335751+742863554+742004075+741877656+740847623+740690487+743027794
3169+744312770+743474668+742684910+741753868+741208069+742421284+743945747
3156+745222698+746316007+745638198+744800161+746682109+749701303+750401015
3142+749251009+748471183+747315389+746104606+746524447+747075508+746325676
3129+745816053+747291776+750277556+752225937+752206138+752657485+753905825
3115+753826171+753145600+752055712+750316363+751019298+754896261+759591594
3102+763579388+764647636+762054136+758913653+757213310+756627914+757157664
3088+756921730+754441429+752451544+752481209+753379824+755083193+758306223
3075+762677352+765615709+764363423+760961814+760089707+761143682+759919021
3061+757094060+756052779+756877595+758596159+761083103+762873624+762901184
3047+762895922+764500892+765762255+764076382+761528398+760452586+760230004
3034+761364948+763050887+762694717+761959684+763888595+766457692+766760980
3020+766292269+766279179+766620814+768494277+771975868+774802605+773897412
3007+769881927+767168981+767929929+770254607+771224391+771063177+770633602
2993+769986904+771844515+774954084+776886547+781818801+787343488+786080283
2980+780924066+777769179+777998207+778933195+778050695+776530574+776333118
2966+780307099+787511674+791710670+791755068+789876869+785849743+781185718
2953+779723940+781563463+782700314+782762274+784138020+785894798+786676597
2939+787712616+789949090+791515911+790391162+788091742+787099924+787696633
2926+789409605+791252878+791993962+792188656+791930358+790483905+789300616
2912+789169067+788860254+788314653+788117789+788284988+788144230+786431718
2899+784369152+784744266+786247614+786297471+786583723+788268347+790168909
2885+791962917+791979492+789854901+789060670+790650052+792315338+793059316
2872+794114476+795195616+794229581+791942000+790854151+791236763+791443756
2858+790988134+791362130+793590842+796275046+796539855+794336202+792698279
2845+792427023+791458753+789724864+789646855+791230251+792589882+793704962
2831+794318640+793239079+792293303+793714828+795252577+794660669+793617942
2818+794203271+796242356+798417462+799827410+799254051+796420803+793855257
2804+794031205+796010631+797170240+797801547+799728616+802773265+805813441
2791+808343797+809502486+807773859+804923838+804549974+806030433+806667132
2777+805762532+804329891+804053703+804786500+804828530+804804851+805466611
2764+805814625+806597937+807525954+806432251+805135501+806502367+809322921
2750+811108312+811039380+809937915+809457825+810142803+810553501+809851092
2737+809679749+811146395+813212841+814892598+815790884+816454354+817674937
2723+818538823+818487519+818505738+818399841+817326791+816856699+818086950
2710+818571447+817347313+816452578+816629052+817643431+818840335+819186376
2696+819751513+821341815+821991341+820817393+819521104+819798936+821366612
2683+822371388+822591273+823852702+825480957+824991263+824337659+825977162
2669+826936026+825177011+823280395+822880353+822984804+823066430+823327096
2656+823558294+823349196+822649615+822908439+824696395+825564819+824529196
2642+824181115+825563636+826493296+826457252+826955496+827926660+828502387
2629+828597563+828239551+827221094+826260651+826858873+829154610+830764513
2615+830340661+830137745+831065499+831917151+832712499+833207586+832661984
2602+831863413+831951748+832237869+832182355+832677836+833687019+834603459
2588+835474054+836081484+835862980+835368419+835344083+835511874+836220860
2575+837241290+837335546+837118423+837476698+837832343+838126619+838469569
2561+838569218+838949790+839357265+838601184+837277269+837370669+839365947
2548+841156666+841212903+840518585+839803087+839176713+839621614+840491683
2534+840017512+839768818+841005384+841682601+841021630+840368947+840730511
2521+841409570+841222441+840367303+840088747+841136013+842025814+841998715
2507+842397376+842670012+842140459+842744995+844636810+845567391+845848381
2494+846199487+845960001+845844566+845333694+844241043+844818019+846031038
2480+845191752+843758585+844078382+845303240+846149893+846702796+846762124
2467+846978195+848100904+848442539+847053967+846183438+847228928+848605397
2453+849287810+849778359+849916749+849865510+850591335+851627025+851219024
2440+849448630+849039774+851761468+855015873+854873339+852172166+850046588
2426+849325499+850321790+852235113+852644758+852262015+853687288+855416507
2413+854658321+853396366+854312806+855467417+854757707+853650915+853349206
2399+853330263+853349995+853097617+852502356+852246886+852273986+852674685
2386+854150803+855438937+854465272+851227640+846878677+842873322+840178398
2372+837621929+833541985+828464632+825108803+825215490+826220791+824239984
2359+820251335+819439937+823624792+830257258+836473501+839400085+838565468
2345+836288214+834256299+832712762+832033375+832506756+833562375+833800546
2332+834351278+838060976+843083538+844567549+842940018+842821820+845544699
2318+849163562+851481991+851748511+852402246+854739027+856910450+858311782
2305+858881523+858263635+858077097+859530325+860780375+860290550+859455803
2291+859680423+861262965+863911649+866353341+867918912+868259165+867428232
2278+867055816+867057789+866232381+865959942+867167238+867902600+866807845
2264+865578251+865984673+867033847+867321611+867061209+867379625+869133312
2251+871303091+871977611+871039794+870243459+870704409+871513636+871818699
2237+871961365+872135536+872490852+873049082+872866491+872062197+871612956
2224+870756502+869812108+870354355+871071563+870112435+868922767+869716208
2210+871518503+872354566+872563138+872566558+872415211+872816437+873578109
2197+874226911+875095007+876180685+877190591+878010540+877763819+876206403
2183+875155717+875144338+874714039+874387336+875463214+876574611+876908812
2170+878344939+880349820+879687863+877381601+877007738+877636544+877032600
2156+876951895+878448468+878927967+878532002+879320182+879572231+879219678
2143+880397507+880866481+879059845+877804665+878374866+879686942+881104717
2129+882193619+882752507+882828016+882036285+880803995+880370999+880650871
2116+881038811+881653147+881733327+880868388+880356529+880465781+880543987
2102+880605092+880598778+880472753+880628574+880992703+880911405+881237319
2089+882369237+882460927+882110019+882879979+883321985+882954107+882898922
2075+882914905+882901882+883171887+883396903+883683812+884013147+884427396
2062+885708031+886791144+885823071+884067082+883890937+884868942+885727895
2048+886740958+887005439+885578718+884504090+885111257+886360977+886966237
2035+886301254+885558459+886138659+887354834+887945952+887477373+886761283
2021+887296887+888671382+889386223+890092907+891368083+891847844+890724148
2008+888365464+886317566+886411821+888390656+890398694+891393209+891739447
1994+891031316+888986509+888173270+889904331+891859157+892054574+891192859
1981+891163260+891894873+892105484+892231837+893024226+893639878+893436831
1967+892947598+892421729+891820087+892077990+893625210+894850989+894934063
1954+894794489+894659848+894175679+893413810+892907344+892782964+892866893
1940+893502540+894594204+895740659+896392421+896292443+896062166+895931406
1927+895715401+895173680+894670569+894937351+894467325+893265027+894479362
1913+896737673+896827521+895847543+896217000+898015940+899348603+898823523
1900+897703378+897409891+897941220+899001904+899886246+899300719+897570842
1886+897200990+898328633+899117405+899478048+899912359+899814683+899952744
1873+900704090+899227314+895851358+896031054+898155185+898633960+899818630
1859+902809540+904776470+904543166+904115367+904985239+905646209+905171579
1846+904449898+904122471+905465197+907157188+907716339+908202415+908334556
1832+906006984+901497794+899183179+899736214+900968373+904096161+907872028
1819+909197456+908955405+909670640+909996883+908293513+907502111+909036373
1805+909763185+907922214+905335753+904968400+906883894+908094478+906172671
1792+903425719+905456844+910311746+912711342+911233317+908694871+906968612
1778+906661575+907179157+905832813+902811053+903796491+907345041+909243893
1765+909967876+909751214+909580068+909803768+909009537+908877198+909331899
1751+907302024+903601403+902919845+904665771+906105252+906554954+906011852
1738+905556493+903989803+900432769+902356550+908275820+912009722+913025088
1724+912935897+912662866+909543760+900671005+893558646+897723176+905361405
1711+910256759+911006262+908092571+905444939+905655286+902156989+893300612
1697+890990009+896321253+903876144+908563321+908009366+903846414+897389106
1684+892484347+896441686+901130508+902215528+900697578+899422534+899083070
1670+897454092+897571631+900307073+900604046+898657310+898949416+900288788
1657+898769127+889470941+874633663+875477158+878789971+877041612+880302791
1643+887518482+891536400+890838662+884049586+875999607+879780473+887344837
1630+889818692+889047746+889668857+891364136+893915935+896021780+893999074
1616+891809497+897485466+904775549+908792086+911755832+915727116+919010659
1603+919449245+917763503+917436997+919595989+922272891+923842014+924469308
1589+925756586+928259909+930333130+931091447+931303176+930607937+927070569
1576+924291913+928146447+930515984+927333997+927397733+931934220+933039170
1562+929106891+917385495+905918386+917109176+928269578+931790765+933276091
1549+936857791+940280250+938832153+931521286+920061345+917767778+927686879
1535+934088804+933746973+934210488+937464958+938592535+935750275+929970119
1522+926013503+930452445+936209646+939503713+943345618+944364930+939275935
1508+928363570+922928402+934184441+945691476+950936225+948639502+944879881
1495+948017733+951990858+950088323+945706867+947067682+950953853+951910153
1481+950278017+949073286+947878553+943185391+934529627+931474388+937510474
1468+943387056+944341777+942804160+942632685+939721362+930472244+927385565
1454+935088384+940948719+943173683+943109092+944208320+948295171+951109739
1441+950633004+948206440+944490823+944460303+948026086+949867648+950945763
1427+953125605+953905562+953399360+952971955+949772078+947270728+950561770
1414+952608812+950275255+947769170+945900640+942875789+942372809+944741425
1400+943233275+937471930+933456117+932404707+931426044+928957648+926052375
1387+923775713+922359911+922587886+924467532+926698021+927567366+926967895
1373+927648532+929376107+929220681+928365543+928341733+927908014+927521126
1360+928119611+928347192+928128228+928562473+929742275+930799013+930200528
1346+927925247+925742642+923204262+919790879+918877991+921251671+922519283
1333+921757282+922464032+925885373+929167469+930376607+930248675+930145409
1319+932086949+936590680+939833113+939657297+939689395+942660903+947494034
1306+952341833+955598211+957505877+959760570+962440432+964029946+965100299
1292+967739249+970318475+970998060+972019609+974374543+976765654+978629711
1279+980189626+981645551+983197441+985353078+987409724+988364379+989002263
1265+989977111+990269874+988313075+986350947+989174527+994706384+997493261
1252+997870677+996447902+992913100+991983439+996173951+1000064463+999837869
1238+999013316+1000192329+1001876098+1003998387+1007073490+1008877297
1227+1008338142+1006810128+1005508247+1005596385+1006923063+1007994271
1215+1007786752+1006249661+1004432303+1002887780+1002337903+1004787290
1204+1009791370+1013804815+1014879378+1014568000+1014932458+1015494043
1192+1015345261+1015694985+1016319451+1016655034+1018564739+1021350893
1180+1022869962+1023159963+1022027452+1019719021+1017447094+1017040343
1169+1019221040+1020638223+1019599771+1019215646+1021024190+1023802385
1157+1025283107+1024791638+1024055815+1022865226+1022331135+1026374179
1146+1033352423+1037086194+1036839473+1036744692+1037822740+1038343019
1134+1037539843+1036271113+1035971706+1036272758+1035660986+1033088863
1123+1028849021+1026176526+1028648474+1034656079+1037161901+1033473383
1111+1029617599+1030125117+1033298882+1034248539+1029847482+1024936013
1099+1024168750+1024519396+1024933711+1026994764+1029357000+1031166595
1088+1033611904+1040432947+1051039788+1055907451+1051700628+1046615250
1076+1046982076+1051995627+1056586510+1057509593+1056817708+1055722492
1065+1052972054+1051800868+1054028792+1054741330+1053014742+1051103721
1053+1050418874+1055209975+1063721561+1067308523+1063259954+1057407840
1042+1057195848+1062230052+1066060578+1066296841+1064057144+1061099844
1030+1059106408+1057392251+1055018176+1052558791+1049664109+1048214235
1018+1051027357+1056595192+1063221738+1070099939+1073741823+1069711276
1007+1060116577+1053292246+1052548070+1053737673+1052393565+1050721767
995+1051418519+1051987406+1052279906+1052882732+1052626605+1051281050
984+1048489766+1047048180+1048560079+1048903818+1048364728+1051145686
972+1053912370+1052828336+1051757588+1052154342+1050475309+1047407376
961+1048575668+1054224077+1058454908+1061341829+1065058433+1063676834
949+1056653403+1054357666+1059703906+1064965033+1063709524+1056951757
937+1050952637+1049599057+1051158578+1052687249+1054796318+1059759814
926+1067480919+1073685849+1072536237+1067358972+1064981280+1064538484
914+1065244379+1066569149+1063561597+1056745882+1054294259+1060335804
903+1068032375+1066750753+1058894876+1057349563+1064087598+1069070103
891+1066748648+1060606994+1055227208+1054716007+1059773101+1064217174
880+1067094229+1071935384+1073398742+1067080219+1056339591+1049017740
868+1050599492+1054844465+1053740040+1047144803+1038818242+1034377260
856+1034634702+1034848602+1033376891+1031270322+1028462463+1025710511
845+1023320716+1021883274+1023299866+1025614349+1024581882+1021407657
833+1018656232+1014744540+1010207856+1008145224+1008608673+1009295625
822+1007106311+1004354360+1005986364+1007692628+1004146578+998584333+993494549
808+988167515+984211688+982709589+980281974+975546452+973417388+976574381
795+979843124+978565712+974819838+970315976+964486160+959372960+956044492
781+953207100+952403464+954786287+958050821+959414398+955973587+948952392
768+943235774+938998497+934325528+931411573+931155117+929676369+925574193
754+921244699+919603421+923632192+930225062+931398616+927253620+924648610
741+924223376+922449364+919314538+915244329+910962522+909256193+912501652
727+918103624+918888581+915097454+912174686+910343844+907992133+906635988
714+908063170+908248852+905226566+903290880+900931078+895367716+889824809
700+888482017+893166892+897746921+895539651+891680381+890929562+891759837
687+892410613+890555172+887258211+885639165+883906789+882152509+883500301
673+882081933+871352948+859595377+863210885+876823437+883650859+884581901
660+882977457+878816347+877592936+881616708+882242950+875175581+868682294
646+866860070+859694368+847654359+847262407+860427428+868532328+861222645
633+852326605+850292915+847618907+842170453+832486300+824132639+835011328
619+854559791+860359680+869796651+872975086+842590688+818053142+823357155
606+836453111+849001164+865523592+861559214
##END=
