##TITLE=Sample description
##JCAMP-DX=4.24
##DATA TYPE=INFRARED SPECTRUM
##DATE=25/8/2023
##SAMPLING PROCEDURE=Instrument type and / or accessory
##ORIGIN=Default
##XUNITS=1/CM
##YUNITS=ABSORBANCE
##RESOLUTION=4
##FIRSTX=4397.6552
##LASTX=599.8556
##DELTAX=-1.9287962
##MAXY=2.0113571
##MINY=1.1072749
##XFACTOR=1
##YFACTOR=1.8732222e-009
##NPOINTS=1970
##FIRSTY=1.178903
##XYDATA=(X++(Y..Y))
4398+629344962+628750450+628347745+630546269+631826996+628320253+624448734
4384+625429278+627485123+626846892+626858092+629181666+631045768+630523932
4371+628215313+627049390+627542398+626179450+624660778+628310516+634169025
4357+635263991+632953718+631594588+631041314+631055378+631737266+632315677
4344+632429399+630795796+627803635+627258125+630459975+633121660+632802958
4330+633583040+636950160+637979069+634876559+632429081+632910762+633308949
4317+633021748+633727945+633674871+631630416+630246340+630551869+630275995
4303+629515768+630034169+631382798+633208209+634187607+633167989+633245946
4290+634458390+633480837+631929391+632578950+634731336+636300537+636588438
4276+636904913+637028563+635125704+633021048+634002482+636277627+636441242
4263+634913151+633295139+632151044+631464892+631926527+634720899+637777335
4249+637757798+635300583+632561577+631275376+632724492+635865694+638799753
4236+639745868+637843264+635299565+634314439+634546274+635415578+636950669
4222+638809681+639603000+637360756+633533720+632409735+634526737+637244361
4209+638552517+638259016+638325454+639083072+638926203+638619719+639621837
4195+641187220+642195255+642310696+641366681+640924901+642315405+642465465
4182+640227676+639491250+639625910+637711342+636038855+636139086+636359848
4168+636395104+636772481+637629502+639582381+641945156+642041314+640192484
4155+639733332+641156928+642139253+641010113+638469532+636837201+637619129
4141+640629300+643583787+643711128+641881644+640904601+641206948+641860644
4128+642296950+642882871+645040602+647752817+646937733+643228238+642024068
4114+643318541+643440791+642880771+642563787+641363180+640213867+640285142
4101+640536706+640571198+640561525+640718521+642372171+645157697+646055956
4087+643463828+640008823+639324453+641127908+642904190+644186317+645785301
4074+647224552+647671932+647402677+646871294+646218999+645723699+645718608
4060+645485500+643716028+641028823+640108609+641771740+642702583+641844225
4047+642188319+644555803+648097356+650600391+649948095+648010235+645766273
4033+643346287+643571632+645875286+646403741+645969344+647123112+648630902
4020+649263279+649038062+647847447+647027591+647534854+648013290+646972798
4006+645395515+645524065+646967389+647379258+647140168+648441005+649864219
3993+648975124+647956206+649182522+650959440+650789397+649170813+648436805
3979+648991479+650056344+650963258+650796716+650050617+649790016+650143974
3966+651013660+651779805+651616127+650471650+649040417+648633893+649436504
3952+649976287+650015806+650485714+650855009+650059208+648939868+649228087
3939+650600263+652025578+653052896+653227775+652577197+651740604+650435439
3925+648461815+648331610+651216031+653886689+654282140+654335405+655418407
3912+657162997+658383076+657281364+653990166+650544961+648197078+647743907
3898+649855246+653253739+655314167+653660708+651160983+651463967+651513859
3885+649744260+647941887+647726088+651617272+655322377+654360415+651385246
3871+648932868+649039462+652218975+653355943+652114163+652275805+653398645
3858+653912399+651931011+644792793+642579696+648853256+654120625+655204645
3844+653474629+650752996+647754789+645819921+647471534+650208886+651454230
3831+654124825+658877994+661473750+660618829+656949298+651049361+649798162
3817+652378645+655308185+659543972+662360872+660556717+655746528+653653645
3804+653104189+650245923+650101718+653809114+657463371+661031652+664292814
3790+664984247+663157246+661618146+662000741+663195684+662990258+662858590
3777+665280358+667250355+666313976+663069807+659999497+659597492+661295180
3763+663294451+663503695+661408838+659963923+659574519+657474571+652623590
3750+650772597+654913562+658375822+657393559+657271882+658218698+655865341
3736+650721559+650812880+657591921+663843270+666002274+664383499+662243777
3723+661847245+662762050+665086006+667685389+667437389+661845081+656772637
3709+660457950+666466073+670040082+671155730+670694478+670123130+668891468
3696+667330604+665897971+663060897+661317262+665621461+670030790+670426050
3682+669194324+668663642+667884260+662310025+655009147+653378217+653887898
3669+657306374+662999931+666038358+665734420+664313687+662786615+659437823
3655+655671053+655278848+654646280+647974852+644002147+647455306+650746950
3642+651277124+650498632+649164512+646859458+644230801+642205119+638488433
3628+633635733+633937062+635608340+634588912+631304205+628694385+628165675
3615+627222869+625008881+622036639+618990385+619114926+621684845+621913371
3601+619775559+618994522+619124408+617774315+615792226+613632013+610207873
3588+607282533+608781031+612389851+614020909+612817693+611071195+611527929
3574+613308983+614030582+612907042+608365980+602075620+599898543+600111032
3561+600212918+601045502+601725417+600801193+600156470+601259137+602267554
3547+601996327+600788975+599973446+600443671+600565094+598322405+594971768
3534+593482624+594032907+595157783+596497758+597342879+596728385+595984067
3520+595858190+595525933+595634246+595624382+593719869+591636849+592426350
3507+595133473+596123245+594827372+594044935+594119010+594000706+594342064
3493+594245333+592240716+591107058+592658440+594016934+593938213+593993833
3480+595138565+596643109+597191865+596698920+596283296+596540842+597065733
3466+597558614+597312460+595696739+594083309+594206259+595775078+596786996
3453+596574507+596460084+596879908+597653309+598699591+599395925+599604151
3439+600001447+600482809+599775593+597721275+596225385+597090234+599302249
3426+599750774+598159745+596966011+597148336+599178535+603223534+606824971
3412+607407455+606360345+606729513+608694610+610244147+610427490+610850178
3399+612574148+613252599+612456862+613122267+614669641+614608866+614411459
3385+615854783+617426784+618545678+620567350+623317684+626113902+629415983
3372+633304176+636761790+638996078+641217003+644498528+646943015+647329493
3358+646958352+647334902+650079127+655076286+659718787+662645592+665130362
3345+668857167+673582208+676566541+677025121+678128296+681246462+685238067
3331+688590041+689403279+688714836+689599604+692883930+696810051+699067186
3318+698523776+696251622+695310025+696932619+699095187+699573750+698614779
3304+698601097+700439617+703592529+706545679+705556035+700262638+695694339
3291+694094655+693614120+694202586+695734177+695099763+691135141+686587015
3277+684839053+686722693+688746338+687233775+683032225+679235418+677665135
3264+677603978+678378460+680113885+681019845+680335093+679225554+678032711
3250+677348341+677150553+676168036+674790451+674934528+676043368+675294023
3237+672323372+670123130+670175059+670636121+670603665+670660558+671157830
3223+671880765+671644411+671497661+672582954+672896692+671995697+671527380
3210+672570481+674990594+676686500+675846215+673999868+673944820+675006758
3196+674169656+672659766+674466721+677870305+678340149+677104796+676865706
3183+676978474+676342660+675594143+676519512+678820494+680621594+681528445
3169+681756080+681784972+682065236+681834865+680807101+680499853+681783699
3156+683105537+682896802+681120457+678915761+678480027+680444488+682901321
3142+684816716+686237767+686143900+684169002+681845938+681259571+683205068
3129+686393490+689139942+690452616+690664215+690551893+689588022+688176517
3115+688021239+689214972+690306820+690671788+691144941+692720061+695171611
3102+695348845+692024045+690109668+691441624+692407340+691765354+690741854
3088+690762282+692301064+693486524+693888148+694907893+696025260+696506177
3075+696624545+696403973+696371263+696498922+695761605+695049043+695691221
3061+696380491+695465113+693875293+694090327+696203512+698300404+699419362
3047+698976883+697749294+697532095+698520339+700184744+702591366+705256934
3034+706259496+705486414+704612211+703725088+703512790+704039081+703116194
3020+701157333+700039903+699478674+698978092+699197582+701523064+705858382
3007+709417690+710866424+711378715+711362996+710933117+710424008+709536949
2993+708310378+707911237+709257194+711319022+712951034+714139104+714138149
2980+713508636+714473588+716554635+717703121+717829317+717867436+717934257
2966+718092590+719480421+721930508+722960054+722163489+722097687+722878978
2953+721911480+719962356+720452374+722979400+724748363+726177623+728265924
2939+729415492+728720368+727078809+725966852+726749479+728369528+728246323
2926+726512044+724833638+723601149+722624296+721756265+721536330+721403326
2912+720108089+719822288+722050340+724374295+725282164+725486634+725269372
2899+725038746+726615456+729744568+730865817+729103345+727178213+726231334
2885+725785545+726100429+727566090+729639946+730853216+730354735+729561225
2872+730128818+731002703+730566270+729998358+731320196+733678580+734053412
2858+732811758+733098260+734275256+734093249+733184808+732984028+733563267
2845+733640779+732547595+731672054+732107279+733217327+734461463+735124322
2831+734224027+733125242+733291339+733998492+734922652+736085838+737255771
2818+738547444+739351836+739621028+740356436+741438992+742316378+742740084
2804+742875634+742898735+741973366+740916074+741376372+742449892+743208401
2791+743451755+742933800+743050832+744862432+747302910+748567728+747577511
2777+745577794+744499310+744404552+744382915+743837023+743845805+745951416
2764+748465269+749044635+749050363+750155448+751523424+752408701+752937919
2750+752726512+751459085+750542625+751487850+752828270+752352762+750751551
2737+750506669+752228794+753747848+754189055+754817041+755742855+756063912
2723+755157380+754037977+754741820+756613686+757723799+758233989+758325947
2710+758161060+759074465+760553426+760738042+759952232+759843092+760465987
2696+760348637+759673241+759604129+759915576+760978405+762759905+763516059
2683+763554942+764461474+765725847+766415562+766794466+767028720+766929317
2669+766757111+766710336+766563076+766208355+765885007+765923445+766161771
2656+766816549+768574948+770101702+769747935+768785019+768535365+768451934
2642+768149651+768117195+768518819+768866986+769534746+770939887+772114719
2629+772793171+773487150+773781351+773657383+774013759+774947465+775850752
2615+776264721+776153481+776132607+775809769+774488058+773935548+774985076
2602+775288250+774116790+773734195+775117571+776564077+777406462+778852141
2588+780195043+779928652+779030520+779050948+779660542+779798892+779798829
2575+780251299+780461689+780144259+780305774+781544627+783120638+784082217
2561+784277970+784070190+783234678+781299046+779387978+779039238+779959007
2548+781576256+784350518+786862398+786931064+785982276+785501231+785201303
2534+785604644+786211184+786023832+785802178+786365953+786958747+786275904
2521+784763660+784450303+786009259+787788404+788388834+788198173+788412062
2507+789356268+789839349+789448544+788919898+788816040+790097977+792336847
2494+793185659+791958961+790250709+789685344+790342094+791017046+791197270
2480+790865268+790144496+790136860+791451634+793266417+793677649+791870249
2467+790779992+792537500+794855664+796001541+796898464+798022640+798546195
2453+797491067+795789624+795232977+795413647+795663620+796659946+797581434
2440+796777996+795234250+794623256+794636620+794981159+795769005+796511986
2426+797528932+799142171+800136079+800089941+799900489+799755138+799415371
2413+799020557+799519102+801024665+801320521+799776075+798584824+798760912
2399+799781675+801154870+801925661+801641387+801205208+801368632+802414660
2386+803172851+801789156+799481365+798565350+797963011+794689885+789738355
2372+787415099+787264403+785140082+781314446+778875305+778614768+779611604
2359+780219544+780000500+780594439+783728577+790077803+795965903+796022160
2345+790137623+784872418+784492432+786245740+786988784+786665946+786842734
2332+788629197+791572038+794707704+796398646+795663302+794114210+793787871
2318+795822526+799429308+802491408+803771244+803081084+802627404+804787490
2305+808335661+811052903+812254528+812808629+813723307+813687479+811946199
2291+810958464+811946708+812931516+813133250+813796555+814889994+815671477
2278+815536817+814504408+814423014+815573537+816066800+815803718+815655249
2264+815360856+814596493+814166105+815063791+816677412+817458131+817480341
2251+817946048+818455985+817872418+816659339+816461168+817937775+819760449
2237+820531877+820576233+821243166+822955745+824465571+824519600+823423425
2224+822644806+822608023+822420162+821887061+821681190+822571749+823855340
2210+823381487+821328250+820036004+820055351+820195356+820381371+821590823
2197+823080349+822949826+821394116+820518449+821653826+823537911+824134014
2183+824149160+824860894+825224016+824345167+823178162+823007992+824299538
2170+826706669+828609846+828472895+827274962+826444541+826316564+827352665
2156+828985632+829667329+829050098+827695677+826607265+826875311+827962259
2143+828766969+829266023+829397565+829015542+828671830+829083635+830016896
2129+830626808+831068778+831837660+832574150+833007275+833098278+832767166
2116+832404808+831895444+830927055+830370345+830720993+831130381+830689556
2102+829737395+829319607+829740640+831179446+833575822+835204080+834281893
2089+832305722+831738893+832060650+832549649+833284930+833058186+831810932
2075+831557205+832918308+834036184+833883451+833313758+833340232+834654370
2062+836015727+836074975+836067783+836404877+836132186+835500063+835425924
2048+836312919+837434550+837973060+837974651+837894467+838344201+839199568
2035+839811007+839755833+839554671+840398074+841240840+840674902+840315662
2021+840965412+841052661+840265642+839813808+840441984+841949265+843158208
2008+843577650+843731338+843180418+842120580+841594353+841425647+841356281
1994+841408655+841658691+842363425+843040349+843226556+842801959+842209802
1981+843183155+845841467+847521400+847211098+846491154+845898106+845060239
1967+844994373+846452971+847898268+847998053+847249535+846564402+845962826
1954+845243710+844969873+845693507+847408250+849321482+849572664+848098411
1940+847630031+848274499+848338838+848421759+849110902+849651003+849960668
1927+849727751+848561191+848239753+849877174+850953304+850024052+848889630
1913+848243380+847663568+848053291+850142611+853012649+855433145+856522192
1900+856281957+855347742+854231202+854166990+854940963+854740820+854808086
1886+856675180+858104503+857381568+855790221+855080523+855448481+856190699
1873+856224173+854432300+852052979+852708393+855788121+858344484+859294036
1859+858555256+857864586+858645495+859224034+858364276+856874559+855641434
1846+854608261+853699056+854857279+857793565+860133303+861249715+861167367
1832+858709579+855346532+855944354+858764436+859760571+860755243+862382610
1819+862505878+861610228+861194922+860529071+859504107+859726779+860792853
1805+861031116+860144758+858684697+858027819+859454788+861509042+861250542
1792+859062455+859527145+862536043+865340151+866429199+865633971+864606207
1778+865021067+865489638+862967449+857880177+856474209+859284427+862624818
1765+864609898+864248240+864024486+865390299+866261384+867571322+868712426
1751+866064804+861737951+861978123+864955201+867004047+866835914+865012985
1738+863837771+861810817+857632305+858275182+862627937+865418045+866528730
1724+867604477+869419514+869264364+862904001+855474573+858774936+866043167
1711+869399405+867487764+861995496+858348557+858925251+856908097+851418884
1697+851409211+856478409+862473549+865565241+865236675+863836816+859533254
1684+851500468+851250687+856327904+859173887+857188743+855324641+857374759
1670+858090566+858060974+860240406+859972997+857358213+858761317+861718159
1657+860673467+853428719+842474602+842727820+845651124+844192718+844948426
1643+849398866+852321916+852238040+847424669+841117763+843823614+848775844
1630+849777453+849076028+849558918+850238069+851926465+855284739+857168315
1616+858325393+862964330+867919361+870301928+871204642+872971250+875841861
1603+878470963+880701561+882237352+882057318+882067055+884552971+887636389
1589+889159834+889855659+891252527+893427313+894808653+893594683+888767820
1576+884933339+888096369+891059956+889816076+888487238+889654370+892885621
1562+895913611+890098313+874596262+877355124+887715683+893467915+895054362
1549+897011123+898504976+895307517+887670818+880951024+886995548+898220447
1535+902061229+900412925+900841850+903198961+904097220+903239244+899380325
1522+894769261+896667028+902161969+908112244+914835920+919013605+917458786
1508+908025378+899898598+907527215+915622620+918497814+918844453+920227193
1495+922780884+922257838+916223433+912468372+918573607+924285619+924664715
1481+923978563+924084330+922236392+916737060+908638345+905964441+911271775
1468+915385185+914940287+914689678+916879992+915432914+904918922+896665501
1454+903763372+913451143+918308043+918979367+920080061+922281703+923271220
1441+924805992+928262715+929432775+927867710+927277780+926582401+927510634
1427+929667283+929767069+930063561+930372399+925772981+922180645+926309900
1414+930953038+931166100+929419665+929147165+928325463+926095438+924372232
1400+921486984+918499786+917684957+915753780+913206326+912048357+909833860
1387+906306435+906033934+909113789+910273349+907267569+903259926+901348413
1373+902758900+904562927+904066737+904069792+904975497+904522135+905287708
1360+907495523+907243450+905424213+904646230+905053645+905650066+905444768
1346+905034744+904906003+903364676+900745437+900537275+904129230+908378318
1333+910165545+910172736+910441927+911444363+912702435+913529801+913756672
1319+914196161+915507498+916975196+918250068+920253985+923959726+928903111
1306+933124261+936214616+938639311+939681839+940925274+944890852+950401257
1292+955132598+957823048+958438242+958321275+958133732+959219979+962152256
1279+964818206+966320459+967056440+968086940+969782909+970564583+970829001
1265+971677940+972842464+974032251+973783615+971744825+971225979+973263051
1252+973990250+972930794+973906310+976644171+979041248+981331284+982405822
1238+982667567+985341917+988918090+989535002+988179882+987554759+987400499
1225+986957447+987577542+989441963+990874786+990523310+988583223+986676355
1211+985100027+984732132+987114571+990711681+993102202+992910077+990904697
1198+989820103+989697026+989927398+992291255+995914393+997991239+998093952
1184+996930511+996798906+1000170735+1005801226+1008761122+1006366210+1003384804
1171+1002755991+1001391197+1000754047+1004351538+1008779832+1010020022
1159+1009398463+1007272360+1003608430+1003335229+1008413655+1013603958
1148+1015093038+1013515309+1012278938+1013230972+1013628713+1012632005
1136+1011635870+1011421408+1013265401+1016081601+1017466886+1018282352
1124+1021206992+1024696107+1024269219+1020172482+1016101710+1013101531
1113+1011161635+1011529466+1010331978+1006270179+1007474858+1013774764
1101+1018240223+1019109654+1017629674+1018261414+1022019403+1023416589
1090+1021226656+1022491856+1029521442+1032903453+1029007306+1027560800
1078+1032836823+1037776263+1038271244+1036312829+1033730183+1032868516
1067+1033262884+1034120605+1037129185+1040869354+1043499730+1045232864
1055+1045133079+1043726538+1043090024+1043133171+1043434118+1044470855
1043+1047875585+1054096006+1058269237+1057026056+1054038604+1053485012
1032+1055647389+1059834047+1062473204+1056864732+1047815320+1045770674
1020+1050875765+1055864460+1052593244+1044033403+1040441512+1040309335
1009+1038378920+1037563582+1039423167+1041682402+1042257567+1041078980
997+1041942429+1045995319+1049648048+1049619729+1046073276+1042604271
986+1039834590+1037924477+1040618873+1046195398+1048838374+1047923823
974+1045312858+1042000913+1038997297+1037697478+1038948677+1041235022
962+1042929082+1043652972+1044285285+1048966797+1057764455+1060202705
951+1051479313+1044567140+1049058946+1056874533+1058387986+1056375860
939+1056292175+1058081821+1059547991+1058892768+1056264365+1055107606
928+1057631132+1061431504+1062027798+1058561974+1055312459+1054309005
916+1054023713+1054463520+1054850761+1053704311+1055469519+1062290370
905+1064906427+1059856257+1055879543+1054885571+1052945547+1053926791
893+1063569570+1073741823+1070863703+1059956869+1052933838+1050280807
881+1048648095+1048351284+1049783853+1049810518+1047440361+1046872768
870+1048355230+1048302728+1046790738+1044913971+1043281831+1042820769
858+1042304851+1038861747+1031953010+1025381240+1021878761+1020734602
847+1021525503+1023075040+1024094340+1024529946+1023458845+1019818524
835+1014790246+1011526475+1008890881+1003111794+997668401+997807133+999732201
822+997792751+994728487+992195415+988842678+988626943+992933560+995159193
808+993072292+992125795+990165788+983418121+977580232+974731894+975396091
795+982839774+991845657+988010730+970495535+957628505+954722383+951538543
781+946014583+940956266+936720289+935536483+937590483+940242877+942349698
768+943039031+941404537+935695898+928169421+927068473+930644264+929977967
754+925957215+921996474+917779843+912932552+909403918+909764685+911851714
741+912030920+910322350+906970504+902884650+901172834+902864349+905894502
727+907365700+907434811+908578334+909753866+910431236+910370079+907014605
714+903575320+903213661+902511282+901754873+903785327+905059245+902265127
700+898153690+894531380+889563685+883084891+878794120+879430061+883849064
687+887287904+886296605+885437357+888596505+889733664+885531796+882043445
673+880793073+874560052+860925667+856308876+869055947+883395702+889495974
660+881062265+865495811+856440989+855342523+861645229+874252041+877494492
646+862500150+848115148+846738454+852906437+854291213+850771361+872022398
633+911195663+913960125+896214558+869694115+825910932+816909948+852974530
619+868260910+839805153+826343992+847017318+895825535+946324630+941340962
606+891813947+849780316+827177849+832904116
##END=
