##TITLE=Sample description
##JCAMP-DX=4.24
##DATA TYPE=INFRARED SPECTRUM
##DATE=25/8/2023
##SAMPLING PROCEDURE=Instrument type and / or accessory
##ORIGIN=Default
##XUNITS=1/CM
##YUNITS=ABSORBANCE
##RESOLUTION=4
##FIRSTX=4397.6552
##LASTX=599.8556
##DELTAX=-1.9287962
##MAXY=1.9490844
##MINY=0.71136677
##XFACTOR=1
##YFACTOR=1.8152263e-009
##NPOINTS=1970
##FIRSTY=0.77369529
##XYDATA=(X++(Y..Y))
4398+426225253+426420068+426191924+425888717+425463952+424471059+423695901
4384+424640065+426862959+428326949+428194719+427295802+425776221+423914851
4371+423707492+425514256+427048843+427307164+427256301+427666192+428606284
4357+429409386+429003139+427713673+427187444+427408003+427488090+427798553
4344+428111086+428313782+429082011+429889020+430123469+429909575+429328412
4330+428369800+427509072+427503161+428365728+429574353+429782402+428738745
4317+428528562+429326705+429657888+429569132+429264743+428713494+428526066
4303+429234403+430568987+431453816+431607029+431738208+431444622+430540189
4290+430301407+430834925+431044221+430873408+431110090+431839934+431997941
4276+431284350+431421145+432966042+433861905+433255458+432534217+432582683
4263+432913373+433021141+433083037+433046556+432835815+432703059+432432918
4249+431860785+431773704+432753167+433921699+434452262+434446647+433909616
4236+433219437+433050398+433310951+433634615+433794197+433603191+433240189
4222+433186371+434030583+435165787+434914165+433929974+433616128+433488232
4209+433517292+433838657+434478170+435774270+436972354+437577389+437599586
4195+437138044+437092271+437151737+436214205+435281599+435858231+436917288
4182+436442481+434745815+433992067+435236121+437159617+437960026+437718157
4168+437723575+438171063+438142200+437617186+437349048+437717270+438720112
4155+439506040+439213636+438586306+438913187+439952313+440357312+439896197
4141+439378276+439596667+440943499+442132521+441758224+440646104+439504398
4128+438345618+438255287+439304920+440111075+440401016+440384073+440091308
4114+439922334+439846812+439878597+440419273+440934403+440604172+440428730
4101+441504041+442531379+442496244+442052861+441550274+441390330+441834403
4087+442267115+442247118+441971625+441995004+442552394+443158840+443397164
4074+443340817+443166163+443083581+443149778+442909058+442239237+441921944
4060+442368808+443321805+444393931+444724261+444015267+443155524+443033243
4047+443801965+444553678+444732404+444858658+445027697+445188922+445234991
4033+444653532+443809780+443740595+444477433+445283161+445653879+445586664
4020+445595562+445831587+446163328+446639646+446621685+445719813+445177659
4006+446148946+447356783+447330711+447216015+447820623+448057896+447866199
3993+448065054+448146191+447557312+446957761+447113337+448279472+449463667
3979+449603943+449122568+448397353+447555539+447106113+446991056+446788163
3966+447087627+448261347+448948012+448579659+448521900+449482450+450542722
3952+450660274+449704847+448591315+448676656+449343225+449249347+449206562
3939+449971442+450435775+449706292+448633936+448561106+449326052+449741788
3925+449441799+449599444+450336315+450351518+449907182+450344656+451568878
3912+452859395+453914808+453859085+451251091+446947155+445028978+446357093
3898+448804749+451288491+452714228+452220047+451776663+452363179+451509773
3885+449734695+449381939+449509506+450586656+452185274+452346761+450965977
3871+448427957+447443076+449501889+450474489+450189276+451640854+453205092
3858+452732484+449724024+445496496+446612786+451156163+454527198+455741733
3844+454575270+451973252+449625614+448607602+450024505+452966966+455026238
3831+455434356+455530040+456543587+458142828+457584945+454069957+452668618
3817+452916398+453847034+457156469+460109437+459596113+456225045+454755112
3804+454584497+452808795+453075226+455324553+457119398+458992228+460493519
3790+461135724+461526735+461702801+461649935+461301973+459976649+459243357
3777+460465904+461595854+461444940+460683574+460894380+461925034+462487678
3763+462546422+461442773+459507358+459417748+460536107+459352471+454471607
3750+452203432+454780461+456714169+457430879+459192724+460662887+459868684
3736+456097806+453268662+455945053+461033506+464113319+463682807+461345644
3723+459902341+460807923+463538986+465687572+465356324+461973533+459128497
3709+461558585+465317282+467219894+467403709+467428960+468841464+470383143
3696+470439818+468901914+466420733+464789969+466685259+470252358+472561348
3682+472540792+470421857+467086383+462427326+460092494+460886204+460210900
3669+460527307+463443171+465211977+464995030+463845477+461975044+459629278
3655+458523495+457249723+451874547+444370421+444799685+449810645+452417062
3642+452193253+451349336+450746305+449795573+448433276+446234155+441135261
3628+436362164+437793646+439799232+438270129+433977389+430843955+430515924
3615+430129773+429034563+427971796+426591570+426117715+426797123+426014938
3601+423197156+420885211+419926566+418834180+417748624+417253655+415580928
3588+412141462+410654060+411477782+411800133+411231546+410869628+410445092
3574+409277906+407820254+405782292+402174444+399154852+399574856+401101793
3561+402019820+402536230+402419761+401499797+400668260+400396214+399636062
3547+398047000+396776053+396820644+397842859+398539933+398278132+397553969
3534+396666052+395348182+394006670+393698669+394022333+394188220+394619717
3520+395337018+395704846+395418156+394662338+393686816+393026748+393369850
3507+394150952+394075889+393015354+392090431+391888753+392314701+393077939
3493+393628663+393752980+393613362+393620060+393823150+393676998+393494824
3480+393848204+394355519+394721936+394972671+395292690+395818820+396157490
3466+395776363+394743213+393959288+394073360+394845793+395896345+396766005
3453+397026197+396857092+396867862+397077881+396853644+396472747+396762459
3439+397432345+397936212+398616572+399227518+399293945+399873597+401468176
3426+402701132+402548905+401827631+402126077+403407269+404769271+406189753
3412+407454626+408324187+409041849+409536686+409970154+410918258+412358672
3399+413715682+414786495+415992690+417491683+418999378+420603610+422258081
3385+423747486+425458763+427211808+428339230+429231513+430744823+433262584
3372+436517051+439601757+441904475+444147990+447237030+450672358+453578995
3358+456306905+459867535+463729369+466757104+469609791+472876638+476290360
3345+479591520+482227457+484415545+487109175+490698635+494397832+496978999
3331+498727250+500501080+501911449+502796869+504051760+505462162+506012032
3318+505984713+505897993+506010982+506855850+507662202+507459342+507672480
3304+508755343+508705400+507740056+507270765+506470028+504781210+503344080
3291+502809511+502180999+500676325+499360195+498693790+497310839+495374209
3277+494293841+493627534+492581841+491433634+490562661+489857149+488890426
3264+487866700+486942796+485994297+485458053+485116198+484066401+482334667
3250+480804315+480005746+479455350+478891360+479165441+480057265+480409299
3237+480795515+481601736+481510189+480402732+479371257+478902163+478610153
3223+477343835+475458330+474965529+475790696+476408734+476387226+476138691
3210+476811532+478455364+479458962+479447863+479125907+478740906+478409427
3196+478420328+478956900+479508807+479401794+478878816+478800240+479356645
3183+479832208+480117092+480772826+481567028+482125929+482900758+483722412
3169+483794913+483586635+483917556+484626319+485475818+486182611+486307256
3156+486174665+486553263+487607592+488697778+489299430+490098066+491287121
3142+491492641+490770020+490704119+491674552+492855627+493348724+493254814
3129+493341665+493736779+493985118+493798938+493713761+494337184+495344459
3115+496155343+496382666+496163059+496444463+497544729+498653139+498923642
3102+498285048+498167200+499322828+500467226+501225637+501918311+501822824
3088+500823463+500263577+500964493+501901565+502375190+502595914+502443850
3075+502813419+504380711+505869787+506364034+506165902+505856653+505845062
3061+506068215+506634437+507618235+508335240+508133398+507366285+507122511
3047+507593312+508078562+508296527+507826874+507164114+507763862+508909179
3034+509085213+508990448+509648645+510469871+510713842+510698639+510844069
3020+511101733+511511263+512104575+512630705+512986417+513271761+513663428
3007+514640790+516241443+517360590+517326243+517288810+518171637+519369098
2993+520621263+522056883+523288756+524552414+526290354+527700624+528094097
2980+528003930+528039458+528738502+530003178+530824766+531098289+531256952
2966+531341406+531437452+531514715+531692226+532001606+532087439+532024427
2953+532222329+532856259+534071583+535563516+536400799+536503773+536592660
2939+536880270+537360364+537970357+538241746+537962641+537938572+538768434
2926+539466822+539089964+538225821+537517944+536805371+536182014+536121628
2912+536817783+537794652+538132829+537964611+538180441+538651932+538946438
2899+539419144+540173681+540549521+540477183+540759605+541528360+541909684
2885+541629527+541592193+542489468+544065395+545214357+545219578+544992288
2872+545122154+545069058+545076676+545856398+547174071+548224920+548633070
2858+548681602+548782704+548721563+548033059+547183955+547152662+547830593
2845+548135442+547950904+548046982+548447383+548866862+549621070+550831107
2831+551886159+552494083+552879971+553156121+553531436+553995276+554428776
2818+555140593+556123832+556797232+556826587+556713040+556952414+557174517
2804+557257657+557512989+557962448+558775137+559729349+560413978+561395510
2791+562803186+563601690+563429039+563221450+563766855+564739915+565577297
2777+566085991+566193562+566138003+566162893+566165060+566339616+567024179
2764+567935705+568709057+569431250+570290763+571212862+572031790+572697243
2750+572909035+572751488+572788002+572988498+573392708+574162514+574815949
2737+575087961+575189162+575394255+575986156+576671376+576784397+576738230
2723+577481307+578392570+578467961+578525818+579384740+580188629+580249441
2710+580139244+580388009+581014059+582016605+583088370+583740558+584025376
2696+584400822+584995284+585438306+585435548+585212658+585398378+586087079
2683+586765206+587330575+587898900+588655308+589463466+589625085+589338755
2669+589269668+589453944+589885408+590575685+591476637+592366228+592870457
2656+593174189+593484751+593489545+593453032+593771015+594097864+594586528
2642+595463707+596130868+596640087+597378239+597790527+597556669+597258913
2629+597430711+598015781+598659037+599150919+599427989+599606157+599785901
2615+599942856+600248165+600747862+601377655+602010010+602258906+602375539
2602+603004676+603896762+604699141+605544732+605792446+605116092+604903774
2588+605840781+606995489+607559873+607455520+607374875+607929934+608708145
2575+609148869+609269968+609505533+610136114+610615519+610643495+610750015
2561+611016183+611227843+611390315+611377575+611270267+611746848+613143097
2548+614415621+614612374+614382588+614524045+614770446+614972059+615568228
2534+616359574+616881796+617175547+617247654+617317923+617667692+618020678
2521+618175204+618321849+618760997+619496456+619913407+620001998+620498018
2507+621142981+621414731+621840285+622951518+624104782+624254382+623893581
2494+624226603+624903614+624929095+624617679+624706336+624885095+625027997
2480+625686292+626761209+627835141+628563770+628650063+628526928+628737932
2467+629156393+629384208+629268101+629259103+629675332+630057411+630100229
2453+630113560+630425633+630977933+631680359+632674040+633518318+633289123
2440+632156283+631455696+631956181+633037206+633835578+634482249+635238067
2426+635558808+635230120+634812513+634696734+634943528+635561566+636281855
2413+636748323+637166915+637767944+638401480+639027924+639508839+639520594
2399+639276164+639570505+640223809+640345761+640282454+640554007+641065394
2386+641726315+641991367+641625640+641183537+640887817+640210412+638355313
2372+635540223+633328329+632512290+631919668+630460110+629059198+628969359
2359+629704753+630543711+631897996+634151000+636918216+638992002+639112247
2345+637449304+636522017+637797299+639367907+639806267+640113020+641244218
2332+642051654+641582297+641373001+642321302+643383545+644391936+646364850
2318+649149731+651030967+651411470+651812725+653121434+654256309+654512167
2305+654830938+655785216+656636455+656973680+657294355+657983910+658901346
2291+659506840+659520172+659808340+661059454+662327644+662756218+662670516
2278+662568265+662753394+663022058+663183676+663770849+664668189+665138399
2264+665235856+665249056+665315319+665519230+665552395+665560735+666130110
2251+666759115+666877193+667403488+668680740+669491787+669440432+669422963
2237+669969287+670603349+670698836+670588244+670934663+671713072+672353964
2224+672439731+672515714+673041679+673156999+672716932+672976599+673909205
2210+674440490+674609989+674904856+675383078+676018913+676640629+677071108
2197+677468160+677860878+678037075+678297727+678870911+679173987+678897968
2183+678630092+679055055+679974921+680550206+680620278+680695275+680922434
2170+681263074+681910073+682491269+682343376+682059936+682661491+683720252
2156+684197950+684261586+684661068+685260061+685532664+685426801+685227487
2143+685406312+686262804+687377321+687786260+687063738+686087395+686070714
2129+686967660+687734642+688258703+689091554+689700398+689605765+689378803
2116+689422409+689796147+690504681+691212821+691631413+692155803+693009340
2102+693456960+693188559+693072188+693772513+694653238+694874158+694658098
2089+694418593+694219541+694357977+695191813+696284330+696750141+696654982
2075+696671860+697146011+697849488+698129775+698170229+698771192+699597804
2062+699609822+698946799+698829969+699574293+700186946+700342457+700657879
2048+700941976+700846292+701127499+702142523+703121690+703531483+703615149
2035+703696385+703885191+704415492+705230545+705643621+705604546+705948667
2021+706464913+706080339+705216820+705420797+706873261+708263403+708647583
2008+708311606+708175665+708800862+709798286+710538473+710978934+711126433
1994+710755650+710177869+710271649+711057150+711767719+712275297+712892350
1981+713478537+713796717+714236850+715012303+715391492+715201372+715150280
1967+715259820+715717750+717100668+718502697+718678895+718132373+718190821
1954+718871904+719175571+719037988+719190544+719800045+720098063+720007371
1940+720766143+722173885+723104981+723574469+724160722+724786246+724799446
1927+724055318+722881565+722026255+722458310+723747580+724919429+725623694
1913+725735139+725590332+726028561+727216565+728391763+729184422+729804233
1900+730199840+730155840+729844096+729844359+730456486+731313570+731882748
1886+732123107+732602248+733473123+734322391+735083134+735580270+735591106
1873+734962232+732850291+730223088+730930768+734117233+736151616+736909928
1859+737755125+738661200+739093255+739233990+739261441+738826430+737887651
1846+736932060+736885105+738301515+740100596+741250839+741602971+741795127
1832+741238755+739280945+738499056+739665651+741006736+742458019+743903785
1819+745194499+746443053+747243264+747191252+746349011+745771033+746427817
1805+747365414+746877472+745273240+745002212+746433530+747221199+745795134
1792+744368479+746472737+749454239+750346851+749594120+749284018+750543341
1778+752349449+752891439+751114949+747739284+746966983+749296692+752204183
1765+754454823+754572178+753040185+752351353+752512709+752910418+752672489
1751+750468607+748166151+749188990+751756826+753490629+753951711+753968588
1738+754880968+755115876+753476575+754010750+756389516+758322042+759473007
1724+759270343+758216770+756043360+751341254+748283047+751548646+755926726
1711+758433224+758465075+756226321+754589385+754634435+751702252+746242885
1697+745462441+749081026+754525289+758358030+759409174+758835202+755178592
1684+749181898+750458362+754869541+757004073+756156578+754151156+752553491
1670+750198695+750668906+755069380+757233990+755541429+754873284+755948989
1657+755283076+750672649+744256508+744693095+744351798+740912760+743221060
1643+749281325+752205233+751418944+746900786+742370347+746729251+753575280
1630+756729302+757175871+757415639+757876787+760370938+764145166+765650824
1616+766915402+771852809+776451416+778682420+780709973+783636311+785732885
1603+787046191+789497131+792495117+794242383+794976594+795702728+796776857
1589+798113410+799538030+801128800+802887558+804318088+804492578+802462398
1576+800853569+803911448+806560913+805054269+803605745+805226789+807657108
1562+809469914+807042879+800240653+803306084+809857181+813863821+816043930
1549+818914513+821260771+819580360+813796048+808258991+812654014+821633196
1535+825169954+825050103+827856722+831828424+832914112+832205709+830349691
1522+828301189+830498175+834568320+838955989+843963665+846312156+844291959
1508+839208037+840135455+850973676+859588248+863170977+861767241+859474899
1495+860896629+862739316+861216648+858218859+860011110+865057795+869253439
1481+871939352+873101153+871516623+866857073+861168445+860820647+867085873
1468+872915893+875123190+875720278+876397684+874654096+869440078+869232752
1454+877675789+885663064+889497315+890512668+892668478+896240305+900447048
1441+905154801+907506379+906455957+907396575+910442370+911608374+911803223
1427+912191212+912183594+912916361+912567512+908536836+907416080+910594072
1414+911326839+910340842+909816649+908422764+906011359+904351174+902817079
1400+898972189+893951706+890914974+889779836+889624719+889137237+886078767
1387+880944278+878212263+878914689+881058284+882819275+883179682+882886523
1373+883067778+883753129+884722971+886117644+886294630+883148554+880469996
1360+882722869+886435299+888043669+887110209+885096972+884726386+886245508
1346+886748423+885037277+882101547+879193138+879484524+883841195+887504109
1333+888455563+889275016+891608534+894796050+896995663+897226434+896351488
1319+895126313+894938952+897177574+900978136+905234658+909287990+911857468
1306+913780077+917561332+922024851+924291384+925297477+928033366+932705788
1292+936057483+936916142+938068618+940388542+942294011+943702147+945181603
1279+946282854+946771256+947176648+947153597+946287977+945737515+946226311
1265+947655396+949428405+949908401+949741397+950919156+952240146+951971811
1252+951286525+952336815+954806208+956446297+957300819+959028646+961082139
1238+962065247+961992286+961514983+961091465+961733407+964156633+965720083
1225+965033812+965716143+968318259+970076295+970900608+970970220+970255710
1211+970559311+972340464+973046830+972212009+972639008+974298930+974940478
1198+974428763+973814666+973755167+974203640+975853974+979666816+983705636
1184+985044422+983900090+982718325+982435542+982672158+984692421+988292027
1171+990380590+990985821+992039658+991947980+989025057+986526242+988518858
1157+992963070+994715917+994036345+995258695+998802086+999893553+997493574
1144+996973453+998587930+997785946+996162931+996889722+998821000+1000934846
1130+1002716655+1003871560+1005492604+1006145382+1004068313+1003026691
1119+1005418001+1007941771+1009032449+1010441373+1012672706+1014192418
1107+1013717282+1011815228+1009423459+1007679149+1008406333+1011359137
1096+1013626064+1013562100+1013467992+1016171374+1020786793+1024746280
1084+1025929228+1023978445+1022618840+1023966952+1025977693+1028177110
1072+1030595345+1032111577+1033464942+1036509161+1040890460+1043227918
1061+1041165099+1036779992+1034183786+1036469955+1042420942+1046422657
1049+1046284615+1046121552+1048154096+1049898340+1049258762+1046888862
1038+1044836353+1045460170+1048998505+1052035237+1051559970+1048721566
1026+1046361845+1047168033+1051275939+1054515138+1054640965+1053877530
1015+1053305594+1052303507+1050550265+1048617739+1046987961+1045920793
1003+1046636747+1048454216+1051273444+1055867519+1055557022+1046488723
991+1037532657+1035827947+1038867898+1040447634+1039520348+1039030304
980+1039750790+1041649298+1042619206+1040154278+1037547171+1039024262
968+1043643030+1046688628+1045682864+1044023992+1045052742+1048437339
957+1051737809+1051161407+1046883871+1043885688+1044383021+1047961086
945+1053811201+1057908600+1057300676+1055292693+1055074071+1056343443
934+1058541808+1061473269+1063385765+1061098676+1056588793+1055238119
922+1057380795+1060559182+1061282032+1058481127+1058092219+1062551535
910+1066233822+1067529068+1070840440+1073741823+1068524719+1058858740
899+1055478478+1057499661+1055458646+1049262505+1045478099+1045036587
887+1046047342+1048498873+1051269963+1050902595+1048733322+1049459587
876+1051174410+1050288563+1049774877+1051236339+1048477530+1040495509
864+1036097793+1036515072+1034380408+1029099471+1025600409+1024945529
853+1025924631+1026862687+1024431646+1019514269+1017474041+1017987792
841+1016654259+1012909847+1008594483+1005333284+999974854+988930818+979650924
827+978760873+980853770+980128424+979140851+981981881+986310642+985893297
814+979860745+973646349+971007128+970278367+968899061+966459351+962901972
800+958531838+954670793+951971285+947082409+939378049+936761157+940770030
787+942126088+937825763+932756093+929240941+928150853+928742491+927731801
773+926453564+926311319+922434578+916685466+914800289+913901176+911548810
760+909969467+908883058+906043341+902526481+901597224+901732771+899110297
746+895412577+895005871+897026529+896127350+892500621+891011446+891137733
733+891027864+892077103+891381638+886750327+883938258+886343293+890155939
719+888799224+882020246+875016604+868322475+865358572+871287690+881113908
706+885533362+880621238+872158368+867821989+866230235+864463005+863841815
692+865048273+866472236+866710953+866303459+865675767+865678788+868259364
679+871547685+868885545+861072564+857682648+856659218+851090178+853748772
665+865794830+867767941+863245908+862000245+861021537+855527626+846156383
652+838502459+837484348+842725422+852901408+858650192+851117169+844602192
638+845866573+829986329+799288871+793058910+816829562+840586818+844523912
625+830254073+814905837+811853737+812798886+810278729+814178783+836296738
611+857364337+844441625+823130318+820363431+819640515+812637728+812895687
##END=
