##TITLE=Sample description
##JCAMP-DX=4.24
##DATA TYPE=INFRARED SPECTRUM
##DATE=25/8/2023
##SAMPLING PROCEDURE=Instrument type and / or accessory
##ORIGIN=Default
##XUNITS=1/CM
##YUNITS=ABSORBANCE
##RESOLUTION=4
##FIRSTX=4397.6552
##LASTX=599.8556
##DELTAX=-1.9287962
##MAXY=2.1254673
##MINY=1.3233923
##XFACTOR=1
##YFACTOR=1.9794957e-009
##NPOINTS=1970
##FIRSTY=1.4060484
##XYDATA=(X++(Y..Y))
4398+710306383+710633509+709564508+707738093+706833317+709459601+715705531
4384+718220825+713286772+706725219+702738158+701471447+702470832+705226713
4371+709990518+714319581+713449613+708731697+705756969+706414593+707870642
4357+706844759+705731073+707778984+710409905+713176626+716312991+714764682
4344+711302396+713910552+718468217+716767185+711455962+709123321+711281559
4330+715384186+718531029+719590696+718612509+717245589+716719008+715276148
4317+711242234+705582144+702223801+704498689+710967139+716780434+716823011
4303+712213796+709179809+709601725+712423730+715754491+716248734+715002679
4290+714360291+713566263+712975364+711365508+707773444+706370330+708183375
4276+709272732+709188120+710133486+711998563+714942337+719283925+721773866
4263+719531498+713711338+708725554+708600112+710562447+710725529+710888188
4249+711517268+712709725+716171951+718155424+716395495+715838441+716599648
4236+714988648+713326278+714103925+715909142+716994945+715897519+713639915
4222+711852102+711078068+713040284+715439590+715194727+715208699+715086689
4209+712439147+712262998+717830948+722970237+722361453+718851290+716767848
4195+717509482+719154508+719576123+720009721+721351649+722081962+721774830
4182+721254511+720145582+718916390+719326141+720702757+721558873+722173198
4168+723074843+723313623+721550141+719420810+719280011+720188581+721586816
4155+724311322+726356343+726737006+727205955+726365617+722602341+718413415
4141+717186873+719798221+724569374+728632013+729454466+727469246+724037131
4128+720749609+720360214+722190663+723740899+724003407+722378375+719960640
4114+718368972+717923750+718085145+717917788+717877560+719414667+722567532
4101+724665608+722745188+719847302+720402610+722346036+722898332+721285646
4087+718365960+717734833+719400876+721074026+722533387+722830944+720814589
4074+717188559+714797804+716062527+719177693+720810976+721288235+722164828
4060+723161563+724043454+724540828+724727577+725567012+726504549+725970620
4047+724627428+724361005+724050741+722814563+723247078+725134618+724881926
4033+723313985+724317585+726806924+727404568+726783558+726527313+725611637
4020+723925841+723931622+724701260+722997458+720581891+720844218+724266939
4006+728722226+730189717+727981856+725716122+724596775+724344986+726509246
3993+729610321+728971064+725047657+723860199+726726407+728019374+725486857
3979+723285982+723469057+724120478+724024966+724312165+726271068+728635687
3966+729096627+728480916+728635326+729187803+729153356+728691995+728349933
3952+727652201+726410362+726556822+729356786+731575667+730410130+729425078
3939+730537921+731004220+730077644+727214507+721788861+718677489+720985258
3925+725124079+727001080+726961574+726581031+726336289+727178795+729731307
3912+732296465+732896819+730956585+726500815+720533412+716407238+717462810
3898+722905619+729098192+732955716+731334960+727456720+728034671+730611030
3885+731123580+730527623+729904024+730195137+731304427+731018132+729606466
3871+728206605+728301455+731846727+733667601+730397905+729150164+731397049
3858+733039545+732859541+728174326+723898440+726005670+728653031+729399363
3844+727997574+724141074+719782323+718500075+720777854+723376495+725653130
3831+727872071+728795215+728479049+729706555+731052338+726389766+721488293
3817+722827270+727928198+733405213+736334354+736145919+734207010+733967567
3804+734873487+732802812+732531993+735960435+737171139+736873522+737002397
3790+735996327+734294874+733047073+732367105+732975649+734577496+736185665
3777+737260990+736790837+735473419+735694374+736659914+735718824+734729195
3763+734873126+733245263+731024094+732638406+734919858+734352446+731663351
3750+730090832+731027948+730165086+727487132+730553217+736324477+737882482
3736+733921858+730583629+730841681+732902479+735921652+738950460+740320933
3723+739418566+738045623+737901753+738083322+736862862+733129216+729149562
3709+729914382+733636707+737343796+739254762+739121611+740379348+743902579
3696+746593180+745792407+741409808+735323587+732988717+737083275+743436280
3682+746775773+744306187+737706091+728118741+723206428+727252928+729823326
3669+729054531+731239207+733713550+733440202+731935434+730976879+728979434
3655+726828363+727287917+726020665+717882438+712933811+716982178+722000421
3642+723204802+722547840+721994459+719307050+715454586+712841551+708618239
3628+704571016+706492942+709668511+710927935+708861235+705425627+705304340
3615+705267122+702522261+699238654+696647058+696422250+698135085+698641312
3601+698110635+698796022+699710675+697399111+692833316+690676464+689242456
3588+684759828+682840973+685842681+687489874+686585520+686256406+685431424
3574+683669206+683993322+685898085+686330178+685256479+684317617+681830567
3561+678135282+675559886+674513829+674858600+675749405+675734108+675253356
3547+675448294+675768073+675191447+674546288+674951161+676383121+676766374
3534+675293584+673170034+670326891+668550220+668785688+669131844+670031381
3520+671756261+673323239+673558225+671969989+671100021+672089289+672984189
3507+673365515+672975637+671748733+671435277+671220104+670609151+670996500
3493+670918512+670189163+671315857+673692219+674555984+673983092+674465952
3480+675175609+673692099+672550289+673870717+675559886+676896996+677188712
3466+675440646+674796029+675682919+674388266+672337825+672416415+672955704
3453+672369502+672267366+673874511+675845459+676987871+677454652+677456097
3439+677119035+676344940+675452751+674970493+674552371+674204649+675502434
3426+678593451+680096112+679013199+679117985+680532421+680353802+679617407
3412+679375013+680130619+683412962+685961679+685518204+685722658+686947334
3399+688673719+692646628+695847912+694818958+692553103+692825307+695372639
3385+698367121+701020986+702391821+701264946+699053953+698795360+701496258
3372+705188412+706965444+707449329+709968297+713746206+716230065+718384870
3358+721473057+726625896+733314519+736382049+734547264+733825563+737548972
3345+743544378+750005000+755125560+756300734+755601616+755864967+755273225
3331+753730517+754703404+757037671+756946374+758212181+764969457+772327086
3318+774712662+774524890+776118907+778446128+779622987+779996485+777972421
3304+773227948+770972511+774837201+778681657+777030609+774944035+774132362
3291+770597147+766061283+764883159+767445727+769704416+768280224+765763244
3277+764347363+763352374+763777843+765473034+766726194+765886639+762691377
3264+760959210+761529212+760088821+756861040+756082067+757543596+758112153
3250+758172435+758083969+755875807+753051814+752515175+754999215+759353389
3237+760658221+757360822+753782127+750659011+749456257+753015741+755770900
3223+753321308+750006445+747188174+744017182+743497586+746265451+748516612
3210+748152208+746578245+745311293+744704255+745221442+745813786+744761707
3196+744213987+745834563+747334694+748074161+748992607+748994895+748319806
3183+749752007+752722701+753393875+751920001+751259606+751594260+752370944
3169+753301013+753375387+753833255+756821112+760451840+761061648+759118704
3156+757087053+755612877+755426129+756476401+757463320+758005620+758275294
3142+759229151+759842272+757672050+755563375+756885670+758828133+757437485
3129+753063557+749652520+750582168+754187482+756465019+757445735+758429463
3115+758907505+760350787+763454812+764892072+762788636+758996875+756441533
3102+757368049+761730173+767092344+769875085+767926420+763935264+762566176
3088+764339293+766023523+765329284+763727979+764479912+767403933+769536757
3075+769315743+767289391+765561259+764537544+763209769+762850363+763854626
3061+763895818+762712094+763150510+765369392+766253210+765752103+765553972
3047+765440454+765643944+767550815+770979919+772171532+768719604+764675272
3034+763884376+765049372+765960049+766731253+767594536+766769675+765012817
3020+766353661+770415217+773375672+774285808+773612586+771391175+769768733
3007+770763842+771655791+771071998+772194899+774613175+775916682+776736725
2993+777850412+779017816+779788899+779851470+779266593+778900202+779453523
2980+779535184+778705143+779424676+781616458+781665479+779399925+778383678
2966+780302593+784355959+787435112+786399413+783704537+783756810+785970331
2953+787481664+788032154+788536152+788695620+788707664+788905434+788480507
2939+788364881+789822134+791031332+790928353+791905877+794642427+797163262
2926+799724807+800890646+797310144+791907202+789000163+788426668+788358316
2912+787429150+785142760+782601811+782408920+784698261+787006151+788680805
2899+789894280+790126376+790204724+790921849+791177853+790567201+789693921
2885+789675373+791285710+792106898+791225729+790888726+790815015+790874333
2872+792875512+795379605+795044108+792728390+792202169+794050384+795236819
2858+794683258+794982983+797112013+797866957+795593333+793440335+792517372
2845+791294924+790824710+791641623+792868406+794189618+794639476+793881522
2831+792892314+792905262+794381605+796347313+798233468+799771419+799677231
2818+798106159+796802833+796263424+796469384+797561270+798678750+799079467
2804+799147217+799433995+800037600+800762192+801075166+800462768+799353839
2791+798957578+799933356+801636014+803264780+804835250+806392231+807074667
2777+805678359+803733668+803949745+805257467+805933700+806498222+806553506
2764+805800007+805101793+804066877+802395053+802402942+805516362+809209659
2750+810905512+809876498+806960727+805368276+806559347+808825744+810385134
2737+809861684+807651293+806565068+808160230+810462218+811268230+810986391
2723+810352915+809996280+810603258+811562595+812459121+813312407+814270299
2710+815838301+816384515+814614769+812925601+812951195+814111915+815829207
2696+816310803+814687939+814089753+816412157+819106431+819922982+819141420
2683+817852909+816847502+816216495+815921829+815648541+815592294+817017749
2669+818959790+818814354+816999261+816049861+816942472+818482771+819300647
2656+819334853+819222178+819800309+821279604+822100129+821365360+821085087
2642+822473506+824122988+824748755+824026693+822707047+822034969+822133733
2629+822732340+823982369+825069679+824836559+824580435+825622999+826713620
2615+827296148+827369318+825863405+823656147+822812074+823435613+824835174
2602+826193844+826893262+828239647+830589391+831331507+829821740+828276864
2588+827440741+826720666+825421315+823604597+822773171+823489994+825587829
2575+828396405+829704006+829716171+830616792+831698019+831787448+831678808
2561+831100014+829926406+829804878+830828412+831814669+832200030+832352632
2548+832797794+832541308+831149697+829525388+829065231+831160416+834350318
2534+835849365+835105623+833512087+832765394+832925103+833365085+833917803
2521+834025842+834486781+836124219+836801958+835683092+834439447+833568696
2507+833424284+834185551+834961030+835572224+836318254+837373224+838488838
2494+838196761+836192390+834880031+836296695+839432276+840906753+839081362
2480+836475735+836261826+838082881+838797355+837637840+836906503+837407189
2467+838138948+838877993+839770905+840222089+840221848+840191676+839836246
2453+839269316+838195376+836088808+835157474+837655485+841723003+843916230
2440+843761399+843200551+842308903+839880389+837791587+838263186+839612039
2426+839827152+839840461+840421544+840761558+841082541+841836642+842202190
2413+842093248+841774553+841387686+842315648+844296110+845291581+845700669
2399+845882540+845020642+844039444+843694372+844114481+845081526+845418168
2386+845273574+845239308+844372171+842469937+840514888+838049458+834645346
2372+831435210+828378037+826065089+825928204+825434624+821810220+817425935
2359+815316115+815070409+816532300+821281651+827426770+830682253+830296411
2345+828742983+829117745+831552883+832195935+829592234+826740238+825816974
2332+827366367+830604386+832873433+832820919+832779486+835092073+838943032
2318+842682220+845231780+845666162+844471778+843845047+845063339+846813934
2305+847748580+848625293+850132771+851403878+851738050+850936675+850008413
2291+850737642+851917753+852184476+853277567+855295788+856117639+855553418
2278+854969325+854967277+855310422+854794440+852880944+851786409+852755080
2264+854046602+854632322+855052130+855310242+854813771+854225161+855029426
2251+856437900+856837172+857065233+858351335+860320776+860887526+858677016
2237+856410739+856404296+857015549+856808747+856599415+857461554+858641183
2224+858033121+856213693+856463976+858634198+859066110+857348035+856338352
2210+857247886+859326571+861739849+863198005+862510691+860762626+859799073
2197+860144687+861346117+862504669+863266839+863768248+864035212+864279714
2183+864319581+863740666+863188069+863214506+863115682+862713880+862425236
2170+862155020+862285461+862804454+862870397+862691960+862567902+862794759
2156+864248278+866059938+866613499+865884270+864623220+863918382+864375587
2143+864947938+864711325+864991177+866542919+867212648+866471797+866135637
2129+865833322+865566659+866711239+867726884+866995789+865313305+863418900
2116+862791145+864529214+867144356+868778422+868595045+866715033+864686273
2102+864095736+865082233+866660532+867733509+867910622+867586567+867325866
2089+866936410+866441686+866889677+868149161+869138730+869735591+870041459
2075+869789188+869480008+869903008+870013576+869631888+870581590+871644268
2062+870686497+869618941+870022790+870144739+869410633+869207323+869411897
2048+869828032+871287634+873332594+874443389+874395633+874236165+873866643
2035+872597644+871370559+871687689+873366198+874923419+875742680+876153033
2021+875624946+873620997+871603799+870959785+871485824+872896767+874147217
2008+874345529+874209065+873769444+872513032+871537194+872029810+873260749
1994+873914760+873760652+873777273+874388828+874696442+874836399+875266083
1981+875356115+875388033+875993023+876592714+876631377+876071372+875714918
1967+876754953+878029372+877698753+876671063+876363871+876792893+877570299
1954+878938243+880623256+881309787+880905637+879852474+877566866+875073914
1940+874661152+875962551+877339649+878088811+878719396+879950877+881259682
1927+881622340+880845415+880337743+880927919+880571766+879213578+879132640
1913+879667532+879721672+879750699+880431449+881893520+882816964+882303692
1900+881564466+881278291+881000246+881023010+881548447+882462076+884207371
1886+886161035+887283574+887858755+887865499+886692314+885141596+884490114
1873+884169371+882549579+880346234+880473002+881965485+882492428+882499414
1859+883321023+885113713+886635825+887442259+888465492+888922999+887170537
1846+884277048+883368960+885066439+886714415+887736022+888289944+887860260
1832+886582529+885322382+885790729+886916400+886971563+887283273+887854900
1819+888104039+888682833+889077047+888188952+886781021+886987281+888461878
1805+889427178+888798821+886303580+885271073+888015994+890306420+888314395
1792+885698048+887996784+891997937+894148044+893591532+891726937+891415890
1778+892872060+893465668+891238777+887789620+888808456+892303323+893700233
1765+894052833+894005258+893547932+893303009+892693983+892089775+890241380
1751+885411330+882737592+886374582+890757121+892278632+890776934+887821778
1738+887459964+888684580+887109110+886097982+888354201+891098580+893231947
1724+893870421+892852247+890522075+885900875+882069247+885457641+891691647
1711+895896291+896396615+892982928+889818802+890282391+888603039+883087783
1697+882210107+884978274+888284344+890022593+888743115+886889059+884105235
1684+879188947+880831323+886146702+889140220+888027798+885675645+884950210
1670+881549893+878491997+881619389+884895047+885625058+887284959+888826342
1657+887369872+880267404+868462557+868558189+871617470+869396601+869416053
1643+873878145+876365015+875053499+869762691+863781497+866182490+871498110
1630+873316936+873325307+874462239+875357620+877189334+880720514+881986683
1616+881974699+886337666+891505862+894027179+895138396+896298634+897399313
1603+898538834+900326947+902999602+906211846+909069864+910352835+910107972
1589+909610176+910072682+911189319+911263693+910714890+911060444+910853822
1576+910102070+912489152+914411921+912960811+912953404+915611545+917507877
1562+917722508+910825156+897036776+900325803+909519482+915506337+918717015
1549+920668872+921205210+919890382+918739177+916509335+915835691+921370339
1535+924182166+921351609+919232456+918821561+917256390+917452894+919202164
1522+918258123+917064582+918644508+923145624+928422461+931064463+930864887
1508+926438687+920923912+924978663+929717958+931047360+930531257+930300124
1495+931312517+930371849+924224683+918640834+922949963+930434420+933783308
1481+933989147+934206307+933338688+928773676+921914445+919053476+921566181
1468+924258046+924156933+922280956+922107517+922036876+917872883+915057321
1454+919962407+924444915+925976543+925446468+924666954+925917405+928991198
1441+932981933+934955530+931322815+929332115+934206488+939857906+942140924
1427+940900591+937620837+936155394+937948084+935888911+931529799+933737539
1414+936016040+934557763+932061860+927974530+922919250+922292940+925076283
1400+923304972+916966180+913124193+913698109+917495170+920900607+919835459
1387+915481525+912934915+913600369+915842496+917332992+917684809+917269759
1373+915338558+913992354+914644318+915270447+914803606+913149667+910510677
1360+909047100+908716120+908716843+910733318+913762186+914129058+912825612
1346+912135106+911231173+909956393+908902025+909372360+911380765+911779013
1333+911010580+911379500+912578461+914286057+916120180+917644822+919276117
1319+920977691+922177976+922700824+924303634+928426677+932312745+933728024
1306+935144748+938164643+941751167+945104451+947655156+949440017+950966044
1292+953137350+955506485+956143093+956008617+956459018+956874309+958385943
1279+962639667+967634243+969882513+970126894+971070453+971786252+970262333
1265+968617368+969935629+972605995+973344678+971407215+968742810+969100168
1252+973526910+977668561+978151301+977722280+979656130+983447530+986323133
1238+986714636+986766728+987720826+987920643+987843378+987995860+986933844
1225+986150657+986721622+986991658+987490356+988006520+986621894+984697017
1211+985226911+988852519+993380735+995956071+995125790+993378507+994417277
1198+996521014+997257831+999313270+1002664567+1002730510+999585654+996625921
1184+995248462+995925599+997076563+996685300+996356126+999723262+1006387795
1171+1010329690+1008036735+1002544183+998891535+999471654+1003332008+1008451243
1157+1011492577+1010499877+1008142846+1007187965+1007690037+1009703561
1146+1012818065+1014563782+1014082487+1013272500+1015129267+1020679331
1134+1024474163+1021999037+1016868720+1012757361+1010267179+1010909869
1123+1013892667+1014509943+1012919479+1014742762+1020658735+1025618262
1111+1025143351+1019152702+1015600324+1022150074+1030433256+1027506946
1099+1021547251+1024227373+1028140723+1025886250+1025666921+1032203302
1088+1038928058+1040431561+1039919915+1040953205+1042697235+1046432689
1076+1052018163+1055543683+1054926407+1051334282+1050680150+1054532675
1065+1053488063+1044803200+1041040045+1046980468+1050965362+1050176694
1053+1052668200+1055151155+1051733675+1046185417+1043017978+1045606322
1042+1055314237+1064175912+1062328058+1052057428+1042966669+1042945471
1030+1051293210+1059202534+1061579137+1058542139+1053065304+1051459062
1018+1053360272+1053446149+1054006455+1058179361+1060472376+1056159513
1007+1049260716+1045374346+1045359893+1046454610+1046606369+1046345246
995+1045687260+1045859375+1048204181+1048996101+1046039800+1042890428
984+1041995167+1041294302+1040111541+1041450278+1042733609+1040558630
972+1038758593+1038494218+1038434478+1038567568+1037649543+1038235504
961+1042973293+1048060852+1050363021+1050246913+1048649944+1046272618
949+1042397089+1039292281+1040342071+1042467187+1043421225+1047059118
937+1052246887+1053783633+1051679475+1049035968+1049682271+1054112084
926+1058014834+1058293903+1055027580+1052148484+1051651652+1051141933
914+1051165299+1051820394+1051723798+1053532266+1057670846+1057748773
903+1052610508+1052519934+1060230765+1063341113+1060075753+1064167721
891+1073529480+1073741823+1066882411+1060231729+1053189001+1048455427
880+1051560235+1060092977+1063117328+1059849680+1059490997+1059498585
868+1054387540+1050032161+1051698384+1055575600+1055481052+1052874039
856+1051751982+1050754223+1050053720+1049415487+1043229237+1033600935
845+1028218289+1025829641+1023169151+1022629923+1024096571+1023031002
833+1017701230+1013215049+1014291457+1015972496+1012671123+1009555836
822+1008572832+1002731233+994287680+993691240+1000004378+1005046530+1007845109
808+1009153312+1005896202+999799563+996484459+995144278+992396767+988613618
795+989636008+1002081979+1014388897+1007750078+989243179+974288539+967105915
781+964554367+963365042+962234734+959552685+957434133+955555687+949029845
768+941932074+942118220+946980187+949139991+947816310+943850748+937362846
754+932955435+932885096+932809698+931091442+929843762+927230305+923545619
741+924401917+929260632+930791476+927492753+923081127+918192180+915017996
727+917116735+921367327+922837528+922487458+921110902+916861995+913823793
714+916134814+917676679+913566705+908840478+906843455+907656754+911070682
700+912357747+911866636+914056792+913745685+907770152+901341930+898344317
687+899226992+901469540+900823418+895777774+890298229+887331270+888022438
673+891347659+893344682+895192054+898458076+899814337+897532584+891308213
660+887272914+892771669+907620018+921174195+919561027+904711052+892933847
646+892665317+892061230+886378798+888649289+894410372+901679655+942095336
633+1010604543+1004929337+936645541+885595791+845125488+812572278+803668327
619+823715104+856243322+872285573+874769974+877133870+877242089+892160476
606+935774490+978677702+985304296+971655149
##END=
