##TITLE=Sample description
##JCAMP-DX=4.24
##DATA TYPE=INFRARED SPECTRUM
##DATE=25/8/2023
##SAMPLING PROCEDURE=Instrument type and / or accessory
##ORIGIN=Default
##XUNITS=1/CM
##YUNITS=ABSORBANCE
##RESOLUTION=4
##FIRSTX=4397.6552
##LASTX=599.8556
##DELTAX=-1.9287962
##MAXY=1.8016948
##MINY=0.72409654
##XFACTOR=1
##YFACTOR=1.677959e-009
##NPOINTS=1970
##FIRSTY=0.79148811
##XYDATA=(X++(Y..Y))
4398+471696932+472507156+473429737+473893158+473444052+472973491+472518523
4384+471086272+470137121+470955053+471338159+470269334+469825415+470723378
4371+471597044+471938092+471986899+471781440+472064835+472783874+472898610
4357+472810231+472939638+472767746+472572588+472733112+472698798+472302584
4344+471702616+470781918+470429219+471116750+471519322+471003896+470518593
4330+471178842+473186055+475501031+476309585+475031038+473449735+473053060
4317+473709367+474476218+474219429+473359225+473218273+473875184+474795100
4303+475355816+475123857+474861881+475155223+475608876+475901045+475630935
4290+475023365+474947454+475432367+476061250+476520480+476458920+476068745
4276+476170978+476833110+477397450+477696510+477272661+476180356+476110768
4263+476873285+476340170+475391765+476067360+477354255+477709938+477568382
4249+477862150+478458992+478675038+478419883+478172968+478483361+478843803
4236+478259039+477484230+477569235+477755086+477315109+476813004+477165668
4222+478692941+480011451+479894512+479765460+480847677+481785532+481076794
4209+479220196+478035711+478723952+480332571+481509312+482454200+482715536
4195+481640921+480512455+480205188+480356513+480611668+480581652+480504888
4182+480842739+481082158+481093881+481393083+481425977+480945540+480729957
4168+480247353+478910585+478557922+480568686+482952575+483732996+483632077
4155+483088589+482274671+482212365+482208458+481307972+480484534+480366494
4141+480829880+481982857+483183788+483196292+482354169+481896432+481998380
4128+482310371+482540909+482974989+483613251+483347616+482516541+482736672
4114+483791110+484166508+483595348+482975060+483194587+484391185+485292985
4101+485124645+484918013+485104469+484737135+483871567+483810008+484496259
4087+484834927+485154377+486172228+487043017+486652274+485679714+485416246
4074+485515389+485338808+485581957+486511464+487265528+487161235+486075075
4060+484834536+484751130+485663232+486302132+486305187+486042714+485986909
4047+486542191+487172637+486950198+486012272+485637443+486755217+488362948
4033+488702823+487540149+486247819+485866844+485911283+486011348+486733868
4020+487770616+487927802+487266131+487031259+487545264+487908549+487600288
4006+487255617+487345630+487294123+487209580+487983358+489462890+490987499
3993+491554325+490556438+489657871+489868375+489971922+489575424+489211074
3979+489309328+490232441+491290360+491337214+490569830+489967055+489934694
3966+490054653+489955049+490218587+491101027+491854664+492181148+491990643
3952+491250966+490664176+490859761+491512942+491754812+491372914+491463921
3939+492779554+494129643+493627076+491690659+490982313+491928941+492755683
3925+492898908+492762894+492299117+491230257+490379147+491261303+493655174
3912+495857580+496351657+494879798+492226510+489564519+488198267+489122410
3898+492159231+494842784+495445382+494407852+493691904+494535909+495787637
3885+495728386+494639030+493989295+494644287+495033005+493498237+491640963
3871+491483601+492634588+493777441+493580790+492882177+494018885+496011959
3858+496312441+492901785+487466796+489818502+495758580+498882679+498900475
3844+496429877+493348476+491408898+490948140+492634837+495055668+496685032
3831+498060057+499073006+499251043+499084409+497220670+493651053+493594537
3817+495460514+496682368+498760873+500888434+501340844+500126840+499068353
3804+498128970+497118935+498065634+499594009+501262447+503810839+505505776
3790+505593054+504808513+503661077+503399315+504321114+505095602+506071927
3777+507342269+507685342+506898669+504997348+503324044+503475829+504703580
3763+505990191+506012996+504688767+504458016+505044273+503965431+501808954
3750+503794747+508267940+510233662+511857662+516986451+522457353+525908042
3736+527307969+528061961+531073490+535447043+537373514+535778287+532809136
3723+530005695+527117144+523908325+520634572+518324320+517587911+519648762
3709+526047573+534394381+541181235+544794047+546916067+550050787+553243017
3696+555171867+555324648+552782934+548548592+546689507+546468311+545105967
3682+542111382+537589630+531891919+525301431+521491898+521119200+519588978
3669+518303611+519456836+520173921+519184808+517302882+514514041+510882012
3655+509488515+509999145+507727791+501928309+501238150+505997367+510001206
3642+511495443+511464646+511142709+511239577+511614478+511096281+508051042
3628+504369530+503743418+502458974+497899746+490876243+484899329+482299536
3615+480503361+478440947+477723010+478787608+480451925+481344525+480775851
3601+479239875+478297829+478080185+477673847+477058071+475418158+470587470
3588+463604179+460370637+460467115+460371631+459689322+458588954+456911103
3574+455231511+453784731+451441834+447709135+445233351+445775347+446585749
3561+445957860+444439965+443187526+442289314+441292457+440798913+441106108
3547+441014710+439900736+438798130+438350551+438200755+437989220+437568390
3534+436857415+435793137+434480382+433228760+432152263+431534107+432212828
3520+433933377+435116405+435314796+435074596+434077987+432524499+432037668
3507+432580269+432520556+432275951+433083581+434062002+434329946+434228068
3493+433827450+432896486+431966304+431751076+432002288+432063102+432270622
3480+433068556+433507040+433286342+433465409+434176739+434559632+434426957
3466+434270482+434002361+433501392+433526329+434343906+435002060+434755039
3453+434506952+435214873+435860309+435786530+436276202+437366589+437605617
3439+437147240+437159957+437509850+437653323+438136992+439055452+439582671
3426+440422378+442085168+442684533+441972315+442150316+443492270+444831347
3412+446031568+447036524+447663276+448531685+449514369+450437944+452089722
3399+453835776+455071768+456601741+458303356+459656962+460698825+461886614
3385+464024192+466644658+468802662+471033273+473797532+477053169+480579201
3372+483044471+484325256+486415341+490010463+494015972+497859464+501470287
3358+504985874+509335095+514380300+518458097+521402169+525011855+529792563
3345+534075321+537599292+541532975+545778329+549643810+552573887+555103807
3331+558324419+561540413+564188018+567050710+569597894+570956899+571999259
3318+573247719+574092755+574808064+576092223+577332300+577956104+578318501
3304+578352886+577971698+577242039+576228486+575239657+573678567+571118347
3291+568798895+567614517+566703374+564716161+561674651+559067932+557426917
3277+555890337+554063258+552090502+550860016+550397163+548956599+546842536
3264+545422824+544534665+544265762+544552000+544424262+542816993+539969754
3250+538437827+539508499+540723426+540219616+538933751+537531978+536354420
3237+536492601+538133190+539466335+538775074+536765517+535157503+534762781
3223+535424203+535899773+535163719+534509437+535133667+535844074+535742125
3210+535404559+535136509+534419531+533689054+533892915+534102993+533747843
3196+533439298+533130717+532945257+533125744+533718324+534863735+536388130
3183+537176331+536616325+536375946+537022626+537017298+537063761+538678916
3169+540419286+540750352+540655792+540992045+541359308+541261871+540750033
3156+540794222+542210133+544140867+545031797+544855820+544627200+544814508
3142+545382933+545852180+545983931+546364338+546970203+547164118+547230651
3129+547655176+548281750+548863922+549355406+549996864+550886586+551635321
3115+552030576+552760271+554242964+555376901+555499275+555302447+555041395
3102+554811709+555522435+557024843+557510643+557053509+557340634+557969766
3088+558280407+559016496+559999180+560481002+560488000+560176542+559901707
3075+560048343+560325912+560352057+560196718+560147485+560377384+560742906
3061+560940161+561053405+561604495+562570199+563324156+563331261+562486864
3047+561828959+562599860+564300872+565189458+564573256+563855141+564171643
3034+564678117+564668100+564361295+564333694+565539457+567449303+568670163
3020+569306932+569660803+569764812+570040002+570410426+570628248+571071848
3007+572038653+573139626+573777248+574028140+574869695+576629105+578349227
2993+579471016+580078657+580305998+580455333+580883481+581887940+583433756
2980+585242755+586563715+587040955+587859669+588917766+589027991+589216009
2966+590431114+591749375+592018988+591265386+590625953+590160045+589705113
2953+589876294+590254605+590828749+592501556+594651425+595709913+595527898
2939+595298993+595874345+597396574+598996347+599115489+597972245+597416892
2926+598128187+598964875+598864774+598194187+597309900+595924928+594647766
2912+594406180+595069165+595991532+596879443+597651338+597921448+597862908
2899+598232196+598994571+600002618+601120641+601496607+600876178+600182715
2885+600444300+601593085+602432330+602671962+603424321+604816929+605653262
2872+605770911+606198313+606969640+607201813+607078338+607364078+608063579
2858+608842721+609168743+608734450+607952892+607245150+607211191+607912610
2845+607940602+607312571+607797803+609144517+610025465+610748483+611751840
2831+612546185+612858709+613131945+613964086+615194004+616048381+616464843
2818+617063390+617831236+618352203+618632189+619010357+619853155+620989578
2804+621949172+622692366+623212978+623666169+624608855+625649155+625898734
2791+625825842+626104407+626253671+625913937+625960755+627003329+628039935
2777+628400840+628538098+628851403+629787481+631077431+631656157+631553854
2764+631640599+632185721+633134943+634222275+635208795+636296482+636979146
2750+637180485+637788623+638225616+638215244+638481873+638489262+638391292
2737+639171073+640164271+640575617+640976946+641939879+642983235+643218959
2723+643022167+643447438+644518145+645895835+647014497+647296969+647218820
2710+647279918+647512375+648022614+648756288+649582603+650540706+651493338
2696+651862484+651427125+651037163+651676632+652992300+653889944+653994450
2683+653746647+653990826+654831066+655569713+655978786+656353260+656875222
2669+657077769+656854974+657033721+657955378+659263231+660288968+660407896
2656+660148158+660770505+661843983+662183717+662719177+664013177+665085447
2642+665885405+666250430+665808819+665366498+665354989+665428307+665582117
2629+666036232+666824752+667549545+667923593+668249401+668638795+669180507
2615+669994603+670676769+671373287+672586438+673896991+674895873+675671533
2602+676002813+675784281+675627486+676051762+676874454+677755758+678312389
2588+678278856+678156447+678368727+678721249+679277880+680289408+681556695
2575+682418177+682674859+682872576+683059067+682950227+682959178+683548135
2561+684352782+684653796+684436543+684381981+684769598+685363031+685975219
2548+686539523+687350706+688315060+688557250+688125443+687872384+687942931
2534+688191656+688848318+689804786+690474094+690974743+691913166+693276860
2521+694410867+694711953+694505072+694530506+694702788+694564607+694443761
2507+694845303+695546012+696306683+696979755+697468469+698169746+698904841
2494+699048421+699054247+699670484+700836817+701897152+701869090+700617504
2480+699590773+699827421+700553280+701154598+702107514+703216657+703922907
2467+704370131+704778635+705250084+705511953+705322976+705316795+705792791
2453+706313971+706907333+707596391+708049724+708752706+709994844+710622875
2440+710107165+709414625+709656815+710897105+711676744+711193360+710774483
2426+711586803+712677473+712586963+712230889+713405890+715278402+715557890
2413+714308933+714031363+715888459+718093601+718737403+718252313+718163224
2399+718906204+719680373+720029911+720732964+723294464+729964379+742985720
2386+762756900+787884815+816337315+845632470+873414810+899934552+927493103
2372+954363164+974278422+985328143+991500536+996370191+1003397885+1011405279
2359+1013411852+1007557595+993859417+973461911+955606153+949048132+954904521
2345+966418729+972626644+970285239+964783930+962602872+965072725+967958257
2332+968227230+965891865+961237403+955379522+949605972+944021825+938994025
2318+933459325+926074989+918992164+914318733+909670097+900994390+887077324
2305+870780206+856519429+845612791+836835064+829137352+821282703+812096046
2291+801563527+791576699+783774906+777148115+770979629+766629307+764832883
2278+764607531+764378697+763115389+761548509+761051057+760935326+759933603
2264+758738852+758207370+758157568+758611114+759173998+758804071+757540904
2251+756215574+755213069+754439753+753777692+753503816+753718654+753950187
2237+754202181+755067216+756192556+756631893+756398584+755903903+755468331
2224+755644947+756196534+756411443+756836785+757607189+757774213+757905219
2210+758856714+759872149+760074554+759872149+760350845+761227389+761513555
2197+761542044+761844266+762175900+762632644+763681825+764819029+765131766
2183+764702730+764148940+764049478+764534497+765058235+765257159+765265045
2170+765514055+766347475+767492424+768576629+769118768+768878851+768745146
2156+769108040+769437543+769630641+769837806+770298670+771075823+772079678
2143+773204805+773869495+773776498+773297305+772995935+773411189+774232886
2129+774626542+774878962+775803105+776852500+777130283+777007660+776638301
2116+775945194+776391138+778205608+779115542+778873424+779099913+779743147
2102+780090979+780122665+780103625+780221985+780283154+780256726+780681641
2089+781705175+782404605+782132293+781819983+782501084+783620954+784359387
2075+784840143+784942092+784550638+784440733+784799719+785417591+786725373
2062+787824072+787475458+786995341+787599501+788366779+788358040+787847019
2048+788006940+789087877+789806987+789761306+789822972+790196736+790494695
2035+790948526+791793383+792494803+792778980+793133491+793697511+794123208
2021+794716782+795737901+796405716+796344831+796116424+796027051+795926097
2008+795899242+796398044+797142942+797858926+799075984+800086375+799969223
1994+799644338+799674177+799668067+799898037+800713483+801713643+802437655
1981+802770639+802636437+802499179+803044373+804042402+804956386+805493480
1967+805809058+806525397+807347947+807752899+808010221+808181012+808417731
1954+809034821+809512594+809347132+809106008+809182735+809078016+809467267
1940+811123095+812431730+812514070+812323387+812536662+812834266+812830927
1927+812980475+813277014+813374415+814119101+815637813+817273038+818724258
1913+818944709+817743209+817098198+818077117+819458358+820491270+821153544
1900+821073549+820417171+819811164+819659769+819909702+820203541+820838605
1886+821848286+822799639+823646983+824241268+824829657+825685811+826208483
1873+825702861+823592066+820495249+820199207+823148963+825514665+826330253
1859+826977750+828093428+829495983+830538557+830751406+830378779+829964591
1846+828849694+827484295+828905108+831495878+832792364+833060840+832577313
1832+831327219+830391638+831320612+832642603+833291023+834706864+836473875
1819+837189575+836975021+837052318+837610725+837793877+837824852+838535792
1805+839626960+839304206+837078107+836334131+838192222+839384415+837957563
1792+836017629+837955503+841758500+843326162+842616785+842202952+842878796
1778+843288082+842091768+839015269+835980402+837340402+841007776+843659643
1765+845439869+845282791+843761379+843366515+843773243+844722607+844933750
1751+842343904+838979463+839679959+842880856+844014651+842337155+841385518
1738+843122336+843434078+840107929+841129332+846284514+849361013+850171485
1724+850849603+851492126+849421614+843014277+838209486+841666924+847404242
1711+850612670+849990536+846320391+843716550+844628402+843443598+837005357
1697+834030452+837930140+844078946+847355079+847237572+845462106+841343033
1684+836606302+838470786+842018238+843370138+842497857+841051539+840146933
1670+839371769+841625789+846147186+847545123+845033070+843863043+844774540
1657+843764007+836941702+825984765+827484153+831930669+830805399+829801829
1643+832674004+834691163+833586638+828465203+823177594+826502038+832546196
1630+836266071+838135884+838967883+839444945+842040972+845955011+846935847
1616+846247500+850025561+854625816+856366968+858162255+862153662+865346247
1603+866625185+868074700+870292701+872355328+873915459+875171663+876486407
1589+878121774+879872019+881311801+882516214+884020149+884785438+881717961
1576+876739466+878004196+881339153+881683363+882471740+885910139+888657987
1562+888511281+881580917+871811768+877663041+885179236+888760717+890703705
1549+893130363+895912739+895658116+890140822+882685939+885667878+894764948
1535+898159654+897594498+900227823+904216885+904599316+902977092+901647783
1522+898341385+896041187+898039021+903886529+911403363+915995093+915741181
1508+909398282+904026628+912478404+921917481+925550612+923097028+920476562
1495+923229952+925894466+922980729+918254370+921279575+928122341+931651463
1481+931079060+929375917+927181432+922002947+914987615+915464392+923727404
1468+929414849+929583508+930122094+932822769+930867987+921457399+916782476
1454+923642506+930372596+933873087+936386844+940644454+945419194+948740795
1441+949984069+947802159+943709017+944559487+948940216+951393160+952894680
1427+954640733+952947963+949376215+948803740+948563042+947938848+949218425
1414+949267162+946666446+941986408+936873284+933485399+932406947+931405650
1400+928316860+924866669+923225121+922903078+922814912+920736655+915991541
1387+911433770+910458119+912713205+915536573+916699709+916468958+915515047
1373+914896962+915434980+915465671+915024842+914936676+914634951+915373172
1360+917367809+917355448+914415922+912704822+915101499+917946678+917701930
1346+915865224+914803255+913788672+911287916+909808349+912200621+916455033
1333+919726833+921091095+921134787+920109903+918986836+919734292+922058575
1319+924878178+928491629+932550172+935909996+938143484+939661202+941039602
1306+942416581+943927194+947122550+952411721+956969066+959654750+962087376
1292+964464799+966570692+968719993+970182367+972138073+976079606+978796124
1279+979474667+981898199+985232304+986390538+986262871+986237580+985412046
1265+983146517+980412451+979224023+980799216+982868023+983090534+982803018
1252+983870244+986238219+988805118+990717983+991648237+992265469+994477644
1238+997962221+999383176+998386639+997711790+997626395+996835886+995133666
1225+993383421+993656301+996998932+1000863809+1002319789+1001710301+1000552848
1211+999484911+998537750+998435446+999920270+1001628316+1002138626+1001865532
1198+1002167328+1003189512+1003795591+1004940965+1007444706+1010062543
1186+1012316279+1013408655+1012521171+1010925660+1010064675+1010208042
1175+1010801687+1010784637+1010394817+1011085438+1012753414+1014289817
1163+1015216091+1015167213+1013921808+1012152593+1011523710+1012199482
1151+1012446148+1012809042+1015721002+1020641170+1024521321+1025891551
1140+1024746815+1022886309+1023994670+1026891498+1026533009+1024025006
1128+1023909772+1025838197+1026829193+1026605972+1027062857+1027735717
1117+1026381188+1024717332+1025053869+1026299061+1028720887+1030733357
1105+1028461576+1025061612+1025267285+1028136833+1032295903+1036978570
1094+1039168295+1038617134+1039533320+1041955147+1042596960+1043638610
1082+1047786456+1051086531+1049769016+1046241173+1044511460+1045806667
1070+1048801465+1050655861+1049595242+1048674083+1051911284+1058796250
1059+1066478120+1070721094+1068422600+1063630028+1061304893+1060524330
1047+1059935018+1059180457+1058312581+1060352971+1064486182+1065200603
1036+1063109700+1063337468+1067977579+1073542260+1073059017+1065835880
1024+1059742204+1060004002+1064300046+1067855809+1068311061+1067383436
1013+1066864174+1065223692+1063062172+1063382155+1065151085+1065013117
1001+1062001410+1057650307+1054222636+1052786975+1053107455+1054934357
989+1058274004+1062587951+1066193090+1067097199+1065289550+1063365743
978+1062959513+1063301804+1063080643+1061438385+1059483887+1057955229
966+1056837987+1057632830+1058978479+1059428757+1061907064+1065938326
955+1066238772+1063608004+1066158208+1073053262+1073741823+1068614135
943+1065044447+1063240990+1063487158+1067877336+1072456207+1071657812
932+1066624329+1061769948+1060623863+1063888842+1067903693+1069348377
920+1069156913+1069910550+1070225773+1067038659+1064651857+1067450289
908+1070748801+1071257265+1072355395+1073612380+1071708964+1069104127
897+1067667968+1064982923+1062003897+1060578963+1059019045+1056180118
885+1054121754+1055396997+1058304411+1059333629+1058636898+1057032364
874+1055091934+1055154452+1056174221+1052720335+1044339249+1036739435
862+1032245249+1029838839+1030638229+1033516230+1033470548+1029975812
851+1025830524+1021494624+1018295787+1016999230+1014581240+1009242906
839+1001846777+993809118+988728887+989380434+991914013+989918736+983903067
826+979043145+976843260+975936168+975639061+975319859+974242758+971453633
812+967380525+964129329+961016668+957126358+954436126+952667622+950039555
799+947820204+947208584+950109533+958838594+963841102+955172642+942527552
785+934689882+929993859+926782447+924034883+920878815+918037259+917134642
772+916826381+914439224+910588557+906268926+901733392+897980765+896507876
758+896518746+894121643+889338875+886541011+886596639+886072191+882869233
745+879451224+877627661+875298548+873811237+875508341+876055737+873293538
731+871057918+871227358+872798857+874200701+876104757+879359080+880123303
718+877553704+876037621+875101968+873292117+872229650+871560627+870895227
704+870656589+871576754+874902121+878637697+878992208+876300129+874769055
691+874603167+872550557+870362750+869873753+869674900+869091201+864911030
677+857830763+855589957+861093256+870849545+875230629+865877089+859912003
664+862199698+861284436+853151791+843409852+838077059+838468087+841579326
650+843761236+843626181+838460840+829410304+824854593+824528642+821204838
637+825139623+851745257+872247554+848666911+817273891+806195184+802491293
623+796777562+791715803+789552862+786190907+779786839+780852929+795011687
609+811164727+815727187+808568061+799560790+793487220+784442438
##END=
