##TITLE=Sample description
##JCAMP-DX=4.24
##DATA TYPE=INFRARED SPECTRUM
##DATE=25/8/2023
##SAMPLING PROCEDURE=Instrument type and / or accessory
##ORIGIN=Default
##XUNITS=1/CM
##YUNITS=ABSORBANCE
##RESOLUTION=4
##FIRSTX=4397.6552
##LASTX=599.8556
##DELTAX=-1.9287962
##MAXY=2.0841675
##MINY=1.2899399
##XFACTOR=1
##YFACTOR=1.9410322e-009
##NPOINTS=1970
##FIRSTY=1.3740724
##XYDATA=(X++(Y..Y))
4398+707908099+704889347+701287640+703733509+708623097+710823304+711398275
4384+710471332+709166255+709191128+709108954+708999389+709151331+708744147
4371+708476683+707512338+706369336+708160393+710696113+708685556+703066292
4357+700677171+703637763+707122841+710714476+714709364+713214697+708808387
4344+710360232+715517407+716923205+715187483+712726506+709216984+706623780
4330+707653839+710616027+711149788+709601629+710277014+713096227+713531417
4317+709381086+703742414+701225181+702945979+706292259+707906379+707096985
4303+707147837+710056901+711980862+709417075+705548642+704675007+706116366
4290+706474847+705400201+705650591+707715009+708775346+708473121+709536467
4276+713351531+718740487+721023544+718276310+716535244+718341042+719907994
4263+720061778+719138828+716932049+714542990+711687542+708928147+709822049
4249+714148150+716760639+715799119+715132639+716125788+715931776+714675770
4236+713687780+712387309+710835710+709042134+707881936+709018919+711391642
4222+712932739+712140726+708867346+706944368+709417751+714246169+716454606
4209+713057535+708964137+709693322+712096138+711699763+710060770+709294674
4195+708632923+708794814+711103358+713350610+713936820+714630322+715535708
4182+715799549+717259516+719030737+718557776+716909817+714536664+713098376
4168+714009904+713218198+711254010+713459438+718213727+721197595+721824953
4155+719271178+713782176+709898449+711834017+717167454+719791121+719158174
4141+717912301+716696214+716337425+716816711+716962266+716556617+715379222
4128+714331782+715354717+715922871+713624461+712929423+715142650+715440146
4114+713975880+715291582+719031535+721055541+721087109+721665888+722387334
4101+721164431+719134713+718983447+720040222+720893036+722578828+724685192
4087+723859585+719606383+716035630+715969793+717918811+719474893+721654096
4074+725399515+727590878+726134718+723493057+722434686+722142041+721032326
4060+719909100+720049434+721769250+723373420+722177416+719313555+719875444
4047+724368288+726109047+722856978+720133880+720308975+720598795+720262914
4033+720412645+719346350+717115006+715888171+715920967+718035807+721486002
4020+722435607+720681153+719891044+720701174+721360837+721713239+722192095
4006+723183524+724393039+724441127+723436862+722614387+722237112+722335070
3993+723213924+724449541+725384468+726520284+728171131+728743031+726862860
3979+723895083+721988380+722199219+724442724+725817938+723664406+721400696
3966+722412208+723499322+722229435+721737437+723151833+723758802+724007964
3952+726022083+727434760+726598773+726280212+725954341+723647701+722136637
3939+723460200+726178569+728547730+728212095+725441523+724578022+725039620
3925+723695605+722344651+722836957+722997865+722136023+722089224+723034161
3912+724632068+726782283+727826529+727026163+725980382+724921887+723185980
3898+722672425+724999209+728560934+728959029+726828098+726789898+724865078
3885+721339403+722474360+724514887+725862280+728037306+727373529+724217882
3871+722976431+724216592+725906437+726103212+725746389+727023092+729123622
3858+730025139+726427670+716280984+714069723+722033213+729214271+732228724
3844+731986747+729096292+722369647+716639221+719515611+726169295+730625782
3831+732714765+733129381+732294930+731664562+729257016+723397986+722609351
3817+726727193+731855502+738666410+742860161+739876478+732778269+730834471
3804+732374770+730300157+729035307+731531536+734462280+737653486+738918950
3790+735478336+729959916+725935057+725332756+728585930+732244201+734960481
3777+738640738+741497046+740501564+735180963+731075220+731721924+733283288
3763+735093998+737148405+737924389+738606898+739401061+736940760+727249777
3750+719376935+723950111+732947714+734602429+730248998+727719973+725611459
3736+722225259+722214204+727955624+734191990+737918370+739556504+739063031
3723+735637709+732815917+734432432+738038683+740154383+739760833+737744995
3709+737591395+739703225+741829549+741413644+738845252+738311797+739368327
3696+739652250+738532463+734966746+730901291+732146427+736685272+740514154
3682+742243366+741061058+736615135+729315607+728256559+732488818+730318398
3669+727700504+731380761+733686419+733592330+734819656+736209364+734732999
3655+732385333+731840640+730481087+724029460+716276378+715899595+720332620
3642+723520019+723381773+721481764+718504345+715177350+712484837+709009584
3628+704996026+705005484+707701804+710510945+711349818+709678029+707561409
3615+703836257+699887615+699076010+698134328+697502302+700211090+700874192
3601+696342287+691738834+689971790+689302055+689709177+692236544+694753962
3588+692587656+688528098+687868066+686690917+682623804+680437600+682309050
3574+683927899+683845848+683193125+680436372+677116132+677716713+680318454
3561+681355269+680578180+680593964+681074662+679990066+678991943+679065826
3547+678072124+676008996+674672044+673482305+672062872+670760497+669195079
3534+668633620+669597719+669103018+667055612+668248791+672857587+675637433
3520+674844069+672351463+669500375+667334193+665793833+664563866+664898764
3507+666927930+668301669+668242404+669220321+671474390+672424302+672087377
3493+671508721+669966518+668723532+669557615+669988198+667816365+666246894
3480+667359680+669017098+670530250+671155705+670466317+671052834+672961932
3466+672662286+669812734+668638717+670297855+671096808+669678664+668969194
3453+671433364+674097687+672467292+668284903+666215695+667866480+671231000
3439+672989139+672533683+670180735+666257396+664690812+668062088+672543693
3426+674060101+673090352+673054977+675826040+678333754+677578160+674753911
3412+673446807+675864117+679791019+681423747+680302302+680083110+682650520
3399+683909413+682348479+682941199+686962312+689958156+690426571+691226752
3385+693022662+693592167+692834546+693803252+698017270+702681033+706156286
3372+709321083+710737200+710501549+711802388+715268736+718807246+720298166
3358+720922945+723896679+727838750+730385156+732899810+735645754+738400665
3345+741393623+744893748+749603266+752401107+753008382+756056490+759693511
3331+761301858+763607454+767682489+770692949+769278982+766131320+766540838
3318+769665162+772690731+775167799+775920752+774326224+773361756+775387298
3304+778327867+780258215+780039576+775653656+770604818+769203564+769304777
3291+769320745+769465501+768489426+767140559+766466279+764648015+761643941
3277+760524093+761862396+762985868+761924733+759397489+757729569+758166417
3264+759242476+758311603+755647034+753799658+752873084+750936226+748485076
3250+748966327+752250762+753507444+752106497+751912240+752555382+750286697
3237+745318497+742272109+744218486+748945139+751555109+750485560+748480470
3223+748492323+749620033+748954351+748313235+750017759+750960854+749863606
3210+748954597+747535778+744826376+744827113+750403693+756629742+757942619
3196+756502489+755792588+755427412+754391334+753051004+751811212+750974734
3183+751441859+752212500+750636396+746779263+744105297+745217776+747896163
3169+748830967+749824362+753414031+756535223+754527308+749189142+746827167
3156+749190739+752516199+753884166+753700779+754484256+756964947+757307215
3142+754735752+753670072+754849370+756188288+757744800+759478004+760058318
3129+760256137+761333609+760875573+758669040+758369088+759511230+759219568
3115+757117503+754535353+753417654+754634969+757544524+760494368+761699215
3102+761672377+761938858+762099951+760539999+757213864+755609877+758794328
3088+764239909+766906444+765899968+763501635+761427022+761125902+761999291
3075+761658497+760986490+761959862+763211324+763126202+762911064+764116710
3061+766171178+767609896+767176733+764517569+761749207+761698908+763393605
3047+764240646+765818654+768074196+767836580+767410419+768750134+769190728
3034+768792818+769178200+770180991+770392382+768853005+766571054+765018902
3020+765509427+767113598+767824850+768780412+770146168+770343066+770094395
3007+770057668+770418177+772011293+773987395+774936816+775790367+777691481
2993+779135480+778513526+776812565+775449020+775266371+777003014+780239361
2980+783243495+784183151+783578701+783032595+782487165+782744741+785051565
2966+787847624+788399933+786347860+783312404+780555343+779861042+782263060
2953+786417137+790543638+792220586+790400110+788408531+788286130+788496233
2939+789455296+791430538+792306875+792417238+793078252+794002308+793723421
2926+791273130+789095340+789269698+790133506+789565229+787996434+787638751
2912+789574319+791164732+788698412+784447790+783220710+784831145+786660649
2899+788013630+789557307+791133840+792147747+792494499+791397312+788849248
2885+786789007+786655244+788269978+789530837+788234234+786962935+789264662
2872+792785853+793678342+792782475+793015547+794544545+796072867+797964769
2858+799416507+797984299+794641397+792507212+791916518+792021600+792830687
2845+793598011+794191468+795272440+796098969+796494730+797476701+798328164
2831+797996398+797554637+797169440+796053030+795314080+795939596+797851642
2818+800591568+802870878+803761647+802697195+800282218+799147200+799930984
2804+800590462+800170688+798934887+797855818+799007296+802234553+803904561
2791+802748293+801410726+801312462+802474011+804413571+804976505+803847628
2777+803719884+805443262+806972444+806684222+805624192+805222842+804607644
2764+803763735+804746382+807301017+808788437+808727328+808345877+808026394
2750+808287594+808277768+806471847+804398709+803620637+804229202+806341585
2737+808917102+810656202+811043181+810371235+810122379+810685129+810717249
2723+810550199+811442381+811970799+811191376+811342765+813177489+814658276
2710+814980216+814725587+814696661+816280318+818608392+818774828+817146276
2696+816682651+817454765+817061952+816001922+816750638+819024543+820412900
2683+819576913+818335708+818865354+819771477+819660377+819555479+819509848
2669+818707824+817333715+816712437+817780144+819287217+820965147+823851549
2656+825782633+824810489+822971466+822254134+822768856+823956692+824509676
2642+823255082+821572607+821621617+822507841+822550279+822541374+823263987
2629+823395232+822487881+822300932+822823885+823015746+824276912+826713875
2615+828247172+828743163+828461758+827173999+826910712+828580474+828811027
2602+826789539+826123550+827348235+828879874+830261475+830025456+828204243
2588+827454668+828764720+830883859+832214178+832165905+831345518+830672160
2575+831250939+832847678+833873438+833735008+832333754+830820048+831597690
2561+833880255+834526345+833332860+832640585+833064966+833028116+832108912
2548+831578713+832390133+834553921+836141878+835577654+835199827+836370650
2534+836993095+837092895+838013389+838645354+838290557+838412897+839628799
2521+840750060+840907284+840291963+838894578+836690809+835648221+837087122
2507+838363580+837848182+837196380+837429390+838655672+839838348+839353596
2494+837706190+836854481+837807771+839272221+839481955+839156146+839849587
2480+840917724+841011813+840860915+841417830+841915417+841514682+840319538
2467+838824626+837593185+838018180+840824496+843429000+843488942+842628757
2453+842148182+841102400+840307071+841193971+843050374+845223866+846720129
2440+845754740+843238674+841719625+841687628+841967313+841984080+842143453
2426+842860478+844272848+845573135+845583330+844862743+844233665+843783306
2413+844268242+844999945+844786772+845056693+846248029+846921756+847164900
2399+847661259+848476426+849355464+849639081+849210217+848494666+847393733
2386+846394013+846980408+848289907+847035190+843475185+841192190+839331794
2372+834662380+829562445+826195345+823027354+821823796+822603526+821387992
2359+820539047+824167101+829052451+831317267+832112535+832278848+831544811
2345+830519665+828594292+826544799+829261939+836404490+840077930+837387321
2332+833535285+832005550+833635883+837714911+840032728+839491228+840239145
2318+843282647+846025951+847243204+847365482+847511897+848484655+849450044
2305+849620595+849699514+850723370+852250833+852523824+851773389+851916364
2291+853055252+853799299+853710063+853827612+854515771+855381053+856998735
2278+858958931+859627990+859046325+858112995+857203494+856031688+854109816
2264+852912154+854001295+855965789+856573372+855902531+856213600+858143457
2251+859981743+861169763+861991378+862120596+861308500+859638062+858133139
2237+858682316+860921460+861942983+861477577+861160857+860908870+860873003
2224+861218158+860925943+859709734+858493893+858517722+860477365+863177371
2210+864297342+863703824+863074746+862805992+862779092+863498696+864235129
2197+863825795+863297192+863716168+864087117+864110025+864899643+865736735
2183+864769627+863218581+863928850+866276638+867144991+866238868+865923008
2170+867007482+867943452+867576065+866467210+865106245+864066789+864232856
2156+865470807+866993602+867785860+868067082+868545016+868434960+868279456
2143+869232992+870188124+870538253+871372090+873004328+874071728+872720650
2129+869335801+867124171+867781131+869262962+869381003+868275403+866570204
2116+865276734+866291439+868679823+869227219+868225533+868543174+870561161
2102+871920837+871761771+871889577+872931735+873608164+872817932+870842567
2089+869580419+869839162+870954404+873078088+875096628+874971770+873506767
2075+872696944+873064699+873951783+874840649+875422621+874810616+873054566
2062+871260867+869673647+868359665+868543051+871218491+874772600+876781498
2048+876714003+875496197+874642031+874665246+875164615+876262415+877350881
2035+876868340+874511216+872154523+871550379+871834548+871515495+872108400
2021+875267486+877857865+877098648+875890299+875807634+875196367+874868040
2008+875802660+876039784+875115790+875350519+876915507+877459709+876546523
1994+875807511+875652130+875565473+876274821+878151983+879727411+879598193
1981+878093270+876828113+876729418+877627803+878725542+878260688+876152052
1967+874422778+874613289+876940073+879118662+879568837+880168558+881379670
1954+881980927+882077963+882035280+881674648+880788362+879371325+878112923
1940+878803662+881322308+883120490+882962775+882298506+882709375+883845867
1927+884557242+884164306+883209297+883259289+884064568+884804685+885724872
1913+886213738+885649024+884761203+884734671+885458452+886004865+886318022
1900+886509638+886078317+885065823+884303351+883736855+883110786+883947817
1886+886317960+887720074+887422271+887225803+888291852+890145921+892037270
1873+892625753+890631594+887347590+886076475+886969455+887671372+887274198
1859+886853257+887841677+890254872+892543702+893505651+893414081+892925829
1846+891775211+889916351+889443083+890264453+890643325+890223305+889517580
1832+888490285+887102419+887155052+888308065+888730788+889872561+892260454
1819+894097696+894841191+895172343+894274757+891801251+890805769+892152363
1805+893516092+894033517+893146064+891198090+890575215+890598369+888146666
1792+885451450+888669618+894323091+896868145+895978789+894404159+894461275
1778+896254237+897011366+894689372+890839056+890499244+893174868+895252244
1765+895649418+893987210+893410458+896037993+897867190+898152403+898078029
1751+895912276+892303322+890645843+890468537+890861288+891205767+891277255
1738+892966670+894481235+892277650+891409789+894750296+898652324+900640648
1724+900087787+898748439+896101128+888902505+882998826+887467841+893825012
1711+896632617+896632863+894162489+891331607+891505659+889750406+882701207
1697+880839644+885718853+891043815+893538017+893465670+891877038+885959294
1684+879304566+884611042+891109468+892245653+891027785+890705661+890098754
1670+887470359+887498856+891778343+894392736+892767254+890743063+890196343
1657+888532969+883278512+875031282+874144873+874470928+871792233+873892395
1643+879027890+880053220+877673127+874661008+873795911+876743666+878988891
1630+878963465+878936442+879977372+879947278+880342241+882141590+881986024
1616+882741495+889861445+897160421+899870437+899232086+898649438+899492241
1603+901923862+905197242+908477561+911751248+914418888+916256192+916669763
1589+915148073+914187475+915604574+918473104+921129381+921814777+919615492
1576+917152058+918740752+919796299+916740698+914943744+917471664+920599305
1562+922922220+921537794+912564634+911691000+917538914+922219382+925776317
1549+929427586+930084731+924672314+916033622+910678997+913740432+919777137
1535+921810048+921332421+923436881+925283090+923953016+922732692+922186218
1522+920418744+920493364+922597026+926652408+932024598+934749968+933662731
1508+927373302+920495820+926850350+935406929+938409037+935136885+931847599
1495+934269884+937301533+936165655+933397355+935320579+938983701+940642900
1481+939851562+936841470+932919728+929546486+926821730+925494973+927661524
1468+930397827+929737365+927709060+927746216+925123471+915503669+911645307
1454+920925728+928943755+932531951+933689447+934257171+934863095+934881336
1441+935589210+936968293+936457317+936043008+937960275+940264458+942337167
1427+943995874+944370938+944158502+943702922+940778935+937895113+937295576
1414+935215497+932999875+933379852+932944417+929813828+929407012+930739235
1400+925822747+917693251+916322152+921859242+927225721+927075376+920984195
1387+914731063+914154740+915604021+916230950+917888859+920153061+920915349
1373+919961629+918068990+917101452+917646022+915917731+911404620+910727699
1360+914937541+918279215+919737094+921127785+921182751+918060822+914984401
1346+915283740+916345428+915049502+912462070+911048595+911991751+914453834
1333+916288803+916089510+914916107+914813728+916613445+919479579+921205107
1319+920903987+920685102+922482609+926696013+931762477+934929117+936821817
1306+938329565+938306903+939740462+944780517+949150715+951124668+953207141
1292+955838853+958468722+961306360+964352012+967136709+969899543+972425743
1279+973570280+974785261+976870007+976916253+975476922+975367234+974824936
1265+973247604+973042169+973246068+972603970+973254789+977018141+982069559
1252+984033009+982454326+981385575+982781425+985329673+986579661+986236164
1238+987045681+989415886+991433996+992418792+991711041+990908465+992802393
1225+995269327+995600602+994577974+992389743+990757260+992598678+996132091
1211+997179899+994719291+992568339+994704981+998683655+999570310+997786561
1198+997472789+1000083497+1001747056+999623680+998214872+1001033163+1004345911
1184+1005733776+1007942274+1010609361+1009651588+1007252456+1007668054
1173+1008199666+1008144699+1010905322+1015770835+1019375613+1019439055
1161+1017134380+1015610725+1015308131+1014495913+1013531813+1013790434
1150+1014340286+1015802403+1019194990+1022271103+1024080524+1025370064
1138+1025949641+1025532323+1024955387+1026224168+1028917725+1029981440
1126+1028505075+1024191932+1017929648+1014682063+1015617174+1018206754
1115+1021818779+1024078252+1026438999+1032911999+1036835338+1032397706
1103+1026027024+1023113232+1023962361+1027039150+1029939493+1031284368
1092+1031085750+1032166907+1034747460+1034795487+1034722157+1038702981
1080+1043564256+1043658836+1039452494+1038125184+1040964173+1043323753
1069+1045854928+1050324619+1054534031+1056835021+1059804087+1062280971
1057+1057647792+1050748999+1047773300+1045388294+1045916220+1051058656
1045+1055317814+1057794452+1058237011+1054661529+1051894028+1054528995
1034+1058258630+1058453685+1057855376+1058439928+1057773448+1055841688
1022+1054324604+1052151727+1049215948+1048266343+1051413882+1056610854
1011+1056823474+1050123913+1044192658+1042109571+1040230996+1039608858
999+1042100113+1045287572+1048571331+1050494002+1048951493+1047647275
988+1048878531+1049088204+1045843873+1042109325+1041917463+1043799108
976+1043379887+1042322314+1045341986+1048660138+1046896165+1046511581
964+1051341044+1053437152+1049893482+1047552204+1050216036+1053049620
953+1051445941+1049869899+1051632275+1053969009+1054262575+1051437097
941+1049069902+1051238234+1055449120+1057939761+1057740161+1056196792
930+1055130743+1055721068+1060149365+1065061492+1062932220+1056277246
918+1053092488+1055253697+1057891243+1056689343+1055917106+1060783172
907+1068772211+1073741823+1072722696+1068330266+1064177110+1063151104
895+1067109696+1071631098+1070820415+1065655133+1059735916+1056574496
883+1059510644+1065243281+1065521125+1061334313+1059616402+1059184651
872+1056414816+1054580952+1055657933+1057902297+1059588519+1053085118
860+1038987702+1032391442+1036179913+1040343018+1040971297+1042708125
849+1048015522+1049856265+1043326947+1036633036+1035418484+1033720226
837+1028168334+1023534910+1021249397+1018476307+1014550081+1011709741
826+1011443505+1012275930+1011986418+1010238351+1008964288+1007423928
814+1005085966+1006758922+1010892916+1009109044+999642166+989500148+987210888
800+989942892+987652465+982366380+980438366+979193721+974726671+969818781
787+967987312+966418149+962748332+959914134+959973400+961670738+961331417
773+957658776+953274207+948992693+946034067+945658266+944843284+943158291
760+943151044+942792378+940262247+936228790+930045057+924742880+924513923
746+927448167+930460839+931830464+928892105+924297680+924283800+927657225
733+929133406+927663060+926037210+926001896+922581733+913590947+906174176
719+904980629+909604350+915929523+919090697+920174249+919719714+916087054
706+911591077+908165080+905352623+902428696+899365603+898906707+902626392
692+908495679+915183449+917984237+910538970+897879227+889310119+889359866
679+897538986+907597172+912711970+910485907+902838214+893085079+890159863
665+898556332+904147284+901246511+898333947+899511280+901435855+900504306
652+894000107+886493547+885969489+894894622+905701094+909445898+908778436
638+906657393+903636676+905060040+901351838+875888150+846123847+844785175
625+880126366+916122306+910053726+896624326+912970160+938900913+947285897
611+930592452+890986514+871987350+895985176+920710528+911697019+924844830
##END=
