##TITLE=Sample description
##JCAMP-DX=4.24
##DATA TYPE=INFRARED SPECTRUM
##DATE=25/8/2023
##SAMPLING PROCEDURE=Instrument type and / or accessory
##ORIGIN=Default
##XUNITS=1/CM
##YUNITS=ABSORBANCE
##RESOLUTION=4
##FIRSTX=4397.6552
##LASTX=599.8556
##DELTAX=-1.9287962
##MAXY=1.7827377
##MINY=0.31098706
##XFACTOR=1
##YFACTOR=1.6603039e-009
##NPOINTS=1970
##FIRSTY=0.43616056
##XYDATA=(X++(Y..Y))
4398+262699236+262575291+262398521+262571396+262893903+262797637+262474018
4384+262423668+262210818+261470635+260845709+260858400+261107814+261111493
4371+261084910+261104206+260923863+260908982+261039963+260723955+260219580
4357+259982246+260100949+260377108+260454742+260579117+260714710+260310047
4344+259669522+259499106+259692552+259567926+258942730+258321591+258086914
4330+258193536+258635374+259274732+259493613+259070175+258333366+257637430
4317+257456585+257786971+258166396+258387108+258153688+257749635+258058858
4303+258429201+257966398+257690095+258204683+258571275+258240781+257599035
4290+256973750+256359485+256042615+256283432+256623152+256783965+257063966
4276+257222464+257025266+256812541+256602222+256316944+255761574+254848318
4263+254265268+254427751+255099688+255825386+256149364+256161982+256269592
4249+256467131+256284042+255680350+255445763+255892572+256080346+255419304
4236+254581079+254028204+253657304+253470212+253457683+253599362+253863926
4222+254097670+254098747+253898300+253856692+253971608+253834668+253578756
4209+253563678+253655150+253730325+253806361+253774948+253615284+253388810
4195+253162461+253002222+252926868+252852843+252716352+252801991+253121589
4182+253013028+252366921+251703043+251308863+251333921+251425160+251086589
4168+250764675+251037065+251532124+251529162+251016817+250598494+250599248
4155+250756885+250704991+250392375+249945297+249660001+249798018+249982435
4141+249768077+249506080+249435214+249167814+248838900+248936960+249311126
4128+249419454+249106138+248904578+249077149+249067851+248473816+247776211
4114+247658980+247889223+247889672+247580915+247198708+247114738+247297109
4101+247237785+246783347+246589577+247002264+247251911+246967531+246537074
4087+246286816+246464107+246725691+246546049+246098162+245726994+245429510
4074+245150999+245058359+245141449+245182878+245183147+245106483+244808191
4060+244425786+244242105+244238102+244203943+244237240+244471989+244495881
4047+244074560+243777435+243903084+244017910+243819653+243344321+242794228
4033+242572170+242938402+243436530+243388460+242942800+242644957+242599148
4020+242623865+242515376+242261295+242051263+241956254+241902530+241755179
4006+241387529+241035459+241087460+241443515+241757100+241809460+241463170
3993+240890603+240459895+240292691+240250473+240184435+240012996+239744770
3979+239481337+239300581+239347143+239635832+239839151+239831684+239777331
3966+239543569+238998484+238584092+238674829+239111192+239397385+239027150
3952+238113912+237154794+236781597+236881165+236459630+235998568+236708577
3939+237787583+237642727+235838544+233837290+233872490+235254615+235365061
3925+234274496+233893509+233945079+233488200+233598287+235089979+236649252
3912+237279097+236711790+234275483+230235656+227323246+227423927+229312653
3898+232112284+233878234+232952448+231058373+231346415+232115677+231191992
3885+229899831+229009946+229117861+231179463+232241111+230899588+228639172
3871+226948685+227348447+228185524+227459037+227963735+230418135+231101722
3858+228614168+223366222+219027385+223203147+229425181+232313718+231664237
3844+228584641+224911046+221795927+221128100+223730515+226381916+228104372
3831+229433564+229792293+229341607+228120922+224923970+221876037+222559481
3817+224577141+227774579+231268979+232287458+230251165+227153547+225677364
3804+224170360+222765564+224412056+226813827+229013680+231255714+232663024
3790+233108990+232418259+230824162+229803476+229403552+228757660+229333511
3777+231126367+231583659+229915717+227554890+226949152+227954006+229091367
3763+229378512+227775889+225817930+225857922+225536403+221930515+216616926
3750+215848795+218000327+219492019+221886018+224119562+223692085+220418342
3736+216691005+217720936+222952709+226982251+227771114+226475830+225805993
3723+226985733+229235810+231472495+232532205+231413279+228677226+230138709
3709+239200528+250387726+261380688+273707527+288905706+303613530+315154934
3696+323832140+328531537+328740654+327412216+328567976+331101822+332057260
3682+329235677+321679263+311285433+300956708+295544071+293630197+290116949
3669+287586620+287075102+285058105+280956099+275744035+270078466+264331099
3655+259912259+255659259+248013562+239794761+240195116+244161168+245721142
3642+244972630+243313753+241268718+238624892+235441959+231434639+225951585
3628+223306413+225677507+227009876+224955364+220405903+217081039+216570867
3615+216402640+216222136+215959421+215040080+214955858+215775093+215247975
3601+213383571+211972977+210886845+209732091+209450421+208896324+206036848
3588+203108139+203964063+205926367+206424728+205664729+204516670+203788908
3574+203221116+201697078+198412799+193655855+191089842+193068713+195553592
3561+196356941+196485283+196320790+195153525+193769909+193424552+193098636
3547+192086511+191740922+192554825+193327587+193182228+192445941+192089958
3534+192039501+191201903+189517519+188421981+188490999+188908316+189418238
3520+190053880+190591804+190933803+190785232+190105756+189458966+189076076
3507+188501966+187588100+187307309+187992332+188351689+188169749+188365403
3493+188749316+188695359+188518462+188516344+188552513+188651830+188989360
3480+189586985+189934675+189677291+189329870+189489104+189987322+190305879
3466+190266461+189803210+189225743+189185553+189487740+189721071+189980340
3453+190320742+190510257+190128283+189628647+189930493+190725225+191512186
3439+192285684+192806465+192885301+192752471+192748397+192972735+193197252
3426+193197486+193222077+193777484+194860187+195954414+196836599+197648330
3412+198345379+198808128+199306490+200091063+200896368+201606629+202515918
3399+203630913+204926269+206544149+208214335+209667291+211074278+212521472
3385+214059673+215881356+217712105+219311730+221409519+224329540+227318453
3372+230213668+233346629+236505743+239494907+242616703+246100639+249745101
3358+253637165+258002262+262628226+267397879+272256222+276959747+281219856
3345+285137821+289327817+294003178+298703652+303147837+307648528+311892930
3331+314975255+317204922+319488403+321804374+323613582+324887201+325906254
3318+326754459+327784390+329343484+330853611+331779539+332854273+334173771
3304+334533667+334013550+333574747+332915841+331465164+329401139+326591797
3291+322931413+319246259+315966844+312533886+308818432+305240834+301922719
3277+299188623+297245221+295442888+293403525+291409289+289705932+288181212
3264+286547230+284899320+283480289+282175150+280662511+279112086+278130010
3250+277710485+277241507+276297539+275077249+273995013+272980088+272056134
3237+271518624+271014716+270135959+269188904+268210866+266856509+265409422
3223+264497872+264081487+263668262+263104473+262435803+261705977+260981464
3210+260324802+259890342+259654086+259247556+258381670+257577872+257618439
3196+258038808+257948897+257359978+256576392+255904383+255438116+255029504
3183+254694774+254172377+253549228+253455009+253568416+253437005+253319361
3169+253206905+253084594+253079389+252958765+252683342+252477007+252201063
3156+251878342+251860733+251997888+251947736+251752800+251540668+251373931
3142+251317712+251274201+251099369+250966450+250943259+250712279+250314670
3129+250152349+250120075+249783514+249344980+249344280+249662478+249817278
3115+249750433+249771201+249867556+249671866+249212545+248742024+248323486
3102+248127634+248190010+248155474+247826740+247406029+246945524+246396472
3088+246118428+246198807+246132500+245723583+245356328+245291188+245126066
3075+244516164+243803157+243314363+242954377+242541816+242008578+241472360
3061+241026412+240503459+239980740+239832114+239848018+239511583+238937688
3047+238552931+238360813+238017072+237390728+236841855+236596659+236258842
3034+235660894+235118537+234625991+234132889+233883367+233843572+233812878
3020+233754415+233542696+233132935+232735631+232506734+232457587+232425636
3007+232257033+232101461+232097350+232190887+232424793+232813211+233225503
2993+233584681+233816647+233972542+234301439+234864761+235483656+235958755
2980+236142472+236062667+236002732+236080778+235992860+235645511+235261185
2966+234851047+234341108+233768111+233193175+232678820+232338866+232270549
2953+232289181+232209519+232207329+232327360+232301836+231970749+231387718
2939+230745003+230194156+229805953+229750003+229922107+229688148+228823680
2926+227932789+227358894+226895786+226371379+225629078+224732552+224149126
2912+224100840+224196908+224110695+224024050+223976196+223803877+223673758
2899+223653815+223514398+223258809+223058991+222947791+222861991+222757181
2885+222701877+222716668+222644815+222447796+222234838+221995566+221693415
2872+221393023+221112214+220802776+220489801+220278530+220223622+220213749
2858+220081315+219759060+219279563+218670684+217890814+217172889+216885493
2845+216839990+216796677+216914302+217170843+217439912+217726483+217954949
2831+218084224+218214218+218348268+218356740+218306085+218355645+218379572
2818+218290343+218338862+218619940+218798703+218743022+218742125+218872854
2804+219017620+219103618+218904841+218449110+218183900+218207433+218264370
2791+218321917+218386842+218383288+218358661+218341321+218259111+218119191
2777+218039529+218058987+218083542+218071480+218077637+218072611+217989898
2764+217954518+218056600+218126209+218077745+218026659+217984100+217906395
2750+217890527+217985374+218070385+218051663+217967909+217882683+217897563
2737+218070852+218186539+218148054+218187311+218387201+218598418+218669948
2723+218637567+218645842+218742574+218916652+219042768+219011446+218968366
2710+219033057+219106239+219174682+219283943+219348078+219394317+219536804
2696+219720521+219791621+219666366+219420847+219252962+219253877+219219198
2683+219067252+218997265+218952606+218788777+218643993+218651693+218687880
2669+218563900+218367618+218289805+218326315+218346778+218271909+218218490
2656+218258554+218241843+218100272+217922478+217793669+217749943+217759708
2642+217790905+217809986+217767785+217714205+217682272+217666099+217714187
2629+217739209+217681177+217666135+217690888+217671915+217674392+217784407
2615+217906736+217907238+217855542+217870387+217944538+218014220+218134610
2602+218409836+218693247+218763719+218628879+218452736+218364279+218390235
2588+218496103+218542540+218451282+218280704+218072665+217988677+218109624
2575+218222744+218203035+218094007+217920072+217690367+217472114+217367251
2561+217356624+217351401+217322932+217263464+217160234+216998631+216837567
2548+216839433+216994144+217014750+216786822+216522940+216408940+216481153
2534+216608903+216661352+216692262+216700716+216730747+216896478+217012345
2521+216941317+216896712+217018053+217190390+217254202+217212235+217210638
2507+217315986+217485271+217642710+217695932+217717705+217848811+218005981
2494+218106357+218173525+218179539+218173112+218198027+218134574+217988121
2480+217962021+218094851+218210466+218220895+218217323+218210753+218098243
2467+217968447+217969650+218038470+218032547+217904600+217773781+217783725
2453+217871518+217891137+217885447+217884675+217783563+217690996+217726357
2440+217795554+217846980+217855632+217863602+217953872+218070726+218066957
2426+217891514+217804206+218002301+218245558+218332723+218335362+218307898
2413+218318040+218456039+218626204+218756198+218907085+219017854+219042248
2399+219096887+219267106+219498176+219673744+219729891+219739512+219778481
2386+219598426+218889260+217643662+215900383+213712378+211258749+208755669
2372+206350074+204016818+201827610+199895122+198175340+196921915+196546564
2359+197086228+198427123+200664868+203959343+207394329+209018635+208088129
2345+205893752+204420763+204161728+204647112+205431415+206031176+206340561
2332+206693259+207440873+208498177+209463129+210276745+211326403+212721291
2318+214125370+215315718+216293720+217155980+218059902+219081540+220117179
2305+220984914+221632601+222183555+222756571+223311241+223696734+223859486
2291+223985566+224315126+224793240+225205012+225473345+225581475+225556274
2278+225454605+225393145+225510645+225678890+225758426+225820568+225840439
2264+225819222+225961565+226263554+226400422+226346483+226414764+226568290
2251+226567267+226550107+226709107+226917093+227089843+227241771+227304093
2237+227344804+227450636+227550115+227649180+227759429+227805668+227814015
2224+227862838+227947921+228029216+228082384+228083174+228061993+228102524
2210+228227778+228410508+228558613+228573242+228533878+228587261+228730304
2197+228839870+228852399+228855900+228952416+229086395+229142434+229123713
2183+229093557+229118812+229238987+229420407+229611394+229706564+229650094
2170+229641281+229832591+230071791+230240198+230334883+230334776+230334471
2156+230426213+230554447+230638076+230654410+230689161+230813410+230930390
2143+230978801+231043869+231130226+231216314+231370701+231563879+231675850
2129+231705934+231782652+231933701+232037738+232034669+232018873+232137163
2116+232399878+232675912+232832220+232882982+232963542+233065066+233135017
2102+233260038+233464919+233702522+233987818+234304939+234635989+235061403
2089+235622966+236259757+236871060+237404352+237862649+238181099+238360221
2075+238568422+238921515+239386023+239831719+240125811+240356090+240734762
2062+241208550+241590596+241794777+241887847+242122937+242557379+242958685
2048+243223483+243436297+243621648+243795959+244147562+244693132+245149383
2035+245412403+245627803+245861259+246025357+246109848+246165905+246121354
2021+245906978+245586859+245424071+245690573+246168257+246463964+246582631
2008+246723520+246973436+247260294+247483591+247713206+248007657+248092021
1994+247737905+247498041+247989976+248832545+249648818+250475645+251236812
1981+251903543+252543853+253192707+253880566+254683017+255427956+255910737
1967+256715002+258319437+260000591+261242007+262251583+263063996+263713532
1954+264369583+264935616+265224197+265151087+264576438+263657295+263490181
1940+264496705+265437119+265777665+265911302+266087857+266293779+266425478
1927+266254576+265631391+265275947+265568297+265933883+266806070+268235476
1913+269039183+268985567+269014754+269788072+270744390+271305235+271606094
1900+271720507+271443055+271029812+270910678+270535381+269916934+270188032
1886+270888061+271156323+271300299+271389151+271289924+271139521+270950886
1873+270037935+267788505+265938442+267060438+269394538+270643547+270963648
1859+271111627+271418122+271757196+271893077+271691176+270968010+269558690
1846+267917188+268032318+270227737+271725263+271990258+272176542+272152848
1832+270741069+268843188+268846994+269938600+271143776+272729992+273815226
1819+274112890+274220697+274073221+273278111+272717302+273427705+274492190
1805+274645177+273674140+272626744+272888113+273611656+273011303+271415376
1792+271806882+274857937+276975202+277296990+276920868+276370541+276319850
1778+276896994+276357904+273884495+271868037+273540826+276874772+279263314
1765+279795655+279095267+279074607+279510467+279729187+279935305+278717547
1751+275762918+274054122+275400097+277374390+278321859+278554544+279070209
1738+279144594+277068003+275151347+277568142+281168106+283910997+285233942
1724+285307788+284612049+282005488+277339980+275885606+280365834+284695050
1711+286399251+285613117+283492010+282042949+280993471+278827383+277259008
1697+278664702+283431752+287978790+288830209+287377235+284795157+280842135
1684+279865606+284628779+288287439+289401842+289142053+289029992+288491655
1670+288130934+291498482+295277730+296101865+296730041+299405835+301041270
1657+299105300+293897633+292459737+297275610+297716837+297592786+303116066
1643+308301905+309698301+308161357+305070094+306017096+312763143+317183418
1630+318783043+320135031+321723707+323458172+326754890+329337309+329657392
1616+331888747+336881194+339820637+340528510+340940999+342023666+343137603
1603+343991803+344865785+345416668+345222414+344918630+345365331+346257047
1589+347149087+347987851+348675009+349290081+349596917+348509152+346112048
1576+346728197+350468422+351554500+351448954+353967364+357122888+358608280
1562+357379787+352541709+352048158+361140834+368132974+372919572+376647842
1549+380227092+381995303+380418869+377058213+377643560+390843967+402713639
1535+407906946+413693426+421945363+427766307+431888973+436861495+441492467
1522+448043290+458472732+468633105+479701924+490677618+498140441+501033429
1508+502754180+518363754+539581349+550996314+558544220+566608616+578745490
1495+592712467+602204744+608527711+618024942+632346609+645943386+656836905
1481+666380734+675157240+682732968+688728170+695448691+709457886+726510167
1468+739624522+750197097+761645915+772224305+778542534+781875259+791326395
1454+806103703+817189071+824019518+829271162+836404317+844724751+851448576
1441+856249030+859565601+862961152+869083726+875721606+879986508+883298699
1427+886523007+887063587+884941906+879485777+868427549+860802207+862364855
1414+863102741+858586254+852054852+846128650+840959073+837038308+833753832
1400+828753845+821960231+816129954+813620124+814159052+813711238+809631867
1387+804021656+802029502+804478373+808302712+810150261+807981193+803760089
1373+803043385+805528444+806303019+806330877+807466891+807420652+806637031
1360+807552405+809065583+810040910+810640868+811754984+813407669+814722106
1346+815957993+817645645+818431923+817330947+817946486+822796913+828392980
1333+831948572+833699048+835090311+836576133+837757669+838838613+839725124
1319+840357894+841367326+843065891+845803254+849289990+851786896+853142904
1306+854875790+857119458+859616579+863143451+868392223+874581428+879558510
1292+882315761+884101347+885881907+886867502+886828514+886956821+888015435
1279+889472035+890105165+889503699+888102097+886172768+884142847+882959158
1265+882608560+881508804+879637274+878559417+877960321+877405381+877743485
1252+878422998+878521722+879243812+881216939+882776571+883028732+882685960
1238+882299678+882356687+883075114+883635152+883181163+881941972+880602549
1225+879166771+877586316+875516188+872079424+868681935+867069099+865621330
1211+862422726+858227040+854746981+852172460+849563547+847024495+844988112
1198+842667546+839857881+837799528+836623737+835202749+833409983+832019869
1184+831512892+831659291+831514399+831029680+831359456+832244315+833052492
1171+834305181+835752304+836937214+838127294+839808770+842263027+844705652
1157+846454333+848537314+851885118+854976022+856452654+858094210+861384574
1144+864794269+867260445+870231946+873612634+875383717+876241364+877788001
1130+879584214+881952383+885493974+889043965+891907121+894488392+897566372
1117+901241582+903692680+904151839+904086717+905057807+908195812+912616231
1103+915637706+917295704+919962559+923942487+929116803+935646841+941091769
1090+943137055+943354608+946103818+953611982+962604964+968414133+971629466
1076+976244678+981109321+981994037+982115522+987387988+994239329+996735517
1063+999091982+1004408677+1008312641+1009944073+1011283137+1013615263
1051+1016808266+1017934444+1017731538+1018372925+1018173465+1017418133
1040+1017901273+1019780845+1023323585+1026512998+1027638745+1030459970
1028+1036024589+1038787656+1036736268+1034382674+1035177281+1038416811
1016+1042209414+1044773237+1045503942+1045327028+1045167130+1046508635
1005+1048176183+1046833313+1043808393+1041995379+1041626544+1042120526
993+1042014478+1040302701+1039808791+1043182228+1047058261+1047701443
982+1046232565+1044060481+1041939375+1042157143+1045646823+1048671026
970+1047955901+1045387052+1044434773+1046802511+1050221253+1052083521
959+1053301962+1053330323+1051331348+1051091106+1054632266+1057295316
947+1057954940+1060144830+1061206676+1060103761+1060521707+1061206604
935+1062225011+1065361795+1067027763+1066100973+1065387715+1066272143
924+1069215284+1070690983+1069496667+1069918921+1070278135+1069367930
912+1071298480+1073741823+1072185278+1069708117+1070382460+1071806534
901+1069942256+1065162336+1060441794+1060164073+1065698823+1070157727
889+1068812847+1065144170+1061240134+1058872468+1060293240+1062717269
878+1061169268+1054356986+1045883690+1040019523+1037848301+1037640728
866+1038115683+1035939794+1027153667+1017968621+1014616078+1012755820
854+1008613122+1004154793+999648502+993043003+986486615+981172864+974526942
841+968428349+964919427+960490248+953045985+945006144+938546255+934232387
827+931458263+929834728+929788346+929608344+929066902+929625791+929036316
814+925806407+921885498+918240947+915361420+914786951+915108686+914790828
800+916107922+916888600+912925688+907720642+905096148+902981145+899783044
787+896660476+894127814+891795688+888960606+885744842+882901718+880990052
773+880420106+879304698+875681040+871420949+868621767+865306417+860562396
760+858715206+859991158+859216296+855723959+852563122+851767366+852066340
746+851205462+851006074+852458941+852707942+849922976+846357906+846175248
733+848672513+849882696+849295878+848197199+847835400+849388930+852395901
719+854977602+855349021+853316947+850819395+848801609+845269495+840832921
706+838797544+838676130+837264118+833743708+830167437+828467006+829493310
692+831716946+831440087+829048870+827869345+827600671+826599999+824509407
679+821863374+821614731+823629071+822027005+814600549+804976376+803483732
665+810586803+813448595+812499116+813044147+814930325+816080699+814579296
652+810176324+805017517+800404890+795794274+793498694+795179381+796149826
638+793382163+790659448+794212096+800311694+798585845+791615317+783772207
625+774350294+768854962+770900032+775030237+775420899+772499944+770378479
611+772519833+775441505+771028912+760794873+754012747+749201594+740720544
##END=
