##TITLE=Sample description
##JCAMP-DX=4.24
##DATA TYPE=INFRARED SPECTRUM
##DATE=25/8/2023
##SAMPLING PROCEDURE=Instrument type and / or accessory
##ORIGIN=Default
##XUNITS=1/CM
##YUNITS=ABSORBANCE
##RESOLUTION=4
##FIRSTX=4397.6552
##LASTX=599.8556
##DELTAX=-1.9287962
##MAXY=1.9101268
##MINY=0.52818191
##XFACTOR=1
##YFACTOR=1.7789442e-009
##NPOINTS=1970
##FIRSTY=0.57277131
##XYDATA=(X++(Y..Y))
4398+321972609+323109723+323292362+322670867+321874840+321589908+321990970
4384+322729535+323542482+324178553+324536393+324529089+323450174+321626563
4371+321150348+322475864+323616429+323895799+324189509+324082492+323420756
4357+323768444+325064140+325343778+324616438+324477993+324733674+324304467
4344+323677744+323642664+323816524+323593880+323220560+323292496+323866615
4330+324628332+324934909+324703888+324715112+324901303+325174139+325840298
4317+326291049+326400881+326412574+326173243+326443265+327495510+328071706
4303+327662167+327043184+326770716+326805227+327076790+327592441+327847252
4290+327422702+326959788+326734865+326528202+326947693+328057265+328944192
4276+328969355+328164952+327668432+328356973+329441986+329981259+329943531
4263+329552822+328980647+328601999+328706369+328961481+328889042+328573453
4249+328469351+328586788+328672864+328821595+329003129+329193910+329395111
4236+329439238+329699677+330335380+330728803+330655191+330629961+331036585
4222+331223781+330462332+329514626+329345188+329609447+329929057+330676165
4209+331781918+332378318+332012939+331261609+330897370+331431918+332441711
4195+332578984+331966434+331878314+332231698+332341931+332274484+332341295
4182+332495588+332708449+333253217+333724273+333575508+333534765+334023445
4168+334261670+333969769+333726618+333817653+333915925+334114480+334633348
4155+334958888+334933324+334687694+334251652+334217141+334738354+335080212
4141+334973698+334960329+335362799+335725765+335696381+335672491+335904484
4128+335904853+335309190+334687895+334949138+336139191+337276674+337348275
4114+336576172+336041790+336088330+336380901+336639464+336773788+336902717
4101+337108978+337486319+337964142+338107211+337913314+337918407+338225017
4087+338599476+338987002+339199361+339116568+338941535+338711150+338404842
4074+338242775+338230747+338325199+338728071+339146556+339180933+339039572
4060+339007776+339221005+339496087+339548221+339558776+339854932+340289768
4047+340456727+340636015+341366136+342334281+342752566+342287608+341477442
4033+340936259+340781966+341017644+341426145+341770281+341954562+341735100
4020+341415691+341709536+342420089+342825507+342700297+342348354+342292232
4006+342742481+343408505+343856442+343784338+343303834+343069596+343563670
3993+344280791+344459711+344027723+343449784+343464393+344118155+344316474
3979+343930858+344010300+344253618+343826053+343407869+343640565+344171663
3966+344648214+345001564+345398673+345645810+345459854+345372940+345474127
3952+345124128+344471270+344444131+345012889+345085596+344913277+345518522
3939+346305771+346390205+345501971+343978168+343441441+344472075+345314574
3925+345335347+345601717+345836960+345343087+345246758+346289185+347430253
3912+348270005+348928156+348456363+346083997+343208309+342058765+342953868
3898+345285357+347582637+348247288+347367262+347361634+348209259+347752812
3885+346826984+346568924+346333781+347262892+348540864+348384962+347497834
3871+346630440+346134289+346186390+345899783+346608628+348783780+349959358
3858+349296584+346333781+341789949+343041820+347832723+350840892+351392562
3844+350121760+348124925+346095188+345413985+346985868+348784651+350211790
3831+351587062+352288402+352269840+351891360+350171449+347989864+349015940
3817+351134367+352684237+354499070+355740755+355311313+353357935+351948621
3804+351080825+349964853+350906127+353087980+354837275+356310652+357382765
3790+357889002+357935876+357597972+357287006+357141592+356586135+356380511
3777+357402232+358523263+358759746+357970420+357175231+357047273+357247335
3763+357704553+357345038+355943430+355680847+356184135+354838716+351324512
3750+350149905+351928384+352933854+353341986+355060188+356086164+354127023
3736+350406759+350173359+353749180+357244588+358885727+358482152+357644947
3723+357741409+358444994+359818122+361186693+360660487+357474671+355165262
3709+357262413+360258955+361673898+361661936+361799142+362822169+363478545
3696+363380641+362467914+360346908+358261651+359215624+362086821+364076319
3682+364130062+362434811+359572257+356124662+355376180+356246589+355236193
3669+355747824+358910186+360772597+360518188+359381108+357742180+355594670
3655+354354727+353751660+350916715+345597897+344660309+347751371+349818400
3642+349754974+348685675+347625557+346546375+345215967+343213871+339193832
3628+335563799+336316671+337617795+336676755+333214719+329831690+329044441
3615+328744398+327805973+326806533+325648143+325338752+326203130+326215326
3601+324556530+322513893+320831005+319504551+318907548+318416322+316725092
3588+314506148+314295766+315385805+315756846+314744976+313200266+312312836
3574+312001032+311514598+309853020+306128132+302687674+302884586+304504584
3561+305372480+305764060+305910111+305347016+304498687+304209701+303962328
3547+302998573+301681399+300822851+300700086+300824895+300577121+300242835
3534+300300465+300131864+299186972+298099078+297541578+297482072+297713797
3520+298086078+298557267+299056166+299385828+299394238+299043501+298461106
3507+297950313+297664879+297812940+298395033+298643377+298282287+298032804
3493+298215242+298409307+298275217+297835456+297450074+297170637+296907517
3480+297192851+297993368+298568592+298655137+298520043+298742855+299243027
3466+299277337+299002524+298991199+299134938+299118051+298867094+298736288
3453+299261388+300117256+300461124+300311589+300320401+300853777+301713665
3439+302213737+302293681+302718298+303370083+303572960+303716163+304090588
3426+304320202+304731517+305707469+306727347+307514193+308655060+310343476
3412+311868082+312947499+314313826+316265059+317990733+319144366+320372514
3399+321800792+323186887+324916079+326894988+328442881+329683896+330662696
3385+331243148+332426365+334791796+337486017+339828228+341936737+344117719
3372+346372045+348511044+350466734+352395754+354782192+357898852+361195136
3358+364108719+367001628+370163755+373098614+375860181+378905340+381812188
3345+384200603+386763550+390236408+393860075+396325687+397935365+399658861
3331+401413182+403052881+405129023+407237734+408389858+409105471+409837201
3318+409995012+409949009+410686435+411965679+413061046+414022423+414733848
3304+414793789+414613462+414654305+414474715+414043230+413762452+413269618
3291+412534337+411871596+411202455+410442346+409283587+407609780+405842660
3277+404637228+404451540+405003109+405226223+404378899+403156179+402018763
3264+400505950+399045641+398494172+398714806+398918487+398767343+398555722
3250+398468909+398225390+397679114+397185274+396788601+396221351+395651889
3237+395243858+394789253+394335788+394047975+393848013+393829920+394001737
3223+394048678+393622788+392922018+392668381+392930562+393272789+393606036
3210+394145141+394819676+395183079+395220002+395301621+395427502+395376339
3196+395617211+396414812+396896221+396873639+397047198+397319163+397229569
3183+397286830+397870062+398165515+398210982+398790395+399520282+400049369
3169+400524412+400727255+400753825+401116021+402032199+403098750+403565483
3156+403699372+404171667+404660380+405318230+406475447+407217262+407324078
3142+407723833+408351561+408554270+408371732+408221124+408692213+409836866
3129+410725938+410767284+410531806+410818581+411463765+412032289+412542747
3115+412829555+412908896+413069455+413471858+414250060+414909250+414880971
3102+414714448+415216865+416048876+416172043+415616620+415103482+414703692
3088+414658694+415283943+416125872+416504352+416192013+415937336+416492189
3075+417452863+418208314+418502661+418263297+417742754+417275216+417052839
3061+416931348+416632612+416595420+417177078+417535086+417326480+417321655
3047+417722985+418426101+419357892+419753661+419380509+419103618+419318088
3034+419637363+419827809+420157839+420762616+421206297+421310064+421661873
3020+422768899+424371038+425829739+426652235+426798487+426863924+427490379
3007+428698491+429915349+430659106+431477682+433302634+436151282+439802759
2993+444460444+449668894+454125477+456885001+458082995+458577136+458888537
2980+459032209+458972670+458706099+458382736+457911781+457008570+455959810
2966+455081058+454328555+453741603+453459519+453565933+453607279+453214158
2953+453103489+453621787+454276420+455101764+456128511+456874279+457083120
2939+456763208+456109647+455509829+455233944+455273079+455554459+456020020
2926+456146436+455153966+453152038+451324172+450573713+450596497+450582224
2912+450149063+449553936+449240491+449215998+449152069+449060733+449338361
2899+449903433+450276217+450474134+450677983+450848124+451265872+452085956
2885+452768734+453074071+453139675+452777546+452061598+451412795+451026977
2872+450882769+450904213+451056697+451218529+451192060+451095530+451184822
2858+451286612+451167332+450917682+450601154+450258559+450065969+450152380
2845+450338169+450443075+450525901+450482142+450472727+451084406+452188349
2831+452993322+453406849+454026870+454868029+455315229+455285342+455297873
2818+455449452+455586892+456035600+456717908+456947087+457077223+458056961
2804+459477901+460249067+460231677+460137459+460446582+460893346+461092939
2791+461042949+461272697+462114761+462837879+463233983+464014496+464899447
2777+465263385+465475308+465887829+466289327+466644051+466931965+467136350
2764+467668453+468547942+469172654+469323095+469447568+469870275+470452100
2750+471153138+471692847+471602650+471406910+471825060+472452587+472805368
2737+473282689+474138054+474883655+475299293+475698177+476016045+476073641
2723+476200359+476593146+477130476+477742422+478339761+478798788+479011214
2710+479054972+479188592+479617967+480333949+481074658+481674375+482170392
2696+482588643+482883861+483082013+483366711+483720430+484122363+484810803
2683+485684161+486375215+486668992+486560300+486395653+486491379+486943303
2669+487552569+487635395+487294844+487599711+488514817+489096106+489410088
2656+490001931+490581612+490867549+491159886+491408196+491426054+491530592
2642+491898618+492325915+492648038+492753045+492919869+493446410+493794835
2629+493960755+494682366+495710118+496438463+496613195+496273280+496135002
2615+496654239+497611126+498680190+499347355+499341659+499159824+499463787
2602+500369879+501452848+502101082+502153350+502252360+502967973+503959974
2588+504580029+504809342+504951607+505111830+505468900+505925347+506110332
2575+506293138+506852816+507511135+507876011+507914476+507921747+508204501
2561+508687987+508987896+508982635+509083420+509471281+509736746+509890939
2548+510255280+510620323+510986004+511608304+512172103+512354843+512422491
2534+512762238+513378976+513893388+513978057+514036624+514654937+515348805
2521+515492176+515432502+515639534+516262973+517199656+517993807+518404318
2507+518684224+518933237+518995156+519122008+519663928+520317389+520771524
2494+521144006+521460266+521826080+522434542+523178736+523785422+524023480
2480+523996642+524157502+524676973+525038265+524874288+524842625+525389069
2467+525861967+525918893+526051977+526644457+527582917+528440125+528981408
2453+529271265+529304905+529337606+529688678+529950659+529920437+530159969
2440+530667110+530952946+531099064+531460188+531977515+532214199+532085001
2426+531955669+532149968+532806042+533635708+534189892+534410158+534659071
2413+535192246+535718351+536146386+536584137+536792374+536996792+537562535
2399+538104388+538380977+538664669+538948562+539124567+539347681+539563055
2386+539657139+539902266+540344273+540254075+539236610+538326363+538092158
2372+537236089+535191475+532975782+531366774+530971341+531889596+533061757
2359+533364983+532757325+532724456+534715628+537795399+539880488+540075457
2345+538903195+538016737+538308538+539348485+540751567+541868142+542288839
2332+542474024+542710909+543057391+543826647+544913134+546205546+547867459
2318+549364055+550214327+550726193+551561320+553089412+554533504+555100688
2305+555335294+555980981+556872164+557510714+557868152+558265428+558846617
2291+559340289+559619692+560015963+560733285+561593341+562222443+562594758
2278+562987980+563349639+563514286+563575266+563690593+563700041+563696691
2264+564287529+565275811+566016218+566674872+567375542+567771980+568043510
2251+568582482+569140886+569366513+569192016+568862589+568924440+569436071
2237+570098209+570763229+571176420+571446007+571787697+571889889+571877760
2224+572250142+572893584+573545871+574054621+574147096+574117544+574531272
2210+575125528+575629519+576388154+577306342+577847458+578009826+578224061
2197+578607366+578941082+579182925+579481394+579806264+580118403+580396030
2183+580552032+580812706+581290362+581819081+582264773+582496632+582796239
2170+583214055+583346134+583490945+584082923+584762484+585066380+585223052
2156+585664388+586202489+586491977+586684434+586987660+587383227+587965287
2143+588643910+588992502+589116205+589608001+590270139+590482431+590492482
2129+590527395+590367774+590356249+590862318+591495909+591813676+592166960
2116+592908037+593642213+594205978+594810286+595287406+595365206+595202168
2102+595113445+595188296+595438181+595789990+596242785+596960744+597720853
2089+598118498+598304119+598643866+599054578+599234838+599285834+599649035
2075+600347024+600940342+601182520+601189825+601387106+601921654+602428595
2062+602900086+603412119+603774181+604168408+604733447+605178871+605287295
2048+605176391+605322878+606055713+606988376+607551270+607694339+607700772
2035+607889945+608427308+609155788+609819467+610203040+610255577+610155596
2021+610083961+610281711+610996922+612140804+613055843+613232016+613314104
2008+613945619+614651649+615105315+615570507+616162284+616827170+617206922
1994+616807267+616289002+616790917+617891643+618830471+619603446+620212444
1981+620553733+620677838+620836520+621270351+621994207+622614530+622834528
1967+622940004+623302199+624055942+624947125+625487101+625604371+625705625
1954+626096971+626756563+627529002+627989771+627783845+627273756+627430093
1940+628679786+630052243+630714851+630923859+631276338+631873006+632506866
1927+632871474+632672652+632605573+633151782+633304903+633455343+634672804
1913+635711076+635560167+635158769+635581275+636635764+637693805+638331551
1900+638421011+638419939+638615143+638696160+638513353+638414779+639245853
1886+640785035+641811580+642075604+642105826+642616184+643745190+644593485
1873+644370137+642826264+640971393+641457492+643975508+646139033+647405546
1859+648205392+648715616+649163251+649637490+649734656+649177122+648425591
1846+647746834+647433288+648539041+650341778+651655936+652464427+653050976
1832+653010434+652232233+652177618+653145395+654370562+655819144+656885092
1819+657400074+657925844+658164270+657298686+656201577+656969795+658964854
1805+659911857+659437618+658749681+658990452+659933233+660415312+659709550
1792+659003184+660252475+662162564+663421504+664174309+664340028+664066622
1778+664143819+664039549+662535080+660674914+662045696+665545761+667963729
1765+668693079+668384492+668410560+668933515+669156730+669771893+669953628
1751+667891155+665436600+665918679+667908712+669477915+670209745+670218456
1738+670156806+669471348+668177628+669576824+672540396+674917420+676369018
1724+676748837+676567371+675471536+671958806+668957505+671591584+675658296
1711+677890039+678188172+676850829+675526217+675316070+673389496+670293710
1697+670891115+674053846+677601154+679650492+679300894+677313876+673676706
1684+670245194+672820168+677365207+679922424+679586630+678233539+677478322
1670+676429060+677625613+681259700+683184063+682631622+682484197+683273389
1657+682889213+679251105+673743986+674182172+674811944+673826409+676564422
1643+680973629+683203630+683278749+681004253+678934008+683347369+689403645
1630+693231664+695934697+698971044+703006328+708527787+713178838+715562562
1616+718686761+724812930+730278770+733017386+734069932+735464705+737411918
1603+739713620+742341132+744583999+746208620+747343455+748172921+749553621
1589+751967165+754626775+756281685+756911993+757533388+757613802+755746801
1576+754625033+757343277+758956908+757531043+757404324+760136776+763002914
1562+764181441+760566117+754219480+758276744+764495054+768170554+770354652
1549+773040396+775465199+774902505+770912320+767492735+773845604+783554798
1535+789019499+793217687+799126405+803980566+806359868+807564864+807842224
1522+809088499+814305326+819642236+824415984+829972893+833366008+831778109
1508+825242300+824201414+834633861+842447106+845481576+845994146+847063444
1495+849941913+852282683+851863796+850393837+853665996+859883904+864115799
1481+865529200+865479210+864099113+861797142+860174800+861330208+865619398
1468+869315806+869895989+870303686+873063075+874324562+871140656+868166026
1454+871485563+876994626+881615454+884472412+887301627+890774486+893547009
1441+895400675+896276378+896772060+900525897+906083878+909480142+911026293
1427+911059597+909048858+907876831+908773709+907440051+902943730+901106884
1414+902766954+904555753+903086397+899179038+895272348+892363457+890438290
1400+886787852+880513789+875831846+875551605+878525766+881307269+880806628
1387+876782334+874030584+875017458+876917295+877258918+875906966+874043517
1373+874161926+875961915+876931635+877304017+877105529+874607953+871716953
1360+872536836+875075088+875807186+875147460+874488941+873653310+872848170
1346+873012147+874365037+874502276+871510759+869250068+870807945+873737007
1333+876523939+878226896+877801910+876835206+877695027+880316240+882936581
1319+884880242+887163651+890440501+893601087+895361808+896970749+900562552
1306+905515622+909255654+910913714+912105643+914757413+919024958+923030690
1292+925594205+927107521+927172856+926331195+926862326+928758075+930308179
1279+931440200+932520489+932857824+933151333+934804233+936474890+936780194
1265+935640935+932709528+930183605+930753804+933711279+937088043+938840187
1252+938876775+939557542+940919881+941804631+943360900+945325201+946128264
1238+946905260+948298491+948754703+948188458+947760725+947939310+948449601
1225+948337290+947307930+947129412+949375093+952478184+954004231+953775991
1211+953068687+953899090+957000237+960220866+960694300+958508795+958074294
1198+961157214+963492556+963260563+962083712+960547746+960535282+962968394
1184+965062898+965980885+968000739+971314177+974028200+975291429+975956181
1171+977021928+977759923+977670932+978727030+981173678+981737376+980403249
1157+980677794+981736706+981485414+983355564+988896926+993853615+995654542
1144+994831644+993900992+995414575+998027277+1000433182+1002586455+1002512810
1130+1000508637+1000018315+1001282818+1001598843+1001638782+1003947722
1119+1007337017+1009238663+1008816961+1006481015+1003749033+1002494784
1107+1004639144+1009311437+1012147018+1010751442+1006252708+1002933238
1096+1004763584+1010251538+1015445915+1018444267+1018696899+1016445723
1084+1015883231+1020462311+1026876763+1031640861+1033286255+1032516631
1072+1033629085+1036760521+1038790493+1040028861+1042243315+1044593668
1061+1044141342+1041761303+1041018819+1040287257+1038383936+1039994686
1049+1044365696+1045981337+1044404629+1040943029+1039071404+1042818473
1038+1047701985+1048257710+1048227689+1049974069+1051521493+1053939929
1026+1055847740+1053243079+1047561597+1044124455+1045430036+1047583576
1015+1048467254+1051738676+1055268830+1053042582+1048080733+1047167772
1003+1049409298+1049487500+1047266345+1046003786+1045548243+1044584756
991+1043959273+1045366308+1048972251+1052764418+1054972439+1053409602
980+1048428856+1046744126+1051150854+1055861142+1056112568+1053435603
968+1050449447+1046846788+1044472445+1046331203+1049486495+1051468018
957+1054421405+1057289554+1057079005+1054566284+1052861182+1053564398
945+1055792724+1057788051+1057852248+1058292243+1061613992+1062365121
934+1058474179+1056054939+1056750247+1058120896+1058806019+1059747527
922+1062175345+1064023381+1064737922+1066832426+1069755926+1069683554
910+1065360591+1061906429+1064506398+1070221052+1071601349+1067017042
899+1061588527+1060114816+1063328743+1067445981+1069614667+1071911008
887+1073741823+1072537162+1070000383+1067043579+1062920979+1060165141
876+1061474005+1062386229+1056893249+1049601017+1046446194+1045859042
864+1044810182+1041988471+1039333619+1037760396+1033898939+1028542529
853+1023851338+1017744401+1012675268+1012625143+1012560277+1008197308
841+1003308568+999851658+998021112+998239703+996722970+991305445+984316104
827+976185896+969592055+969107698+971054174+970578930+971584635+975132144
814+974611935+968752136+963832906+962253853+959816721+955883227+954643653
800+954354566+951024375+947081499+944111024+940432776+936294831+932233480
787+929510209+930317762+931899429+930200760+927156573+925368243+923025128
773+918717711+915297255+913966948+911817227+908227635+904746936+900460092
760+895153671+891715525+889559773+886961947+887173234+888927588+885831199
746+878876838+874452017+874887926+876792319+877335579+878559875+880658868
733+880068968+878164843+877862220+876863418+874696340+874538596+876804582
719+877456333+873908422+869958376+869816380+872588166+874350227+874110126
706+873601511+872455417+869876087+866421053+864204656+864920939+864942048
692+862076646+860014241+859571967+860662508+863014603+862141915+860073278
679+861516298+862710037+860094989+854199205+847097352+843558755+847622050
665+852403973+853251331+850614840+843813532+839559255+843385263+849602032
652+854817719+857844617+853429849+845003250+838142839+832547600+828823583
638+826938891+828745917+837800679+848717818+848039865+831935787+815810265
625+815185251+826491658+830887932+823779109+817366601+813408380+808532775
611+802151695+796799037+799623628+805535898+802014523+794371353+802785689
##END=
