##TITLE=Sample description
##JCAMP-DX=4.24
##DATA TYPE=INFRARED SPECTRUM
##DATE=25/8/2023
##SAMPLING PROCEDURE=Instrument type and / or accessory
##ORIGIN=Default
##XUNITS=1/CM
##YUNITS=ABSORBANCE
##RESOLUTION=4
##FIRSTX=4397.6552
##LASTX=599.8556
##DELTAX=-1.9287962
##MAXY=1.8400178
##MINY=0.85567474
##XFACTOR=1
##YFACTOR=1.7136501e-009
##NPOINTS=1970
##FIRSTY=0.9203521
##XYDATA=(X++(Y..Y))
4398+537071188+539379165+541063358+540316269+538714302+538953917+539601911
4384+538836284+538090969+538683033+539800379+539812309+539110333+539756658
4371+541715491+542022931+539380696+537409132+539068977+541898480+542044357
4357+540248027+539893108+540585206+540025664+539470886+540750144+541513406
4344+540391573+540750422+542746542+542725359+541651213+543131964+546251482
4330+547712476+547081248+545656427+544425099+543254224+542143347+542278929
4317+542745672+542254372+542048288+542658925+543021669+542900627+543139233
4303+543268658+542184008+540695153+539688971+539305879+540096341+541049654
4290+540764891+540817586+542316181+543612968+544012721+544576263+545034833
4276+544556715+544280092+544819356+545484672+546193152+546738886+546713355
4263+546245012+546181639+546462923+546223725+546562261+548151707+548944708
4249+547938457+546490888+545744739+546337324+547167264+546022266+544417204
4236+544833652+546372315+547017526+545764947+543738149+542838958+543273493
4222+544329900+545033928+544889477+545338204+546756416+547099960+546261638
4209+545739452+546161430+547490113+548918238+550001706+550739890+550639961
4195+549637953+548946725+549442720+549948628+549428773+548336540+547442635
4182+547588512+548522521+549415799+550903993+552872287+553304874+551993583
4168+550863541+550600866+550775229+551100304+550859020+550371755+550663369
4155+550686952+549878577+549483416+549855064+550802151+551987183+552819488
4141+553004912+552445230+551901549+551639847+550522849+549576041+550562396
4128+551616508+550990358+549923237+549630058+549909881+549973985+550178505
4114+551335363+552750201+553550924+553884486+554216100+554771330+555100161
4101+554313351+552846548+552005096+551384684+550712830+551307294+553078790
4087+554563088+555393376+556331315+556848979+555259847+552942200+552639663
4074+554374186+556941743+558812508+559112366+558760648+558233522+557353183
4060+556835031+557004595+556867831+555932049+555217169+555555148+555739668
4047+554833451+554728478+556260567+557370296+557116524+556545747+556344880
4033+555915597+555222386+555480018+556319941+556394444+556326445+556451870
4020+556019074+556183942+558022324+559861820+559948080+559256330+559733473
4006+560927235+561273319+561101008+560759759+559744116+559290869+560185016
3993+560963200+561138990+560799341+559709717+558914907+559518866+560624630
3979+560905218+560974400+561106121+560730263+560867688+561504482+561069947
3966+560497431+561455126+562854625+563234761+562835565+562160023+561663785
3952+561858287+562220823+561629872+560815584+560516005+560458753+561774949
3939+564165187+564927336+562812121+559670343+559197687+561590290+563131492
3925+562755913+562708018+563879833+564670503+563367977+561661315+562442073
3912+564803893+566792987+567016394+563958615+559690726+558290670+558618353
3898+560471205+563669331+565227611+564221534+563706965+564737772+564649738
3885+563571836+563700774+564283203+565748232+567826403+568367963+567249609
3871+564922501+562959772+563156466+562556889+562232718+566245167+570322658
3858+569987461+565276237+558539606+560168634+567380703+571323761+571118650
3844+569118008+566610137+563134936+560451553+561513699+564089257+565901935
3831+566977994+567358860+567729500+568747090+567663727+563373925+562410699
3817+564305603+566608502+570203702+573701651+575512486+574638372+573016544
3804+571817982+569426875+569045835+570618272+571864625+573924466+575738709
3790+575442191+574131386+574136847+576016550+577543875+576444859+574894996
3777+576285556+578364875+578126199+575603893+573756329+574575556+576430111
3763+577349894+576278287+573509166+571814260+572250500+572088171+568562848
3750+565693728+566108507+565996960+567482963+572573488+576650318+576141279
3736+570642028+567421294+571260701+576554423+578767515+578153434+577583005
3723+577916393+578341119+578894470+579499264+579476934+577408502+574498374
3709+575387965+579461839+583454496+585250687+586150713+588544081+591283185
3696+593216523+593884064+591970900+587568230+586254364+589052389+591292020
3682+590669209+587231190+582789041+578142199+575645110+575744796+574724145
3669+575571337+579968442+582744450+582022370+580162458+578427657+575244175
3655+572245769+571046337+567004881+558838525+558063611+563635905+567413086
3642+567845534+566553407+565436827+563876668+560649568+557196837+553496003
3628+549851029+549690161+550638048+550158157+546998431+542270059+540063646
3615+540377069+540966141+539753353+537304994+536647575+537003049+535541011
3601+532821003+531315035+530627876+528875267+527151214+526483986+524550892
3588+521085082+520572947+522453034+523553127+523685230+523059567+521091308
3574+518614532+517578055+517044842+513597711+509167945+509672948+512607181
3561+514429320+515055888+514650918+512968777+511269629+510665078+510026789
3547+508752088+507900270+508041799+508348474+508104198+508006808+509007877
3534+509864008+508483464+506062549+505868359+507197668+507223824+506500144
3520+506270303+505846099+505049028+504454460+503874605+502870788+501457411
3507+500175406+499405674+499328735+500426221+502284116+503484800+503489252
3493+503488556+504264131+504627641+503700693+502685747+502982161+504659258
3480+506502440+507407127+507533804+507626986+508167259+508993059+509290378
3466+508559290+507133112+505567353+504870734+505397720+505793577+505599527
3453+505988462+507026609+507274537+506672108+507036731+508456995+509656914
3439+510644696+512030352+513871830+515616682+516325649+515625656+514333390
3426+513313365+512820570+512770449+512906169+513509398+514755508+515861723
3412+516649751+518030989+519991666+521585946+522247262+521939891+521719475
3399+522789691+524765116+526420404+527788947+529716198+531751204+533498805
3385+535490473+537738764+540102011+542491275+544569272+546665286+549601849
3372+552459422+553916138+555274664+558094011+562245101+566902656+570981503
3358+573753790+575628971+578266442+582675164+588145337+593923368+599053754
3345+602360365+605301902+609280020+612150949+613687003+616861860+621782786
3331+625548036+627038596+627919005+629719126+632885565+635747033+636029118
3318+635660008+637336792+640406188+643124353+644155996+644203717+644441767
3304+643714122+642260223+641828366+641979530+641954278+641222111+639148461
3291+636808936+635594826+635337716+633979955+630319677+626421419+623576855
3277+621265226+619915882+619723606+619776266+619474426+618473879+616273622
3264+614192738+614633498+616524680+616726348+614951408+612880263+611762987
3250+612068515+612868020+612875881+611721874+609543878+608046084+608346046
3237+608573522+607808034+606823139+605855775+604856271+604206330+605175642
3223+607550019+608987362+608143126+606393648+605676994+605600890+605545726
3210+606365822+607848034+607930815+606003878+604620239+604605352+604530987
3196+605165764+606701123+607314474+606864391+606591420+607238996+608304725
3183+608493940+607773600+606865365+605877201+605307884+605629064+605868435
3169+605650351+607014442+610274445+611916586+610605920+608819642+608426672
3156+609924744+612620927+615232310+616761408+616242735+614694507+614408666
3142+615475160+616543671+617452602+618565704+618997561+618788241+619454113
3129+620842134+622001705+622444553+621995653+621876211+622825906+623424161
3115+623023539+622867784+623305693+623773514+624237162+624482864+624412813
3102+624493438+624822896+625520767+626866493+628036291+628412217+628691310
3088+629071968+629512520+630122183+630259504+629600449+628793083+629150089
3075+631300468+633136137+632483274+630873341+630667987+631761263+632564177
3061+632522160+633131128+634576262+635247143+635851937+637236967+637837239
3047+636979508+636012492+636100352+636932622+638037724+639237574+639244808
3034+637578668+636056874+635932701+636460000+637041490+637847883+638408225
3020+638581510+638727805+638568502+638957994+641241937+644073214+644891084
3007+643532558+642272883+642993085+644787850+645811284+646375661+647351304
2993+648892993+650975060+652434385+652776156+653376080+654316454+654279515
2980+653815380+654649181+656720813+658859505+660076050+660203632+660673540
2966+661980867+662638391+662068935+661291204+661386646+662324237+662763120
2953+661866781+661146231+662154152+664008812+665634814+666749725+666695534
2939+665625701+664846161+665224035+666148339+666807950+667917505+669309909
2926+669295300+668383379+668117433+667669994+666086775+664628215+664156080
2912+663918517+663938065+664760596+666065975+667375527+668040912+667840914
2899+667924253+668949843+670120197+670859250+671243316+671226064+671067735
2885+671705016+673499781+675271034+675924593+675672421+674723422+673791048
2872+674122106+675111870+675912419+677093764+678398656+679181396+679540418
2858+679061119+677972295+677867043+678541680+677793583+675663447+674966758
2845+676490570+678202136+679284838+679966293+680176099+680269733+680301455
2831+680462566+681360644+682790752+683878046+683964515+683790603+684708647
2818+686414578+687599123+687800443+687403508+687363925+688402594+689414619
2804+689395975+689740320+691118880+691776613+691002499+690483478+691094602
2791+691830665+692290486+692820290+693595726+694979504+696446133+696948668
2777+696784634+696724948+696804321+696927520+697566540+698878875+699996429
2764+700473851+700777152+700972907+700635936+700299244+701282886+703199111
2750+704096772+703659350+703175668+703396327+704892382+707572634+709642458
2737+709601136+707981117+706889580+707905014+710102905+711306650+710984497
2723+710406833+710069584+709796404+710329686+711470823+711853010+711923340
2710+712619542+713230249+713776122+714392603+714137510+713820504+714692844
2696+716304932+717906239+718869012+719051202+719076453+719657039+720734037
2683+721383562+721438865+721715663+722318926+722691097+722645949+722433151
2669+722732209+723881694+725122308+725601121+725156464+724565931+724984153
2656+726240349+726886882+726353740+725745745+725733711+725989361+726749979
2642+728053341+729299450+730092903+729925879+728980775+728663491+729760802
2629+731507638+732543801+732338586+732041685+732758478+733445010+732936772
2615+732016711+731731844+732594723+734640059+736565884+737320173+737801003
2602+738692959+739206833+739082590+739129129+739571420+739616498+738827010
2588+738099435+738221868+738864784+740039312+741782321+742981961+742890832
2575+742569096+743266967+744263758+744653876+744765388+744685180+744703823
2561+745308687+746615526+748191998+748509004+747415588+747002862+748294327
2548+750076780+750912876+750802338+750425715+750049510+749784956+749985859
2534+750717469+751753842+752952161+753480295+753184784+753074942+752896648
2521+752531852+752898387+753889752+754872629+755379268+755365146+755535092
2507+756108304+756498352+756565552+756904262+757549681+757998790+758076355
2494+757900148+758375065+759633487+760385202+760881267+761800771+762386504
2480+762489251+762683545+763168897+763793864+764423493+765270720+766451508
2467+767770104+768428533+767827425+766832305+765970469+765459170+766145355
2453+767448786+768180396+767664714+766187720+766043651+767316404+767538454
2440+767042598+767253240+767733374+767946589+768596740+770107890+770961030
2426+770901135+771446451+772096184+772353851+772748839+772899029+772651448
2413+772195801+772262722+773660969+775212606+775687593+775817818+776056146
2399+775760844+775300536+775798409+777169179+778094457+777878598+777508584
2386+777362011+776530785+774844749+772584945+770066639+767616993+764875802
2372+762341565+761527869+761530930+760041970+756724994+753010108+751825771
2359+754073193+757426204+761072986+764807489+767449133+768844807+768962997
2345+766954947+763379260+760984013+760253446+759612966+760440853+763927846
2332+767008859+768333090+769487096+770632268+771548989+772793430+775072364
2318+777521453+779154898+780488033+781361695+782072783+783498022+785449307
2305+787789389+790152218+792036861+793452499+793857713+793013477+792101695
2291+792183920+793239562+794505846+795281142+795687678+796119256+796912709
2278+797908178+798294748+797867274+797317088+797686058+798996307+799867811
2264+799764299+799461067+799459676+799537867+799568684+800289790+801794262
2251+802394395+801765671+801616733+802383682+803354734+803750974+803508472
2237+803826034+804720356+805014057+805037500+805719511+806479086+806483678
2224+806345175+806656059+806715675+806676719+807684083+808842333+809148139
2210+809461457+809827437+810000026+810375188+811083285+811818374+811748740
2197+811010312+810484752+810220754+810224928+810844818+811862408+812229639
2183+811956320+812513184+813864893+815061821+816392312+817473415+817448024
2170+817273973+817816229+818426449+818608221+818311598+817709517+817385068
2156+817533519+818126626+819552699+821154075+821119362+819997634+820054259
2143+820456829+819322580+818014557+818208016+819261711+820399647+821856398
2129+823166855+823383897+823002474+822925884+823386332+824031960+824159333
2116+824040099+824476547+825627979+826389781+825718344+825346173+826473606
2102+827219407+826635483+825810308+825803212+826592561+827203408+827262190
2089+827404588+827958044+828275189+828024478+828006043+828419465+828953791
2075+830187170+831513070+831673834+831859015+832476817+832009900+831154952
2062+831172274+831601904+832059430+832556121+833316392+834040211+834020663
2048+833690510+833467417+833265610+833256984+833144011+833143385+834019203
2035+835141835+835528544+835230252+834965559+835770838+837362335+838044346
2021+837479482+836607073+836224329+837044565+838447473+839036198+839088093
2008+839492541+839700052+839249761+839041832+839652609+840764598+841940726
1994+842547398+842623711+843284713+844321642+844460841+844149192+844543970
1981+845487126+846053660+845718220+845328102+846031399+846919947+846227432
1967+844733116+845015618+846938730+848467411+849112691+849157143+848717217
1954+848462402+848936693+849497175+849763815+849849171+848921945+848035971
1940+848984484+850353097+851698892+853402180+854436883+854699698+854794236
1927+854498031+853104792+851442060+851292983+851990298+852825629+854420188
1913+856181910+857111918+856906981+856202153+856117632+857042702+858612773
1900+859788553+859254089+857761025+857755321+858308289+857211048+856620027
1886+857918241+859090751+859443444+859408800+859770188+861389720+864146285
1873+865710444+862679308+856915051+856323682+860500616+862938853+862682995
1859+862325503+862705047+863330293+863758602+863864688+863759506+863768271
1846+863812793+863495022+864368335+865968320+866474054+866494228+866340420
1832+864813757+862514370+862309085+863218085+863285772+865017511+868452748
1819+870338434+870172870+869900942+869693918+868753197+868286628+869626093
1805+871920819+872823001+870746639+868534556+869735727+871552683+869427138
1792+866136040+868142142+872061339+874171092+874793347+874160449+873079138
1778+873517881+874434951+872720463+868424644+867252899+870659196+875525236
1765+879037967+878927916+877026995+875942275+875186665+876054831+876762441
1751+873686575+869494129+869028116+870772934+871326807+869518407+869080359
1738+872541752+874284900+870678465+870197427+874955850+879856324+882497273
1724+882057068+880476214+879023080+875927667+872831140+874353978+877160003
1711+878635467+878857308+877460035+875426593+873682123+868360366+862054618
1697+863840758+869872630+875324403+878620441+879047776+877284523+872255702
1684+865375769+867074674+872691037+875543531+874461594+873027034+872290624
1670+868189376+865858477+869083142+870735787+869500390+870648205+873112042
1657+872267180+864801722+853109731+854260120+857430594+853934558+853586457
1643+859487130+863173216+862129818+855855444+848685148+852661387+860577207
1630+864016895+864081034+864531464+865111284+866196144+868872152+870606953
1616+870560693+873149815+877974256+881835784+884437289+886321166+887252149
1603+888920724+892388377+895622920+897866585+899902391+901585436+902851024
1589+903761554+904554381+905903446+908148433+910859642+911795285+907799150
1576+901850755+902968379+906158957+905726474+905316183+907459188+909092355
1562+907801445+900054599+891999929+899037287+907028305+912059491+915120122
1549+917878287+920402993+918338735+908899591+898583448+903129143+914481520
1535+918737757+916937079+917248589+920317498+920999161+918983598+916034061
1522+912711728+912312984+915074210+919989571+925788054+929295290+928359229
1508+922457999+922332018+932988332+938963370+938619513+934250859+930619799
1495+932765447+936289726+935584690+932259713+932988611+937492845+942354503
1481+944921156+944100920+940247879+934129330+928012380+927157571+931534364
1468+934549848+933775525+932831256+934010514+932113210+922880952+918985685
1454+928475819+936886173+940089690+940904499+943023435+945662575+946312447
1441+945414508+943023644+939989308+943147469+949663858+951972427+952297502
1427+954642105+955839589+953880095+951511631+950260096+950788021+951975836
1414+951225999+949624067+948908943+946225700+940162663+937153788+938934570
1400+938189812+933713264+929293481+926573855+926770375+926182207+921235124
1387+915873785+916147939+920551096+924500414+924668343+920870119+915943558
1373+914264548+916841775+920036110+921878527+921716372+919789225+919163353
1360+920163761+920933145+922036786+923188566+923037681+921728406+921035057
1346+921295228+920750538+917667993+912502061+910827712+915664465+921491539
1333+923659657+922808466+922599494+925463744+929240264+930006935+928148031
1319+926746514+926657054+927632349+929937857+933247321+937092432+940982968
1306+943957617+946865902+951724568+957100447+959925324+961757306+965411393
1292+968759604+970384492+972417029+974731720+976472294+977924593+978588169
1279+978547752+978621352+979130634+979911357+981306752+983248716+983949787
1265+983148751+982961971+984083977+985149428+985834778+987233095+988540491
1252+988531795+988303275+988437952+988471830+988692420+989607889+991586931
1238+992959161+992059135+992105047+995222304+998166415+999160005+999153605
1225+998806339+999255587+1000635887+1001242559+1000513383+1000624687+1003300348
1211+1006048147+1006621637+1007212797+1008149623+1006961112+1005120643
1200+1005898862+1008115258+1007431160+1003973593+1003603649+1007333213
1188+1009263073+1008495219+1009674964+1013111592+1015303710+1015743080
1177+1016922129+1018293246+1018104657+1018457558+1020541294+1023103287
1165+1025879260+1027644738+1026751321+1024612142+1024236424+1025475438
1153+1024701254+1022033245+1021100176+1021234644+1019941996+1019039117
1142+1022609935+1029628024+1032880514+1031378337+1030643944+1030403251
1130+1028532104+1027377819+1029192202+1031640595+1030619457+1027908945
1119+1029106150+1033032582+1032054226+1025937972+1022467815+1024564699
1107+1027920631+1027169265+1023170138+1021379129+1024164146+1029318740
1096+1033370318+1037168194+1043079650+1047440930+1046052769+1041808080
1084+1039305982+1040923567+1045718651+1047406147+1044681721+1044653130
1072+1049150896+1053702017+1056164532+1056641884+1054741102+1052241996
1061+1051637272+1053498401+1056711796+1057844307+1056144845+1054060622
1049+1052524776+1051940921+1053343342+1056518129+1058128409+1057376903
1038+1057050854+1057486119+1058409519+1060149398+1062186665+1063973152
1026+1065392478+1065423225+1062901232+1060705080+1061584375+1062862276
1015+1062879598+1064918604+1069100616+1069698593+1064745319+1059724776
1003+1058293625+1058634491+1059307458+1059351632+1058104339+1057869142
991+1057958741+1055124125+1051522351+1052039563+1056485433+1059052922
980+1056460460+1053750990+1056025542+1058450075+1055714241+1053333881
968+1055730867+1059154138+1060421674+1060496177+1060300423+1059172851
957+1057428798+1057270121+1059728811+1061422499+1059633507+1058384476
945+1059336397+1058318181+1056751240+1058917688+1061999397+1062040927
934+1060159902+1058637830+1059033513+1062294838+1065656197+1064857318
922+1062347220+1062465271+1063590756+1064954778+1067843932+1069183467
910+1066726378+1064149081+1065044446+1067481918+1066329095+1061254779
899+1057511232+1056660666+1056878056+1060151554+1067567970+1073741823
887+1072083613+1065369800+1063502131+1066392398+1065888473+1059968113
876+1051770627+1046128803+1044606731+1044864607+1045396288+1043613488
864+1039063202+1035101988+1033536786+1034019146+1034246831+1031098270
853+1026054284+1023960391+1023403597+1019635842+1014765072+1013358824
841+1014685490+1013813777+1008427672+1001051465+995127627+992722224+991797294
827+990324960+991559522+995448667+996147443+991531001+985777109+983109517
814+981125258+977751517+977350755+978493562+974784171+967925455+963864903
800+963673809+963251970+960589944+957520686+953958634+949723962+947145761
787+947723633+949813839+949136002+944424326+940147289+938887406+938330124
773+935177389+930137229+928332377+929051883+926491282+920621008+914798734
760+911162665+909171310+906164174+901970615+898621708+897060958+896198984
746+895185220+894324219+892935224+891691201+893494175+897465406+898339763
733+894133682+888557945+884936762+883607662+885293976+889452892+892219614
719+892594427+891909356+889171852+884814120+881272032+880427867+882148963
706+882376091+877448556+869339835+862457745+859801771+861367390+863628586
692+863151651+859723580+856535785+856287161+856463438+855474091+856216970
679+859380140+862980453+863325076+857756921+847788113+835578214+831423819
665+839854068+847068955+848859894+848411550+847152571+845687264+846617689
652+850393722+851447417+846120512+839360994+836539456+835435815+831304655
638+825484329+825886690+836288746+839480298+823810467+813335159+822233508
625+833032430+827506083+813517070+806094047+803733930+799157279+796799806
611+801671202+808136809+810258250+807870655+803267987+797382757+788825553
##END=
