##TITLE=Sample description
##JCAMP-DX=4.24
##DATA TYPE=INFRARED SPECTRUM
##DATE=25/8/2023
##SAMPLING PROCEDURE=Instrument type and / or accessory
##ORIGIN=Default
##XUNITS=1/CM
##YUNITS=ABSORBANCE
##RESOLUTION=4
##FIRSTX=4397.6552
##LASTX=599.8556
##DELTAX=-1.9287962
##MAXY=1.8675247
##MINY=0.93189228
##XFACTOR=1
##YFACTOR=1.739268e-009
##NPOINTS=1970
##FIRSTY=1.0025808
##XYDATA=(X++(Y..Y))
4398+576438357+576208886+573401456+570287687+569793789+572158210+574125135
4384+573145425+570622916+568798246+568005788+568048728+569133886+571444607
4371+573622018+573343951+571779048+571935353+573053547+573161772+573544602
4357+575379415+577069473+577036437+574710500+571831686+570900983+570573567
4344+570031828+570823019+572282302+573712353+575399018+576648432+576785238
4330+575931505+574857244+574265642+574854605+576660838+577845139+577248293
4317+576170161+575580580+574990314+574244566+573274760+572023906+571628568
4303+572296421+572737304+573175994+573912627+573448577+572235798+572745084
4290+574803989+575790929+574827909+574197170+575358442+576649392+576806485
4276+576748775+577846921+579404217+579512715+578872415+578221972+576841166
4263+576151997+576894285+577050419+576451860+576962756+578526289+578752334
4249+576528624+574972220+576374958+577935064+577749046+577316902+577632528
4236+578172760+577487841+575911834+575969613+577820122+578796747+578403191
4222+579080434+581339167+583131281+583140533+581794067+580586942+580426832
4209+580856235+581346844+581564527+580751780+579320461+578905383+579408124
4195+579873852+580688107+582168637+583566715+583383096+581573368+581326693
4182+583265208+583021480+580085778+578967275+580551781+581664458+580993726
4168+580219636+580504214+581117372+580725050+579519844+579370221+580652946
4155+582270625+584075487+585669931+586176441+586338126+586625446+585466984
4141+582839780+581784403+583627373+585476374+585223462+583943958+583364042
4128+585188027+588114955+588818175+587678425+586096181+584567329+584563354
4114+585794536+586190971+585815647+586147517+586450600+585526751+584783984
4101+585302488+586234357+586693026+586815438+587177672+586960263+586004474
4087+585621062+584983435+583982135+584449166+585810780+587246760+588629827
4074+588412487+586762251+585738197+586426337+587966909+588327429+588338053
4060+589639626+590159090+588722905+586738125+585128123+584722298+585547313
4047+586891860+588222837+588572048+588678216+590132017+591440581+590861350
4033+589928453+590637156+592108845+591718784+589820366+589309880+590566217
4020+591802814+592265322+592175740+592147639+593083757+593824605+592372038
4006+589719338+587996587+588117628+589120230+589644081+590727355+592558399
3993+593365662+593722138+594468675+594354213+593584236+593241330+592903771
3979+592646609+593673612+596191905+598299165+597965993+595555581+593148390
3966+592497467+593450446+594425426+595103217+596542556+597477029+596132344
3952+594533034+594033926+593634955+594243864+595922406+597117469+598415478
3939+600058791+600004781+597660099+594911511+593805757+594517955+595300681
3925+595181901+595130359+595471756+595633990+595886286+596538923+597885801
3912+599753377+600590455+598950295+594780805+591060527+591578209+593885194
3898+595017063+595036734+593636326+591961964+593765935+597709448+599403960
3885+599008005+598428843+597321923+597892175+599748716+599869689+598335834
3871+595777239+594524740+597104035+599398820+598898410+599108553+601017938
3858+602306078+600596898+594168881+592218235+597490326+602841649+605382286
3844+604518752+601663653+598405471+596707257+598927128+601973659+603135548
3831+602802444+601946860+601879417+602664336+600632881+594965658+594090471
3817+597570997+601411426+605538557+607907640+606290715+601632262+599325825
3804+599892513+600634183+602728078+604225058+604550212+606209152+608605034
3790+610454309+611345260+610937104+609914352+609107568+607763843+606811138
3777+608482279+611257391+612171303+609739027+606842187+606508055+607577346
3763+609265758+609863495+608611545+608623745+610443480+611113526+607511616
3750+602989284+602394289+601622598+600990385+604347128+608165761+608771791
3736+605615254+602830134+604155833+607550752+609796052+609887758+610122096
3723+611982818+613488297+613879934+614061497+613752587+611678227+609141975
3709+609335464+611017159+613117291+615423591+617507890+619425294+621021040
3696+622087727+622292456+620314531+616919611+617615634+621008909+622539542
3682+621940092+619417343+614571228+608572683+607586530+610329704+609373709
3669+606968849+608052670+610079533+611453964+612064243+611313457+608277344
3655+605113610+604142468+601695250+595464628+593175258+596060651+598861398
3642+599014242+597417125+596904515+596860307+594567715+590329960+585144846
3628+581401470+582324292+584188646+584079051+581605993+578503465+576842674
3615+575356660+573086652+571052387+570113013+570226858+570458215+570315138
3601+569956640+568718295+565336226+560918349+558679458+559068011+559082781
3588+556718051+555403387+556871683+558095155+557626753+556180492+554709283
3574+553403563+551938351+550020604+547618999+546662285+548739524+550908127
3561+550291131+547451077+544857217+543182787+542243345+542305133+542691801
3547+542394030+541398693+541063019+542046498+542643447+542140089+542042454
3534+542062434+540746810+538491367+537012960+537042775+537771629+538927760
3520+540012302+539717751+538291333+537556790+538354972+539251406+539002743
3507+538664773+538349043+536877868+535795691+536784894+537969915+537578826
3493+536634654+536309158+536408781+536857992+537490958+537320054+536842296
3480+536898567+536668616+536416629+537174406+538857884+540379436+540854760
3466+540846844+540615967+539974947+539730157+539966551+539952055+539755037
3453+539657608+539586600+539408054+539440268+540042288+540757536+541788719
3439+543170210+543670277+543482135+543401292+543500504+544190701+545292309
3426+546409715+547344326+547920918+548766186+549785615+550022797+549514745
3412+548776639+548577736+549842332+551849043+553107471+554328441+556948414
3399+560173834+562430579+563132531+562956418+563821494+565824402+567076318
3385+568119770+570575110+573766911+576310873+577493050+578046509+579858911
3372+583291938+587035589+589678351+590644216+591086983+592714532+596070453
3358+600581956+605216420+609164525+612910437+617590617+622480187+625974969
3345+628770438+633302366+639590767+644096033+646015494+648427208+651914451
3331+655412111+658577216+660609357+662028955+664437722+667612697+670555185
3318+672712273+673494108+673352230+673572243+674557642+675085262+674051680
3304+672761279+672294659+672465666+673287666+673267378+671021325+667936685
3291+666039363+666002626+666256566+664432650+661080294+658198945+655472221
3277+652821782+651696768+651746596+651362636+649753250+647573680+646289996
3264+645594933+644503640+643855527+644059022+644035444+643840037+643803710
3250+642776982+640484459+637819490+635993723+636153284+636955339+636665278
3237+636165622+636349788+636731898+636546429+635791873+635650544+636592831
3223+637067813+636229021+636026691+636741768+636050337+635125460+636411337
3210+637848551+637264522+636673228+636855065+635579331+633608945+633499007
3196+635087009+637382548+639268766+639416950+638917911+639104271+638404615
3183+636781658+636413736+637132034+637930867+638081518+637744644+638944161
3169+640929146+641008104+640358688+640878015+641150187+640611464+640890969
3156+642036957+643194870+644251208+645565186+647246813+648217818+648426043
3142+649214046+650223228+650011508+648596296+647245237+647053462+648142836
3129+649558802+650495948+651271478+652195944+652849130+653089225+653080726
3115+653093063+653682027+654262080+653760162+652825483+652392928+652236314
3102+652550021+653903548+655150494+654830824+653687304+653783260+656011082
3088+658357340+658478862+657565567+658134723+659901408+660795785+660688726
3075+660859870+661387422+661624981+661435400+660855758+660239995+660202366
3061+660541228+661175359+662378029+663540809+664041013+664212569+664731347
3047+664920929+663887415+663393311+664823602+666428739+666580623+665753415
3034+665555951+666891177+668247925+668497411+669181507+670472183+669892541
3020+667823457+667856288+669897064+670715705+669982396+669361288+669784248
3007+671147370+672472863+673284307+674003017+675148799+676581283+677431658
2993+677460445+677698895+679056739+680792581+681560229+681447686+681323903
2980+682264545+684858644+687330056+687847259+686941983+685640342+684993051
2966+685874200+687624847+688995645+689896602+690290570+689633683+689031286
2953+689655547+690576792+691185701+691814144+692234842+692339776+693209000
2939+695561084+697538118+697235514+696231816+696839902+698453743+699104392
2926+698475676+697513786+696509128+695006733+693095360+691866988+692242381
2912+694275755+696488292+696700492+695702962+695677670+695961631+695386170
2899+694925034+695302277+695846621+695984181+696003098+696711869+697733320
2885+698184724+698858745+700108434+701097122+701737491+702330429+702699106
2872+702125427+700768199+700541263+702342904+704593343+706208487+707337339
2858+707724590+707626646+706833160+704554070+702522273+702431731+702932827
2845+703275115+704353522+705619934+705846733+705442759+705521922+706202044
2831+707169005+708663861+710492643+711471325+711258165+711091545+711569611
2818+712097917+712386127+712477902+712720259+713410799+714220872+714998046
2804+715782486+716368091+716895026+717629088+718140328+718531005+719520653
2791+720378841+720229082+719721269+719479598+719682613+720791932+722476848
2777+723462110+723748264+724304534+725186232+725870191+725998498+725745175
2764+725503092+725047918+724839145+726264022+728108431+728064977+727391092
2750+727733586+728540507+729717063+731168327+731949751+732342622+733043511
2737+733324936+733012394+732813971+732588200+732131793+732327680+734063522
2723+736222804+737577838+738684484+739514297+739663851+739130816+738081195
2710+737702855+738463237+739365359+739744317+739944864+740836637+742297977
2696+743078647+742967543+743006337+743477686+744131077+744577752+743917164
2683+743335808+744679259+746473223+747067259+746710303+745942999+745915171
2669+746635732+746847451+747138472+748176372+748923800+749674038+750918860
2656+750979175+749780480+749167116+749399604+750295284+752264024+754536602
2642+755541261+755255038+754421592+753063131+751965122+751976225+752475676
2629+752843392+753403089+754990405+757552976+759239538+759115960+758631931
2615+758570177+758629121+759182101+760292791+761357079+761907043+761921573
2602+762251388+763403338+764455700+764740620+764698948+764310875+763179144
2588+762169551+762236926+762734046+763428081+765021840+766816146+767477625
2575+766766523+765793188+765733078+766056244+766401617+767357406+768090441
2561+767660215+767243356+767525672+767467413+767242876+768040612+769875700
2548+771345333+771235052+770741839+771258150+772018532+772265618+772279463
2534+772617365+773961502+775725993+775829009+774075209+772385289+772388236
2521+774434564+776226815+775960400+775547516+776179933+776641481+776929349
2507+777789868+778499598+778284109+777730375+778138941+779597334+780588147
2494+781084307+782266278+783231252+782809731+782102605+782030775+782288074
2480+782952020+783507399+782802946+781465389+781217686+782053188+782700753
2467+783062438+783821929+785217470+786777713+787562632+787725689+788356393
2453+789168043+788937269+788024454+787527746+787643852+788205742+788544398
2440+788074420+787047486+786340908+787200810+789347480+790563242+790194702
2426+790472358+791763033+791641237+790734317+791472492+793203194+794219230
2413+794291539+794375980+795355553+796612507+796882485+796073577+795272962
2399+795189755+795526971+796269053+797494889+798240124+797968021+797658494
2386+797744786+797208598+796395989+796427929+795203326+791328353+788186140
2372+786777370+783825836+779902816+777742027+775161910+771150748+770207981
2359+772725316+775442787+778807960+782695887+786311025+789725889+790797511
2345+788444673+785635564+784374772+784456540+785682445+787054614+787445223
2332+787410131+788425002+790469616+792716903+793803398+793529033+793723343
2318+795172346+797471860+799709277+801895975+804433871+806025231+806569712
2305+807354426+808529200+809936599+811098967+811000613+809829882+809169089
2291+810082041+812013633+813425692+813850982+814232613+814742892+814722193
2278+814532680+815063591+815527263+814946936+814715819+815573116+815860436
2264+815205811+814852625+814979355+815364138+816062012+816835210+817657964
2251+818618756+819516561+820071871+820168101+820205730+820930951+822232729
2237+823083310+823142048+822868369+822611070+822430536+822334991+822247328
2224+822220735+822726491+823293659+823215797+823064324+823165626+823612849
2210+824600784+825749924+826806741+827524148+827569933+827500708+827569590
2197+827218803+827094677+827634086+827991042+828411740+829518043+830782810
2183+831256764+830942920+831059575+831728044+831725646+831009129+830615162
2170+830945798+831469306+831359985+830824140+831049019+831978832+832329619
2156+832166083+832580818+833305080+833877045+834618236+835005692+834975535
2143+835518028+836249349+835816451+834591094+834452506+835797945+837329607
2129+837672580+836695612+836635640+838492249+839901910+839668326+839070315
2116+839241665+839897455+839608970+838449960+838217473+839378608+840771682
2102+841181345+840715136+840597110+840928501+841083195+841523427+842938914
2089+844322529+843568659+841337958+840241525+840354890+840440702+840500812
2075+841310679+843296487+845832532+847507374+846883386+845108614+845196276
2062+846563579+846696615+846152819+846177082+846173381+846023210+846551790
2048+847617038+848382903+848379339+847634995+846878794+846768651+846819850
2035+846812105+847344797+848022451+848149319+848278242+848940544+849793866
2021+850506886+850399759+849081599+848719914+850396948+851465212+851030189
2008+850963842+851452395+851600784+851786390+852490569+853229498+853314145
1994+852634571+852073640+852785496+854692414+856908995+858518998+858964096
1981+858520574+857492749+856302965+856103514+857196794+858713925+859935923
1967+860278075+859600283+858927016+859590208+861406173+862447295+861906309
1954+861147983+861153741+861341060+861148258+860560117+859711318+859954772
1940+861948050+863362577+863063400+862559015+862917616+863883960+864695336
1927+864714595+863827140+862508501+861896645+861991093+862529200+864344343
1913+866031110+865597458+864535295+864927001+865816717+866152220+866881348
1900+868308281+869013762+868791281+868660850+868142757+866903692+867009860
1886+868999643+870523011+870615814+870538090+871357964+872785377+874110870
1873+874432734+872611148+869663932+869283741+871566531+873645964+874221357
1859+873880850+873612105+873492023+874114023+875804492+876284203+874277628
1846+871901280+871866393+874292021+876344107+877018539+877412987+878043691
1832+877351027+874510390+873118755+874587977+876233963+878027447+880049512
1819+880755267+880701464+881803037+882637168+881245739+879985153+880536625
1805+881122025+880582067+879511748+879539712+881063012+882284325+880921408
1792+877994411+878981660+882896660+885310979+885731746+885759161+885174105
1778+884255738+883847377+882669999+879744920+878377069+879703385+881876649
1765+883715232+883256084+882271919+884115026+886296789+886987465+885926605
1751+881885696+878057056+879584811+883861497+886460942+886213376+885183358
1738+885241274+884232914+880991182+881127165+884093093+886487672+887824543
1724+887402543+886680064+886700283+883929762+878834093+880581930+886466288
1711+890316655+890218917+886600420+882294674+879627169+875816829+871672220
1697+873167830+878894751+884734901+887650384+887574715+886737569+883446693
1684+876063984+875832730+881188028+885162384+885184317+882795632+880521272
1670+877029437+876224710+880103590+881899130+879326621+877606064+878375493
1657+878464183+874659327+867410270+868404579+869855227+865950781+865883475
1643+870853579+872391478+868822947+861547091+855452933+859812277+867512806
1630+871100665+871200528+871096964+870885519+872217523+875590305+876926353
1616+877422514+882340390+888119951+891672992+893691561+895442276+897179969
1603+898952685+900866183+901973925+901610184+901165359+902357748+904737592
1589+907208661+909765475+911959506+913137639+913967246+914660733+913662518
1576+912236407+914836401+917568676+916625635+915752231+917982726+920199376
1562+919774291+912643946+900899493+903463846+910179799+914772659+918096845
1549+921370791+923543781+920729806+911935586+904772136+911937162+922374421
1535+925282091+923525618+923967084+926729722+928740135+929883929+928922314
1522+925567833+924586342+925810191+929393115+935530111+938671981+935755402
1508+927504360+923795460+931947666+939361973+942845240+942159704+940915841
1495+943813778+946094649+942235714+936421336+938532914+943863812+946690261
1481+947553110+947485050+945329881+940037845+934294405+933670554+937583841
1468+940728110+940226329+937373355+935681242+933602906+928701616+926317660
1454+930907093+936583227+939986920+941213510+943107474+945312746+947036388
1441+948968734+949055505+947415345+949543715+952601898+951740831+951373525
1427+955434584+959350133+959512093+955318066+947471068+944225977+948196083
1414+950563726+949034395+947383200+946735155+945076831+944021728+944321247
1400+940454293+932034301+926304158+924947204+925888943+926732738+924612867
1387+921025556+920237278+921650983+923491896+924748370+924160777+922202318
1373+921626856+922829047+923292445+922603825+921163527+919112881+918590332
1360+919870521+920088615+918026797+915920977+917018780+920282446+922025827
1346+921219044+919877718+918827755+916992872+915929201+918049210+922073874
1333+925483255+926788118+926425885+925656456+925824447+927583113+929784547
1319+931315249+932962743+935156020+936997551+939312624+942460251+944622891
1306+945911853+948010066+951018831+954207171+958230122+962422229+964352313
1292+965704606+968910355+972233445+974914315+977541656+978752551+979669410
1279+982156175+983787699+984067205+984580501+984139994+983462751+985140472
1265+987218191+985903801+983129510+983076186+985653150+988311745+989276033
1252+989124012+989760953+991919138+994440105+995398842+994789522+994895896
1238+996489243+997867924+998282453+998225017+998438519+999411923+999843656
1225+999609866+1001296565+1003933296+1003044264+999902257+999301162+1001028780
1211+1002392587+1002643100+1002959275+1005108276+1009147607+1012361718
1200+1012326695+1010083177+1008067007+1007296001+1006694289+1005393470
1188+1004471129+1005567630+1009076874+1012546297+1013958219+1014044785
1177+1014449170+1016734154+1019035039+1018401182+1016446766+1015946836
1165+1017001323+1019035862+1020466564+1019340316+1018852518+1021730920
1153+1023825363+1022874029+1022484517+1024772242+1028310890+1031495597
1142+1032942406+1032302244+1030521165+1028239334+1026571415+1025954898
1130+1026272307+1027515415+1028568531+1029500537+1030727128+1030870445
1119+1029960988+1029557905+1029210956+1028532274+1028742417+1030952487
1107+1035933900+1040294341+1039024159+1034751518+1031953238+1030067911
1096+1030052009+1033954947+1038155690+1040496877+1043928328+1047327771
1084+1047875542+1047595968+1048064095+1046162798+1041722370+1040136836
1072+1043026205+1046968896+1048416870+1047819750+1049270261+1052746811
1061+1056327405+1060813000+1063925810+1061745692+1055874699+1053862504
1049+1058886823+1064035816+1065416210+1064817582+1062545416+1061024378
1038+1061903196+1064476733+1066704966+1065788176+1065242187+1067978164
1026+1069429977+1068401946+1066776385+1064141710+1062770501+1064372004
1015+1066597153+1068382207+1070583983+1071182542+1066771450+1060618484
1003+1057660507+1057181070+1058434254+1060319924+1060190110+1059718486
991+1060962075+1060641239+1057393338+1055860374+1057954954+1060665091
980+1060797785+1056806773+1051082456+1048402888+1050810010+1055352288
968+1057094778+1056025693+1056753107+1059950083+1060739389+1057740904
957+1054974838+1055208217+1058863040+1063695173+1064423478+1059100873
945+1054584778+1058222740+1066125256+1069560202+1067870145+1065087356
934+1064473032+1065879129+1064887562+1060922596+1058838160+1060844872
922+1063985028+1064933141+1063465427+1061836439+1062988595+1066587352
910+1070484532+1073741823+1073483770+1070299474+1069504754+1069389538
899+1064848083+1058746179+1057387855+1062513887+1068401672+1067829090
887+1064564396+1065266793+1066851573+1066936768+1067389612+1064586740
876+1056928637+1051593216+1052494242+1055376345+1056288132+1055272096
864+1052655585+1049207204+1045890146+1043083916+1041960821+1039760072
853+1033798881+1030499986+1032284012+1030787169+1023180677+1017202830
841+1016692071+1017119623+1016080283+1014062331+1010027043+1004874966+998897119
827+992481509+989678706+991702758+995096512+997156274+997739617+998059699
814+995914605+987054106+976605812+973049001+975079908+975680592+971000549
800+965236753+964356563+965990280+963041350+953305529+944180877+942808160
787+945146057+945830633+945975664+946888410+948837617+948837137+943825018
773+938096931+935001394+933282619+932075630+929670496+925391275+920952081
760+916862167+912410704+907530799+904469463+905191120+907039368+905885156
746+901536846+898052825+898199157+899312177+898497169+897288947+898145833
733+899960770+900363511+900202031+900067830+898572837+895265854+890639341
719+886920982+886506726+888293288+889099523+887819060+885605632+883546830
706+882682473+883858138+885209197+882384804+874548429+866958113+865106370
692+867965718+870929042+872944252+872787227+870362353+868981343+867039195
679+864587522+865707053+866742966+864390127+860249768+854192072+853279395
665+858506249+859760050+859314061+860665805+860498979+857894188+856063966
652+855864378+855797963+855725996+855238129+851366446+841192311+832181847
638+832007070+844963652+887856894+937893231+917706853+857251694+817667285
625+804420095+809244620+817962692+820137464+819782153+822374813+819750213
611+808072587+802928460+811326314+820709224+821089621+819721290+822573030
##END=
