##TITLE=Sample description
##JCAMP-DX=4.24
##DATA TYPE=INFRARED SPECTRUM
##DATE=25/8/2023
##SAMPLING PROCEDURE=Instrument type and / or accessory
##ORIGIN=Default
##XUNITS=1/CM
##YUNITS=ABSORBANCE
##RESOLUTION=4
##FIRSTX=4397.6552
##LASTX=599.8556
##DELTAX=-1.9287962
##MAXY=1.8010179
##MINY=0.088504992
##XFACTOR=1
##YFACTOR=1.6773286e-009
##NPOINTS=1970
##FIRSTY=0.093076117
##XYDATA=(X++(Y..Y))
4398+55490687+55182364+54730064+54670680+55053783+55582391+55940224+55927907
4382+55470707+55020287+55173293+55703673+56028139+56125955+56313817+56727646
4367+57141154+57422515+57729817+57963920+57973301+57926181+58051790+58165850
4351+57844911+57361780+57222566+57214002+57076253+56984247+56950364+56774646
4336+56540365+56456017+56489665+56535372+56588386+56691661+56849483+56834989
4321+56580706+56567438+56902773+57059742+56863093+56517671+56163165+56056056
4305+56310712+56536123+56641392+57046723+57713901+58128933+58103956+58080467
4290+58413963+58679830+58540700+58467226+58822230+59400059+59834173+59824374
4274+59632585+59680931+59660529+59292342+58954537+59081403+59629538+60017527
4259+59940073+59905702+60246327+60562828+60471351+60108920+59989934+60458096
4243+61220278+61546489+61219692+60988623+61176903+61163963+60919315+61059849
4228+61596488+62061838+62299757+62396182+62468204+62644451+62769185+62808975
4212+63121003+63538052+63560679+63414642+63593705+64004362+64293070+64443918
4197+64557342+64478103+64187432+64014520+64121966+64390161+64681974+64775703
4182+64628942+64599865+64684053+64615789+64624344+64793462+64828269+64679753
4166+64552510+64616798+64771781+64953865+65301517+65644270+65652581+65418220
4151+65276971+65321319+65437076+65445720+65249093+65099285+65259936+65583980
4135+65821259+65962543+66118673+66255000+66194190+66016788+66100203+66393535
4120+66449663+66275451+66213321+66387410+66684859+66815892+66621411+66461390
4104+66713692+67175075+67471406+67597890+67753544+67810787+67576049+67407948
4089+67587793+67790616+67784460+67777042+67917958+68095502+68278758+68487773
4074+68653457+68800969+68987584+69190420+69302859+69219515+69058561+69032754
4058+69079781+69105277+69278717+69536140+69632028+69541693+69289142+69215562
4043+69703832+70328945+70438030+70063975+69704578+69648690+69788304+69761995
4027+69413916+69271681+69624535+69850265+69713791+69599860+69600828+69693185
4012+69773593+69618418+69493649+69803984+70183210+70207760+70140874+70140003
3996+70169125+70302116+70404605+70416940+70476582+70539844+70503815+70489792
3981+70592076+70630735+70486327+70390892+70577520+70845311+71029038+71239355
3966+71226451+70748748+70377220+70557536+70937930+71216310+71053220+70021861
3950+68622173+68383787+69069506+68791730+68494467+69929082+71545400+71531323
3935+69605372+67152955+66931680+68528066+68661346+67468283+67631555+68295091
3919+67628228+67417680+69473020+71899355+72938932+72441671+69602201+64255344
3904+59711736+59142236+61677318+65933937+68938558+68279700+66185022+66909359
3888+67952645+66398857+64826386+64344174+64870401+67666184+68872280+66362184
3873+62743306+60564387+61747278+63798536+63222346+63625292+67128408+68831188
3858+66010832+58981513+52765446+58140620+66933177+71587478+71602008+68142422
3842+63293044+58739250+57594684+61423221+65615237+68280282+70103584+70555755
3827+69984469+68428407+64054560+60321769+62382963+65753688+70189504+75363676
3811+77431111+75308783+71491697+69383125+67013354+65069439+67721828+71541313
3796+75400118+79441557+81694176+82086123+81187325+79682354+79150468+79144196
3780+78656072+79972847+83145569+84560591+82854960+79868346+78892827+79954431
3765+81591132+82483081+80723383+78232276+78303018+77896812+73229056+66871669
3750+67398238+71173259+72894734+75935255+80042124+80963647+77285274+71700432
3734+72748079+81123406+88288989+90607429+89703203+89068806+90614740+93995087
3719+97821287+99760031+97921107+92855882+91230881+97584399+104634386+107819536
3703+108188740+109773071+113635376+116787798+118061433+116835078+113080658
3690+112042730+119736788+129257146+135182631+137769737+137540311+134975984
3676+133739314+140112332+147143432+152308911+162620946+174596610+183452757
3663+190117770+195580477+199608546+203680501+209434598+212865458+211738611
3649+213546175+227886990+244607010+257023900+266461408+274666439+281979743
3636+288407095+294211706+298150048+300810339+309766945+323904764+334798586
3622+340791179+343890049+349178294+357058283+364670511+373063241+381819960
3609+389517936+398239191+407154931+413319410+417732345+422974927+428606516
3595+434140098+441226082+447823631+450440818+451311508+457131790+466119276
3582+472921154+477049593+480352543+483882352+487964594+491901390+493115282
3568+490251017+489281787+494594019+500917021+505955132+511228559+515896994
3555+517678458+517933851+519172084+520272476+519839476+520761763+524969873
3541+529578395+531851208+532448772+534384566+536633464+536336245+534642127
3528+533927794+535016209+537470395+540704157+544096372+546648245+546995710
3514+546073601+546178573+546624614+546831679+547617403+547931572+547432654
3501+547831078+548545732+548694696+549638376+550531347+549725047+548473417
3487+548355866+548713175+548399183+548333798+549305160+549782828+548952577
3474+548992590+550554800+551133815+550055633+548856631+548907412+549443855
3460+548645053+547194638+546641351+546765370+546976735+547346445+547367802
3447+547100291+546939316+546270432+546248684+547672306+547869847+545730577
3433+543753704+543262533+543968658+545525075+546992264+547441041+546402624
3420+545356069+546364814+548252209+548920098+548661364+549247557+551464757
3406+553487933+553408937+552614116+552286869+551729780+551329828+551097427
3393+550663148+550873340+552137514+553450087+553678225+554072882+556081204
3379+558177796+559607245+561732017+563620407+563651998+563700895+565765328
3366+568875960+571269913+572857282+574369884+575742548+577272420+579447972
3352+582025715+584335164+585618705+586535875+587694012+588720027+590446908
3339+593343332+596574643+598714304+598465911+597828689+599938714+603727505
3325+605766103+605825732+606405741+608097656+609342250+609952536+611014691
3312+611879908+612291835+613847435+616083184+617371842+617532747+616984364
3298+616132294+614641369+612706463+611790288+611344886+609698812+608382295
3285+609413178+611154345+611065364+609412326+608044566+608421810+610378890
3271+611194571+609546579+607619633+606939413+607521057+608665512+609003668
3258+609007079+609911386+610345771+608657055+605747625+602866338+600400177
3244+599012304+598988780+599709723+600379780+600202600+598974566+597531329
3231+597254650+598223702+598670951+597834233+596150456+593510527+590645445
3217+589782999+591474523+592889260+592358645+591438738+590618154+589600915
3204+589082951+588385674+587212328+587500983+588718819+588079678+585710884
3190+583897510+583288752+582680136+581428186+579327578+576329878+573940012
3177+573540309+574236662+574323652+572937201+570173679+567529663+566429770
3163+566043393+565372732+564881241+564390958+563183001+561237435+558560655
3150+555843472+554127784+553152655+552426844+551709560+550485790+549068281
3136+547946426+546656773+545281835+543906222+541860588+539983534+539134947
3123+538270653+537079718+536193179+534935117+532835753+531141103+529863958
3109+527996605+526364426+525397471+524148470+522877651+522250095+521680924
3096+520523996+518797150+517185688+516577854+516296413+514878264+512647454
3082+510967373+510382530+510156738+509175640+507824901+507011708+506132241
3069+504380342+501903805+499230650+496924328+495113405+493286562+491222592
3055+489421477+487928170+486494705+485113300+483320927+481126292+479419773
3042+478171945+476530562+474708482+473098441+471089053+468812793+467079729
3028+465791320+464595836+463625042+462922542+462272918+461605740+460671868
3015+459221417+457936775+457789409+458455273+458864641+458994310+459365975
3001+460163356+461618852+463815441+466798039+470911127+476086262+481075939
2988+484353196+485536350+484791135+482491849+479533628+476204418+472245767
2974+468147321+464789326+462235215+459933263+457627083+455431311+453872015
2961+453300676+452972258+452392532+452165851+452396086+452416270+452113294
2947+451967812+451991408+451694900+450869624+449560072+447623069+444991242
2934+442268266+440168902+438405313+436010507+432780440+429612312+426819367
2920+423521818+419311221+414889509+411045247+407864077+404913816+401957515
2907+399239834+397060409+395352965+393618728+391559484+389894718+389182872
2893+388721338+387990053+387393271+387213923+387064070+386595748+386261146
2880+386508651+386875128+386936320+386949575+386898653+386670906+386722112
2866+387081127+386898084+385516856+383205808+380591464+377687044+374023373
2853+369464956+364232928+358798916+353794315+349289271+345225436+341847897
2839+338775039+335402120+331938301+328899451+326363107+324117053+321978138
2826+319931722+318172255+316763949+315499952+314202126+312919296+311830312
2812+310926112+310080901+309219415+308225204+307180817+306335322+305583782
2799+304549594+303035108+301152084+299243190+297503409+295745754+293796421
2785+291793998+289873484+287907182+285902094+284147851+282624303+281058344
2772+279555621+278334214+277265200+276138460+274955129+273926093+273154831
2758+272452473+271734728+271060709+270304319+269288431+268081718+266991241
2745+266122897+265232769+264249307+263350776+262602896+261968109+261387637
2731+260756101+260051752+259401311+258861261+258345499+257813889+257303155
2718+256814116+256297733+255691907+254922990+254068149+253368012+252757832
2704+251938100+251011389+250198089+249428977+248696396+247889847+246827053
2691+245780551+244954263+244140714+243207873+242198897+241230289+240351213
2677+239476721+238597502+237733493+236779703+235762074+234860256+234074833
2664+233304424+232521827+231754883+231027649+230328987+229699831+229182950
2650+228675273+228059017+227493524+227135539+226777786+226316838+225922963
2637+225683507+225601935+225600798+225515780+225311486+225112541+225002772
2623+225010750+225188107+225479072+225670483+225652538+225604156+225702750
2610+225882204+226041651+226109364+226001674+225762485+225542520+225414521
2596+225251503+224975054+224761930+224568991+224080947+223293037+222425438
2583+221568554+220735194+219960628+219245299+218519754+217749132+216976893
2569+216240669+215473672+214636829+213843021+213121349+212424001+211811991
2556+211317498+210903971+210544974+210222312+209977580+209730519+209247788
2542+208686825+208460020+208493477+208442021+208259707+208118364+208147894
2529+208305103+208441009+208505843+208513359+208518956+208621493+208737215
2515+208792472+208958138+209255037+209432341+209379447+209250489+209174443
2502+209155822+209196031+209244981+209155662+208845242+208406770+207972367
2488+207582507+207155922+206610204+206041637+205551620+205112402+204649286
2475+204120963+203601061+203110601+202587998+202090378+201653700+201114663
2461+200393062+199714654+199259801+198916031+198489285+197954459+197461298
2448+197047487+196584034+196037232+195510436+195082287+194733382+194392686
2434+193978965+193469830+192984896+192692457+192605963+192557155+192409523
2421+192178987+191937666+191723671+191503049+191275409+191126515+191018239
2407+190863979+190723916+190663897+190653965+190627153+190606383+190654924
2394+190722673+190726990+190598299+190234913+189484617+188265627+186651961
2380+184711778+182464729+179897719+177109500+174413247+171941738+169663168
2367+167670038+166118737+165164610+164695364+164644495+165505875+167502523
2353+170388696+173491403+175121095+174156840+171666409+170004984+169802592
2340+170229426+170842466+171396322+171638762+171687730+172104064+173069953
2326+174076566+174779440+175523428+176729537+178153762+179215562+179774357
2313+180158051+180649169+181333404+182151786+182845474+183228457+183456311
2299+183750207+184119456+184491814+184812593+185058498+185296124+185491462
2286+185537960+185506653+185453510+185355610+185223667+185056312+184932240
2272+184873234+184726792+184510346+184371171+184265435+184156555+184066863
2259+183890874+183633419+183430938+183290413+183137984+182973650+182905937
2245+182942361+182936143+182846824+182743576+182678351+182648412+182611810
2232+182566698+182523220+182453660+182348386+182293253+182328753+182304109
2218+182176377+182101041+182104293+182105412+182102445+182145745+182224456
2205+182245529+182204290+182227317+182340515+182413682+182378804+182270848
2191+182116659+181965332+181878305+181826335+181705638+181482422+181275162
2178+181197090+181168289+181024050+180740566+180461595+180313554+180264160
2164+180228234+180152259+180018326+179877872+179753036+179643160+179607181
2151+179632002+179632873+179616171+179628857+179666116+179690298+179626690
2137+179495972+179432346+179424013+179375027+179314102+179298591+179327801
2124+179394625+179455693+179424315+179313800+179265614+179372131+179543163
2110+179666294+179765527+179869770+179968416+180074383+180209382+180367337
2097+180568823+180842216+181050667+181138226+181308672+181645477+182036651
2083+182389785+182663532+182840463+182931843+183011158+183157297+183348372
2070+183427314+183223784+182977115+183170161+183626454+183861202+183896382
2056+183917010+183975039+184026530+183976852+183841018+183711811+183583990
2043+183477028+183608314+183953843+184193920+184230451+184200352+184265897
2029+184422324+184538046+184559456+184536269+184420992+184051601+183805624
2016+184254775+184996737+185402144+185536574+185671289+185899214+186139451
2002+186295594+186460656+186742914+186809614+186194158+185550469+185955822
1989+187017603+188012685+188801590+189318951+189709415+190133157+190564842
1975+190960405+191325550+191396265+190863411+190540518+191387541+192554952
1962+193079598+193215539+193199032+193067978+193038305+193054918+192815622
1948+192158892+190937573+189311950+188833537+190264141+191663545+191957779
1935+191807908+191821962+192011686+192116640+191604094+190097177+188882984
1921+188888510+189039749+189716184+191270647+192008132+191433080+190979470
1908+191719123+192848351+193455509+193730252+193828436+193412867+192794141
1894+192733287+192503763+191887827+192570374+194122332+195097550+195724164
1881+196231522+196614399+196943368+196983843+195801205+192545002+189663396
1867+191410746+195492242+197893018+198533314+198838243+199469904+200136780
1854+200511662+200456297+199565690+197574833+195201207+195386826+198989607
1840+201865882+202835716+203616963+204071160+202303413+199629831+199861611
1827+201870875+204051793+206910514+209111243+210018801+210527846+210656289
1813+209721884+208893286+209967061+211865845+212550098+211389244+209803563
1800+210089108+211408948+211097640+209084982+209556040+214369532+218343889
1786+219593689+219754131+219769873+220482804+222067205+221948304+218850980
1773+216322347+219237765+224968125+229878042+232178785+232275530+233412345
1759+235744662+238078986+240509630+240511478+237477762+236475644+240635638
1746+246033297+250073804+253277254+257209928+260588977+260634072+261124923
1732+268133511+276941241+284811902+290430040+293865093+296198512+295759009
1719+292179664+293469584+303944496+314598666+321627154+324794607+325839279
1705+328370185+331809343+333968691+337681933+345661954+359379601+373146074
1692+381047775+386211397+389895607+391446730+399017417+415341662+429110800
1678+438826763+446676902+454846007+461291251+467300404+478598904+489128558
1665+493646785+496183484+500841757+504371281+502896630+495874326+492136244
1651+499162386+501692405+502404215+511570872+521733374+526355151+525684384
1638+520975260+520507223+530459604+539179899+543319674+546371637+550080615
1624+554351409+561585149+568869563+572483910+577364848+586890910+594792788
1611+599224807+602209430+605222482+607116308+606998828+605854800+603867230
1597+600374734+596103301+592369483+588993757+585281687+581026422+576025090
1584+570722702+565302727+558329817+548198124+539693031+538695089+537236927
1570+532332145+530177417+531468704+532045871+529620256+521138510+515140267
1557+525540075+535217553+540107517+541385479+541303392+539567413+533996910
1543+526511543+525941767+545579942+565762485+576398248+587940663+603634970
1530+615059905+621325162+625651249+627646565+628284285+630851651+632360913
1516+632646760+632814416+628960596+618645078+603799144+601193045+615768482
1503+624943880+627222627+626916241+630310872+638179276+642992341+643713142
1489+648635159+662680194+677620368+688699045+696850098+702859926+705726927
1476+705326514+706209712+716246348+729715282+738113378+743234251+750077243
1462+756457280+757165004+753177712+757474518+770895480+781152648+787047484
1449+791198168+796750583+803608714+810402454+815946697+816977296+814265301
1435+816853704+824138687+829383792+833423108+837814011+838714764+836015562
1422+832440055+827768421+827738216+834407440+840473059+843878351+846074229
1408+846523042+844248630+841408139+838803958+833903760+828012265+824140250
1395+822910439+825208020+827618959+825682631+820676609+819014260+821708488
1381+824321836+823144049+817798521+811691752+809929051+812233881+814276601
1368+815201376+814807928+811560058+808622270+809848670+811953151+811651668
1354+809819175+809187284+809954210+809926919+808822406+808055053+806206783
1341+801653766+798658766+800074286+802194829+803341985+804196755+804413805
1327+804069467+804029312+804080483+803609851+803006104+803081226+804056745
1314+805671832+807431334+808875069+810433299+812831374+815794889+818556563
1300+821001616+822926856+823524847+822880802+821455902+819284756+816788603
1287+814393868+812000342+809115857+806029674+804037201+803436083+803111715
1273+802139180+800785706+799277794+796771691+793271022+790070769+788018455
1260+787633605+788507351+788914161+788536917+788604079+789547688+791079692
1246+793159725+795590137+797451200+798757839+800795585+803604947+806420848
1233+808998022+811593603+815408121+820542498+824833263+827372556+829450030
1219+831403912+832810618+834258191+836442769+839147302+841603371+843474170
1205+845030481+846431787+847621585+848713661+849942264+851458775+853394676
1192+855678895+857709463+858870477+859650552+861241403+864850669+870219722
1178+874120023+875411666+877057242+880324941+883878202+886642790+889097438
1165+891925634+894596195+897053045+900233185+904186931+907911900+911325863
1151+914883105+918046827+920953059+924588550+927931157+929634799+931010021
1138+933645188+937548261+941421911+945203310+950105782+954004449+954506636
1124+954218301+956820421+960979989+963268543+965090091+969103395+974054977
1111+977013731+978673947+980993418+982012930+981029309+980108514+980126424
1097+980547377+981494752+983676843+985631577+987491361+992148070+998842240
1084+1003776126+1006077189+1007163792+1008065824+1010012030+1012422614
1072+1012893175+1012082255+1013863150+1017935230+1020719718+1022719227
1061+1024143559+1024120674+1024275964+1024846451+1025590847+1027660575
1049+1030401638+1031820711+1031835139+1031789440+1033595352+1037532752
1038+1040526757+1041260280+1041583226+1042200477+1042993700+1044903091
1026+1046677377+1046404180+1046139370+1046274547+1045365692+1045341456
1015+1047585805+1048444981+1044600116+1039882996+1038085400+1038512323
1003+1039209884+1038473305+1037540073+1036877976+1035846452+1036813941
991+1039532617+1040934846+1040323423+1037925845+1035352652+1035859103
980+1039107400+1040948847+1040271115+1040051150+1041429784+1042763927
968+1043945837+1045453891+1045937102+1046221172+1048222103+1049890635
957+1049845860+1050304907+1052128872+1054487289+1055347034+1053220450
945+1051668830+1053528613+1055839200+1056209053+1057020967+1060112979
934+1061718826+1060304018+1060100968+1060448434+1058608550+1056335630
922+1055317184+1057318186+1061634607+1063467668+1063124183+1065551468
910+1070822656+1073741823+1071494774+1067717212+1067189510+1069642737
899+1071374095+1071147308+1070067101+1069585240+1070346197+1070015006
887+1067926729+1067413242+1069471740+1070618114+1067742727+1063120416
876+1061129791+1061167813+1059274626+1055557830+1051747221+1045545217
864+1037711282+1033624136+1033990506+1034864252+1033145544+1028557134
853+1022821782+1017816257+1014347286+1010593604+1004765149+999076206+995532112
839+991470480+984756979+978522922+974617859+970612728+965515451+960542547
826+956290587+952566187+949322794+946114511+943377001+943683316+945510692
812+943018306+936702588+933273416+933748952+932115174+927485472+925346095
799+926503414+926865449+922994145+914468406+906766308+905533086+908228166
785+908650043+905483478+902083516+899632351+896540553+893450460+889902813
772+884143794+878428413+875394111+873986765+872057971+870277147+869241288
758+866672074+862932607+860220825+857813368+855895591+855452606+854086409
745+851659266+850747853+849353655+846428660+845067794+845385339+845101268
731+844005497+844431567+846720903+847626489+847285562+847945242+848260086
718+847258555+845739556+843719578+841248513+838752645+836582139+834980769
704+834575665+835832483+836726981+834367356+830799382+829254372+827596927
691+824736962+822504198+821000479+821465638+824301297+825675453+823826046
677+821670536+820386853+818374906+815162998+811682655+813173652+818306607
664+816890661+811560129+810859938+811799709+809806098+808062231+807282441
650+806996452+807590320+809044644+810250363+806369677+797761496+791979308
637+791584935+793529223+798543489+808135292+813017367+807053948+798225802
623+792491019+788620852+782174293+774572120+771635612+769015298+764907470
609+767520464+776952996+787242005+796923854+799784032+792436934
##END=
