##TITLE=Sample description
##JCAMP-DX=4.24
##DATA TYPE=INFRARED SPECTRUM
##DATE=25/8/2023
##SAMPLING PROCEDURE=Instrument type and / or accessory
##ORIGIN=Default
##XUNITS=1/CM
##YUNITS=ABSORBANCE
##RESOLUTION=4
##FIRSTX=4397.6552
##LASTX=599.8556
##DELTAX=-1.9287962
##MAXY=1.8750143
##MINY=0.18258418
##XFACTOR=1
##YFACTOR=1.7462432e-009
##NPOINTS=1970
##FIRSTY=0.19150144
##XYDATA=(X++(Y..Y))
4398+109664819+109395219+109342782+109769616+110062716+110144209+110543711
4384+110808072+110367294+109879840+109949463+110253947+110398833+110465393
4371+110640257+110787447+110787285+110945568+111439875+111827960+111958442
4357+112212230+112357449+111955557+111408063+111325623+111567874+111594250
4344+111402431+111264610+110958812+110347122+109957032+109957331+109923701
4330+109970429+110310258+110538642+110454317+110342940+110411241+110515688
4317+110405438+110203473+110187336+110245678+110102686+109862202+109879772
4303+110126067+110306580+110386059+110396965+110271961+110031220+109936919
4290+110226888+110478568+110245567+110116766+110562553+110973336+111022581
4276+111076699+111230801+111251674+111040160+110851702+110954597+111197377
4263+111265097+111147124+111047345+111016070+111031567+111111174+111196796
4249+111135186+110944203+110935977+111056330+110871175+110488970+110461578
4236+110845055+111135229+111052439+110782609+110617200+110712226+111062167
4222+111467787+111601546+111429507+111190925+111057166+111213001+111618237
4209+111823266+111764173+111913104+112145184+112006902+111912149+112187372
4195+112278064+112123287+112197706+112369814+112427584+112471172+112373005
4182+112055218+111813717+111816508+111906687+112058563+112334580+112451067
4168+112181578+111779303+111521752+111574752+112003327+112466820+112684606
4155+112749510+112647597+112327779+112045464+112103977+112369745+112411558
4141+112228289+112412813+113027643+113251420+112967168+112835295+112886127
4128+112736727+112391104+112236746+112415842+112609914+112677958+112749535
4114+112886989+113132474+113360108+113306399+113135538+113190330+113444698
4101+113679261+113728532+113729982+113854508+114046780+114273492+114397608
4087+114371966+114345342+114334445+114354191+114414555+114465806+114487412
4074+114469586+114528099+114760707+114984159+114977896+114773550+114608585
4060+114755109+115156037+115431388+115469591+115466050+115454658+115306120
4047+115016245+114855614+115182703+115767479+115962678+115842546+115872968
4033+115881023+115601644+115195776+114879772+114772441+114826584+114986463
4020+115250508+115332889+115144474+115053083+115064406+114911209+114742932
4006+114828743+115077385+115263086+115261064+115090126+114996661+115084639
3993+115058544+114875770+114907326+115104393+115109240+115009887+115022644
3979+115082471+115092993+115066744+115025469+114974961+115010945+115119463
3966+115025239+114690402+114551600+114828513+115206161+115270724+114812419
3952+114109892+113596044+113493594+113669644+113657023+113604048+113975886
3939+114411714+114259241+113295084+112241960+112354701+113264621+113486289
3925+113069823+113059523+113145513+112805360+112868549+113918696+115110281
3912+115731853+115604426+114208980+111287104+108501999+108097684+109762840
3898+112229364+113892490+113640682+112369438+112389355+113056230+112546324
3885+111583644+111124596+111324599+112760151+113596181+112538124+110657093
3871+109273466+109633553+110806869+110787498+110896596+112239212+112873942
3858+111582108+108128088+104558281+107134543+112017441+114665041+114642402
3844+112685348+109989646+107450350+106750972+108790184+111035065+112455146
3831+113523332+113935284+113722072+112996428+110794188+108511957+109292623
3817+111210006+113562525+116062560+117022075+115897518+113851317+112699829
3804+111595087+110528795+111513073+113247230+115064713+116900723+117882109
3790+118080763+117726308+116941213+116552438+116504976+116134453+116467497
3777+117791067+118442010+117601227+116051304+115481333+115905070+116480801
3763+116759822+115964896+114801744+114746807+114385627+111907780+108490923
3750+108487714+110495720+111481927+112511508+114034867+114249061+112087362
3736+108885552+109071995+112775169+116087639+117325304+116773390+115993184
3723+116292932+117545317+118934738+119541317+118506053+115638550+113873392
3709+115984130+118806074+119913905+119388367+119167441+120386068+121564965
3696+121608715+120150140+117327531+115486871+117684922+121118999+122951015
3682+122992068+121653506+119241100+116895765+117721214+119492251+120206588
3669+122753145+126547190+129096632+130268796+130615716+130185690+129370115
3655+129315374+128908729+126198956+123805084+127620479+133129566+136480111
3642+138280886+139594139+140683948+141366985+141566254+140856363+139164941
3628+139835605+143687164+146608409+147322148+146526848+146656315+148489841
3615+150237301+151796551+153282022+154482209+156652253+159492005+161164799
3601+161573508+161937657+162612144+163597770+165356170+166876781+166617148
3588+165659033+167114552+169904709+171697890+172379835+172677611+173130813
3574+173827640+174071384+172783646+169864347+168423572+170557060+173087686
3561+174160642+174606762+175095701+175158830+175011341+175097851+174699979
3547+173860766+174060547+175390952+176556443+177017222+176841130+176560914
3534+176651845+176631843+175933139+175204363+175186853+175433567+175698081
3520+176327427+177267639+177943372+177927585+177446411+176990223+176893473
3507+176979932+176829968+176714052+177097264+177644571+178089461+178605093
3493+179018666+178920824+178453542+178280180+178471786+178514521+178645404
3480+179200783+179577476+179507844+179495522+179740819+180080478+180409503
3466+180403633+179728207+178831787+178503803+178665662+178844792+178894951
3453+178643509+178138545+177870549+178190069+178740140+178980318+179041877
3439+179046331+178755381+178419562+178365632+178562955+179167725+180078686
3426+180770239+180915287+180682653+180836491+181742349+182945778+184155779
3412+185209825+186002873+187018486+188676175+190560389+192183792+193668581
3399+195281266+196871185+198081288+199145079+200668216+202615491+204504381
3385+206336747+208413027+210574351+212560076+214415704+216280598+218332730
3372+220527043+222548113+224212817+225630586+227195860+229147640+231273021
3358+233516332+235910750+238031797+239827538+242048645+244834364+247327854
3345+249226028+251118843+253364595+255808335+258188059+260272617+261915578
3331+263096565+264102484+265368702+266590034+267378150+268137952+269131122
3318+270310437+271418823+272261671+273277522+274716334+276325042+277743169
3304+278771718+279651106+280524298+281299597+282016920+282487888+282426380
3291+281967256+281525131+281388377+281221056+280642706+279996703+279375003
3277+278408372+277377263+276961129+277149186+277473057+277763581+277940049
3264+277920695+277937199+278116397+278203027+278195006+278304948+278398285
3250+278265149+277847736+277251738+276956300+277278550+277580116+277222657
3237+276678252+276477907+276388376+275973165+275191295+274471480+273930710
3223+273305631+272782593+272548849+272126282+271212727+270242802+269854845
3210+270328237+271246860+271813367+271692860+271106130+270386127+269903195
3196+269585570+268878861+267977902+267502206+267480737+267588051+267362363
3183+266822651+266515505+266452956+266246621+265913175+265757631+265802089
3169+265761385+265596045+265675746+266013834+265983745+265453010+265051366
3156+265054660+265203600+265369640+265640623+265890784+265875782+265798676
3142+265888053+265779954+265431319+265276116+265116663+264732717+264490304
3129+264386181+264108986+263785422+263705755+263679848+263382703+263014817
3115+262747606+262344921+261873987+261623587+261403940+260926299+260331547
3102+259860699+259653545+259647691+259636530+259666772+259630864+259312368
3088+259117366+259205310+259035429+258519184+258296756+258848807+259815455
3075+260848817+262208952+263668772+264354744+263702683+262110256+260361602
3061+258370619+256029398+253940727+252283822+250925684+249936491+249136838
3047+248416101+248047191+248071733+248166059+248193622+248360123+248738215
3034+249033381+249084324+249020120+248773799+248348313+248131670+248257895
3020+248488207+248763286+249269411+250120144+251209552+252473909+253957196
3007+255564574+257337753+259657948+262738356+266413276+270478149+275112533
2993+281030338+288795697+297910149+306673338+313105442+316424099+317239435
2980+316408670+314694166+312900746+311157092+309049136+306810723+305062837
2966+303825513+302714584+301730562+301258535+301042132+300500645+300094495
2953+300385104+301039708+301871395+302990482+304126874+304854318+305136189
2939+305110658+304597740+303656930+302768105+301898804+300626766+299040466
2926+297437474+295516397+292856372+289585878+285951047+282052845+278127712
2912+274630148+271808196+269410092+267148707+264904372+262694136+260794784
2899+259425502+258652746+258370671+258203623+258081359+258182324+258378351
2885+258599994+259080707+259898092+260682896+260975212+260728327+260226093
2872+259643186+258989964+258436257+258054940+257457628+256300653+254623474
2858+252605031+250388600+247900521+244832743+241177279+237546527+234367816
2845+231338813+228285285+225597511+223505512+221667941+219729540+217862393
2831+216227026+214635299+213254189+212411307+211894635+211360742+210692724
2818+209968932+209422086+209124975+208940998+208742411+208510699+208284926
2804+208060740+207841554+207623325+207393438+207150735+206764656+206166798
2791+205595445+205171426+204643507+203959822+203427226+203060842+202569360
2777+201940714+201323691+200688099+200031822+199461953+199032218+198720207
2764+198489058+198402446+198462127+198467623+198381147+198338310+198280966
2750+198039799+197627830+197261138+197037839+196804642+196471248+196133330
2737+195868952+195633878+195407303+195282444+195273689+195219468+195079113
2723+195054008+195162756+195215936+195190319+195111540+195012741+194977328
2710+194943929+194884384+194894487+194966218+195049298+195118127+195159309
2696+195199040+195221311+195154650+194983882+194818302+194667707+194424424
2683+194244628+194242699+194174979+193898757+193502558+193140064+192913165
2669+192726269+192482986+192230947+192000498+191820343+191696867+191511320
2656+191266039+191110290+190978110+190742233+190569963+190595239+190651695
2642+190645005+190623143+190545831+190370387+190156015+190039689+190118929
2629+190308760+190391533+190318727+190328318+190518030+190714278+190894876
2615+191178249+191534837+191872243+192136791+192319079+192513467+192761085
2602+192959193+193113338+193367476+193709285+193988937+194231060+194540630
2588+194792446+194861344+194887097+194973147+195049520+195057063+195005983
2575+194978523+194953776+194786490+194515849+194278215+194042560+193739066
2561+193434582+193269378+193301923+193390089+193295148+193032050+192850189
2548+192820067+192774329+192581084+192340787+192259858+192356011+192510651
2534+192633427+192694798+192733249+192750555+192791173+192939874+193080246
2521+193161739+193352577+193605128+193715906+193748213+193913161+194239457
2507+194592358+194898464+195183082+195429097+195638469+195867382+196062709
2494+196196698+196355076+196504066+196586788+196689068+196809387+196861133
2480+196900795+196987084+197048370+197010055+196918237+196900710+196908373
2467+196804728+196702704+196712739+196682497+196531356+196378303+196286195
2453+196224158+196174051+196105734+195987633+195867519+195765034+195626027
2440+195499172+195436401+195371326+195299459+195269337+195242884+195188902
2426+195189568+195295483+195399554+195380867+195269285+195178321+195132173
2413+195132105+195256213+195476030+195657583+195762560+195802751+195851647
2399+196055251+196332718+196447406+196444641+196517464+196660055+196764160
2386+196688778+196274624+195489666+194408637+193157438+191803567+190286352
2372+188707339+187288700+186033217+184894128+184075208+183755125+183730361
2359+183943778+184710356+186081072+188003139+190107853+191251021+190739724
2345+189248041+188232906+188200053+188678582+189220256+189631987+189931504
2332+190179140+190565168+191272917+192116789+192885875+193733024+194760003
2318+195887999+197002751+197825272+198229101+198495919+198939052+199561929
2305+200153284+200559417+200784234+201014155+201396001+201764127+202006625
2291+202285680+202615917+202820750+202898625+202980971+203090316+203193398
2278+203299125+203457571+203678753+203856194+203931440+203978971+204064952
2264+204192695+204331463+204419884+204403484+204350492+204418826+204628591
2251+204833577+204946575+205017640+205096675+205161221+205151971+205112359
2237+205206874+205406057+205541054+205666254+205863082+206070696+206233835
2224+206293756+206290001+206368149+206592352+206878951+207050930+207116227
2210+207244379+207426121+207578167+207719597+207872871+208046523+208244990
2197+208431527+208599769+208787399+208976684+209118729+209219472+209318219
2183+209410839+209493834+209624308+209836001+210052883+210147585+210144615
2170+210184210+210286575+210434593+210637173+210789133+210813214+210835264
2156+210986371+211204003+211386649+211591738+211852651+212050299+212145223
2143+212215912+212336197+212513980+212649454+212714289+212841264+213056303
2129+213218333+213319930+213451461+213571968+213646634+213703637+213796922
2116+214016449+214274973+214390855+214442754+214585874+214759355+214931420
2102+215179158+215419660+215551635+215684020+215911517+216126914+216231361
2089+216318315+216524906+216873268+217282796+217649608+217929192+218151415
2075+218399136+218698397+218965625+219134686+219195392+219251575+219486086
2062+219866004+220246281+220600343+220899110+221131437+221327327+221475550
2048+221617782+221802835+221926840+221975582+222158245+222476348+222723796
2035+222896526+223112981+223379885+223663462+224011569+224377680+224610450
2021+224682625+224683256+224875784+225422510+225976388+226261843+226463654
2008+226777525+227152682+227497084+227839405+228231082+228668924+228982334
1994+228957485+228916389+229337642+230008903+230645843+231239673+231762148
1981+232245541+232720230+233203827+233730807+234202595+234418538+234390429
1967+234580909+235325078+236214227+236889704+237420797+237793616+238022478
1954+238275524+238582977+238805440+238807300+238463512+237907689+238022495
1940+239061267+239960230+240358989+240565239+240694688+240823848+241015130
1927+240971798+240408124+240018427+240274066+240631167+241328864+242458242
1913+243073183+242949843+242917434+243573130+244465147+245077972+245429167
1900+245610260+245570956+245468437+245602956+245673065+245661119+246326304
1886+247368182+248108323+248634126+249006825+249307691+249681124+249991257
1873+249656583+248254072+247116007+248234001+250327383+251618040+252186645
1859+252603837+253089380+253582671+253992285+254235534+254080195+253283000
1846+252245900+252655804+254784496+256370012+256955838+257489269+257890470
1832+257216375+256117683+256451368+257726068+259150953+260778230+262017243
1819+262779059+263452949+263847902+263592075+263391321+264213075+265462090
1805+266060886+265729283+265191022+265475384+266160913+266050595+265163818
1792+265588331+268166197+270283984+271091453+271382864+271542316+271943534
1778+272680620+272566616+270989446+269658614+271046004+273793751+276009038
1765+276854208+276610924+276926655+277891648+278874595+279814723+279429189
1751+277492957+276507398+277983995+280031843+281367504+282233187+283478993
1738+284562462+284059904+283491418+285866294+289443884+292904739+295315524
1724+296466901+296860079+295878719+293436635+293491247+298140172+302739945
1711+305400208+306056280+305556674+305656172+306188921+306084576+306787342
1697+309918233+315971085+321824087+324568523+325574220+325609479+324664096
1684+326723651+333221359+338652375+342295978+345373109+349096413+352233686
1670+355573163+362027795+367937084+370774600+372669020+375192717+376477144
1657+374935797+370628681+367810894+370079822+370734562+372258058+379452559
1643+386688702+391358345+394306282+396817316+404541698+417466391+427598452
1630+436239479+446156502+456824760+468746418+483074185+494839548+503403263
1616+513893346+525031309+532626908+537452266+541161882+544583928+547168484
1603+548566131+549207423+549250192+548108509+545817804+543442347+541291622
1589+538795471+535866751+532751323+529342248+525387385+520838402+515183644
1576+509904214+508172097+506788001+503982501+502941272+504172656+505096809
1562+504380424+501386101+501646502+509317705+516098035+521894309+527426495
1549+533233964+537887941+540439695+542477098+548850391+567343008+584320730
1535+595471254+608300784+623357087+635340731+645207100+654683465+663157001
1522+672519293+682666236+690189370+696486854+702006377+704578509+703504341
1508+699506061+698552588+704855191+710230877+713304560+714958990+717249593
1495+721291563+724719889+726930961+730852168+738559962+746195531+751638459
1481+756199457+760661059+763540457+763194757+761938182+765745794+772320985
1468+776508498+779144937+783211551+787338649+788510028+787554575+791818479
1454+800294676+806263322+809553887+812009830+816699509+822622485+827118630
1441+830442781+832636036+834450414+839061314+844504105+847410741+849179995
1427+851707959+853476257+853339588+851405267+847892359+846397126+848982433
1414+851074927+850792373+849708102+847981037+845888884+845700197+845879600
1400+841700620+833920259+827761628+825078632+825245543+825267115+823061777
1387+820861150+821874151+824471405+825423513+823782463+819913001+815377057
1373+814584146+817658512+819379638+818916930+817716879+815048424+812977980
1360+813657228+814425496+814129016+814286574+814744708+813497759+811634366
1346+811387720+811559137+810189376+808165626+808775038+811351812+812487420
1333+812924255+813557833+813431404+813568346+815078666+816678347+817597004
1319+818980486+822068095+826094364+829240137+831718676+834568446+837545669
1306+840464593+843034267+845165058+847850580+851185859+854233806+856930182
1292+859482449+860877331+860370387+859761179+860263687+860281436+859306732
1279+857895671+856309370+856042381+857275882+858133100+857376643+855402250
1265+853834381+852712086+851097250+849282258+846936360+844014091+841409738
1252+839733053+839705883+841018573+841770524+841524220+841535416+841596787
1238+841350414+841415813+841158586+840555455+841012292+842185378+842887495
1225+843246848+843784922+844752321+846411939+848868428+851402331+852703962
1211+852216473+850845075+849891397+850052232+851435782+853052256+854032831
1198+855236704+857078115+858426235+859423603+861147460+862506571+863420450
1184+865687364+868408247+870435274+872393011+875311798+879898805+883887186
1171+884893156+884748295+886294319+889886347+894409457+898629124+901659936
1157+903996277+906253428+907833790+908296361+909184299+912576990+917511881
1144+921481011+924071575+926107545+927110306+927223082+929025513+932952045
1130+936538817+939432618+943119332+946904075+949001484+950502247+953503978
1117+956610975+956528305+953873571+953643446+958594789+964074103+963722737
1103+959727939+959074290+963017343+967104437+969844640+973168929+976103007
1090+977837445+979851638+982435443+985480933+989150716+992421279+993172957
1076+992243923+993564122+997184617+1000481736+1002967374+1004592655+1006005696
1063+1007736789+1009191335+1012193066+1017705284+1022851596+1025054271
1051+1023525110+1020856108+1020894405+1023286110+1025066150+1023844322
1040+1021799137+1023708199+1028498025+1033256244+1037660366+1039620765
1028+1038625376+1037821201+1037985859+1037396927+1037538170+1040941988
1016+1045102810+1045738163+1042456745+1038600254+1037727062+1039288377
1005+1038936397+1035063522+1031705237+1031761625+1032974851+1032786914
993+1031944373+1031588365+1031979735+1033859785+1037613604+1041572289
982+1041769032+1037405665+1032991917+1032199825+1035022767+1038115087
970+1040094327+1042990382+1045423046+1044999796+1042432033+1039917313
959+1040124706+1044172342+1050395006+1054538898+1053667002+1050295064
947+1048578990+1049210179+1050894714+1053426228+1056323511+1057992891
935+1057960806+1057888786+1058743887+1059325378+1059796893+1061687660
924+1065889919+1071176654+1073002910+1070429277+1068032384+1066504724
912+1063834699+1061877781+1061663767+1061576796+1062396809+1065240299
901+1068203118+1068568888+1066662419+1065165069+1064776976+1065869985
889+1069873795+1073689258+1071936252+1067457310+1067604355+1071870853
878+1073741823+1069495874+1060362136+1052691616+1049445902+1046204693
866+1044175277+1046556332+1048156969+1044536542+1037598517+1031565155
854+1028542535+1027023681+1024280679+1019985647+1016406179+1013176372
843+1008774024+1002465686+993752469+985474994+980513820+977638177+974321739
829+971142038+967779180+962225319+958438118+958387465+957446826+955644258
816+955842298+956395937+954693038+950817022+949187168+952764246+953995494
802+947417232+940424457+937148502+934037613+933557839+941143436+946959098
789+938296055+925013375+918866008+916758633+913022290+907698896+903847047
775+902500634+901653041+899611474+898170853+898422619+896014940+890395817
762+887640937+887420915+883573026+876736308+872774687+872907123+874649958
748+876295240+874872847+868289533+860688712+857363946+858613899+861252385
735+861982150+860587541+858849553+857858261+858874266+860106128+859240241
721+859175388+860115413+857951922+854272923+854952512+859150744+860144221
708+856129147+850129031+846649642+847581270+847718895+843855509+840409502
694+840430596+842189815+843304465+842118067+840233444+842266683+846593869
681+846511676+843096458+842682355+845766620+847441598+842525821+831967984
667+828944886+835939844+838913859+837421766+838313117+842469979+844988863
654+843167727+839335949+835500074+830417659+826032106+826077844+827027767
640+822326961+816524748+814840212+810367688+805927043+809144017+810821794
627+809006188+811892617+814255445+810228425+806980868+808305504+808689228
613+807542834+805379344+801020004+800660583+809044417+825287185+837394937
600+831607538
##END=
