##TITLE=Sample description
##JCAMP-DX=4.24
##DATA TYPE=INFRARED SPECTRUM
##DATE=25/8/2023
##SAMPLING PROCEDURE=Instrument type and / or accessory
##ORIGIN=Default
##XUNITS=1/CM
##YUNITS=ABSORBANCE
##RESOLUTION=4
##FIRSTX=4397.6552
##LASTX=599.8556
##DELTAX=-1.9287962
##MAXY=1.8544911
##MINY=0.89041883
##XFACTOR=1
##YFACTOR=1.7271294e-009
##NPOINTS=1970
##FIRSTY=0.9630307
##XYDATA=(X++(Y..Y))
4398+557590342+557809658+555363877+552739571+552582029+554220534+555934996
4384+556226854+555908872+556757493+557249755+556522992+556361654+556059028
4371+554158138+552711065+553419020+555316632+556125462+554699268+554408169
4357+556790105+557890966+556326038+554788202+554918135+555551409+555084926
4344+554139744+554811531+557262041+558667045+557696187+556047536+555624226
4330+556428087+557339656+558586255+559663752+559698642+560092928+561159416
4317+560817621+558870314+558324870+559903153+560429926+559067163+558132680
4303+558636848+559709065+560024873+559062539+557941559+557512589+557091419
4290+556595499+556696029+557140010+557186497+557187704+558298435+559554215
4276+559033377+557539094+556761703+557439288+559488023+561109444+561038628
4263+560601411+561330279+563097440+564597694+564725902+563624248+562172239
4249+560964568+560132961+559668411+559497548+560093273+561794726+563199281
4236+563658931+563709248+562971096+562717269+563604438+563425638+562426826
4222+562719374+564062293+564234744+562475003+561321617+562436937+564119581
4209+564591310+563849431+562420096+561677147+563125463+565582633+566667135
4195+566380488+566120104+566079416+566268190+566789269+566651605+565997660
4182+565973813+566363371+566281649+565441794+564693600+564701882+564880786
4168+565549399+567435484+568647262+567809719+566860258+567210404+568243900
4155+568525715+567209300+565223617+564607012+566279579+567604242+565797877
4141+563053025+563237588+565887812+567907730+568859987+568958481+567330882
4128+565335742+565224307+566721869+568086358+568604055+568433019+568322688
4114+569179384+569992701+569539401+569092624+569921367+571462723+572448111
4101+572025940+571299004+571018190+569609596+567880915+568297357+570059376
4087+571227843+571352530+570591843+569349385+568485268+569317807+571875921
4074+573151407+571466037+569774316+569881334+570476197+571312636+572552092
4060+573236027+573381490+573154513+572082986+571305285+571671169+572363249
4047+572872594+572559546+571548828+571509279+573056674+574594822+574373297
4033+572882533+571490436+571171935+572310792+573280995+572796256+572308825
4020+573035209+574119849+574595132+574726411+574679822+574535808+574982965
4006+575564990+575495450+575620138+576599003+577612482+577552674+576797819
3993+576465411+576373302+576553690+577339053+578027164+578643630+579574974
3979+580021130+579360662+578263252+577772439+578082519+578574747+578473699
3966+577915625+578037551+578966928+579059796+577860718+577285250+577983473
3952+578389872+577732269+577196661+577665801+578197544+578574402+579445213
3939+580080074+579604032+578339487+577542666+578076445+578875301+578339141
3925+576777562+576105325+576662641+577305163+577587496+578350081+579806886
3912+581011314+581742184+581643621+579908693+577322625+575925386+576015390
3898+577721536+580834549+582240934+579634954+577485309+578225532+577705523
3885+576269735+576542750+576804031+577324006+578144121+577711804+576799303
3871+575768431+576194053+578738259+579150836+578416515+580668207+583889723
3858+585936904+584919595+577340364+574037886+579933748+585815426+588304208
3844+587173013+583290339+578623200+574990212+574669572+577273482+580229782
3831+582721739+584687682+585784298+586377400+585212660+582034836+582809672
3817+586007721+587014884+587743131+589088777+589448242+588318220+586823901
3804+584803362+582448344+584191623+587932044+589246423+589590564+590669994
3790+591824311+592918097+594018785+594974942+594908612+592368133+589774783
3777+590533469+592038417+591876630+591353101+592213662+593342235+593861140
3763+593942792+592517082+590128174+589590357+590657501+591089921+588004309
3750+583943353+585175596+588436178+589823443+590451333+590106018+586509784
3736+581859728+582976636+588359909+592867090+595169652+594914824+594087600
3723+594547560+595286989+596322382+598084228+599409374+598356726+595429380
3709+594668762+596643678+599994954+602422928+602763066+603849881+606302220
3696+607999945+607671126+605106282+601604884+601199450+603764846+605374569
3682+604723143+602697220+598973296+592215319+589015338+591068387+590681934
3669+589978397+592892628+595626506+596492313+596428399+595234601+591918802
3655+589110312+588584091+585971898+577986268+573238132+575463735+579217511
3642+581483146+581275736+579367219+577185583+575327935+572867624+567479278
3628+562160609+562535604+564433733+565148176+563744207+560760540+559614056
3615+559606119+558760155+557483117+555297789+553087095+553051135+553272176
3601+551648028+549820715+548693488+546389685+543874122+543188082+541868492
3588+538038447+536512137+538610429+539707735+537782894+534919877+533524639
3574+534358145+536355251+537082877+534822108+531161235+529649903+529146563
3561+528296976+528223571+528882141+528903710+528210353+527447388+526934420
3547+526815668+526610605+526128696+525836113+525902063+526539167+526930106
3534+525920354+524159957+522622742+521626656+520809026+519402296+518143066
3520+518934226+521599807+523445342+523121009+522106391+521292005+520270657
3507+519039070+517562283+516053781+515548404+516265677+517708091+519812733
3493+521792170+522392313+521885763+521292177+520747286+519454338+518170847
3480+518944959+520668187+521251558+521005565+520851198+521119416+521772050
3466+522304656+521954302+521248590+521000457+520742627+520984237+522326156
3453+523500835+523459629+523143683+524519215+527007859+527638164+526189469
3439+525162289+525611275+526806937+527851027+527993004+527511061+527407873
3426+527911490+529146149+530977569+532382607+533058364+533784023+535191857
3412+536598863+536638205+535807737+536047932+537500458+538408886+538854766
3399+540205277+541565280+542144406+543563007+546257957+548562865+550383173
3385+552855217+555669643+557569049+558305096+559670551+562749536+565902686
3372+567672332+568721909+570937055+575221538+580325791+584453284+587259083
3358+590335377+594484819+598179823+601586593+606206279+610048092+611970759
3345+614942278+619730930+624782278+629576865+632800590+633619945+634452553
3331+637009460+639754933+642083447+645787424+651006632+654045240+652560723
3318+650150074+650571727+652409290+653030760+653840453+655957416+657085022
3304+657393204+657884362+657020487+654896415+653316579+652931093+652815827
3291+651326616+648104963+645119363+643820031+642498681+640031434+638840396
3277+640370330+641812744+640843680+639592387+640093208+640592165+638093859
3264+632937598+628647627+627043012+627727776+629225338+629361587+628606628
3250+628560936+628317428+626893788+625160378+624313621+624288566+624198562
3237+624001988+624463053+624796703+623333790+621157883+620450756+621136624
3223+621732350+621422029+620292697+618559012+617886741+619854617+623134870
3210+625688118+626335472+625507143+624582253+623134801+620406859+617529554
3196+616442877+617124328+617898268+618836272+620122697+620435848+620204280
3183+620881866+622007608+622406139+622597743+624154319+626473653+626831530
3169+624911970+623652118+624597162+626367429+627098023+626280047+625674244
3156+627399923+630489193+631927535+631187347+630146363+629462704+629334876
3142+630008941+630349217+630311187+631378123+633116433+633605382+633287675
3129+634137746+635678861+636573657+636977503+637009253+636448314+635510586
3115+635053387+635181215+635246302+636188723+638364147+639968141+640258584
3102+639820366+639338388+639715246+640819937+641351610+641276377+641862992
3088+642985352+643454354+643271171+643358069+643884980+644785782+646463145
3075+647811966+647917224+647703188+646717628+644980630+644670861+646275130
3061+648081426+648424602+647428275+646624173+646679942+647409501+648454557
3047+649159751+649702606+650632052+651198650+651022852+650898130+650966393
3034+650787212+650598921+651223429+652558584+653689572+653828651+652867248
3020+652051344+652575632+654709574+657786765+660183472+660745239+659648485
3007+658614610+658775569+658855427+658437501+659113361+660985641+662260540
2993+662282696+662455181+664128541+666708915+668577123+669144964+668989114
2980+669279764+670629482+672048704+672684117+673305036+674259122+674672631
2966+674588562+674547287+674186856+673794676+674474055+675445121+675427313
2953+675640176+676878562+678019006+678177618+677342111+676560165+676909000
2939+678434310+680474313+682155128+683100793+683764712+684290519+683675467
2926+682166792+681391403+681129535+680429104+680300792+681185167+681026693
2912+679667243+679335594+680206233+681169292+681866893+682381864+683131439
2899+684239650+684647499+683923945+683775065+684549764+684503519+684152268
2885+684953126+685919636+686272889+686499694+686824234+687775697+689084554
2872+689384522+688801772+688569584+688884944+689379553+689488469+689190019
2858+690347236+692746083+693102924+691339284+689998470+689262768+688470538
2845+688546807+689608704+690798775+692221311+693192445+692981239+693243590
2831+694756130+695833144+696419345+697343406+697605481+697213991+697302200
2818+698439953+700337496+701298346+700840387+700167150+699814588+700118490
2804+701025572+701860803+702866448+704139828+704998595+705537861+705730294
2791+705772604+706343965+706930856+707152415+707525270+708324817+708835922
2777+708420757+707959761+708290237+709597507+711457985+712676354+712861401
2764+712577170+712549631+713072331+713419165+713165787+713557484+715354877
2750+716798602+716817169+716888675+717656748+718442214+719030210+719318651
2737+719369037+719408034+719365379+719102544+718805682+719002601+720113642
2723+722170280+723814582+723925362+724236166+725416022+725723030+725621223
2710+726521541+727078339+725973924+724991815+725805304+727097803+727394320
2696+727605664+728399758+728944131+729278679+729652155+729358192+728417703
2683+728268548+729937629+732102906+733119319+733057406+733027520+734662573
2669+736870506+736993227+736345252+736528573+736654124+736913231+737908247
2656+738974010+738928800+738105303+738309607+739437628+740005400+739932375
2642+739966748+740231170+740377910+740634118+741530502+742896509+743810355
2629+743609778+743132149+743537237+744301444+744540466+744612663+745041287
2615+745867890+746618017+746611391+746293546+746694700+747973809+749477928
2602+750064267+749514855+749306686+750104783+751132101+751868700+752020271
2588+751878017+752136642+752488100+752632424+753060772+753703294+754058756
2575+754442033+755246411+756044922+756481070+756496600+756129681+755806936
2561+756062040+757335627+758969507+759303986+758419888+758031917+759060201
2548+760854142+761980990+762214559+762475599+762819947+762558425+761712841
2534+760987216+760846412+761379604+762423901+763353554+763398349+762995193
2521+763448873+764616235+765375473+765594962+765661775+765789258+766483892
2507+767645526+768245393+768423330+768763331+768696311+768258024+768321248
2494+768918354+769457136+769956370+770810167+771860677+772352939+771798350
2480+771259912+771847494+772582505+772608802+772907528+774004834+774807555
2467+774893418+775008753+774749163+774141773+774768627+776349153+777680650
2453+778675665+778432571+776863364+776363441+777843817+779092487+778813916
2440+778373903+778869064+779875123+780386712+780058652+779565699+779077095
2426+778630318+778562953+778470740+779010834+780789108+781917611+781452820
2413+780451385+780165911+781289307+782906484+784048585+784592061+784991007
2399+786044139+786781013+785927837+784926195+785279448+786181077+786902077
2386+787320625+786649182+784466097+781562978+779662261+779275394+777968056
2372+773567720+768232072+765629611+764545971+762066991+760219903+761081155
2359+762442951+763008239+765334198+770800781+776465800+779124444+778967765
2345+777556480+775224791+772487324+771277237+772299723+774202788+775645340
2332+776416795+777388826+780061206+783445957+784542297+783677939+784040855
2318+786538540+789861863+792750901+793940972+793783120+794173092+795676452
2305+797468392+798685726+799384087+799953999+800387869+800798478+801404971
2291+802531266+804040355+805252237+805810691+805627439+805109707+804765497
2278+804506803+804929147+806642402+808010963+807756066+807349252+807826330
2264+808368426+808717192+809385390+809718351+809274473+809285102+810022184
2251+810345895+810147182+810190044+810710606+811647022+812569979+812510690
2237+811776023+812111400+813681642+814570295+814338244+814608671+815599132
2224+816190026+816033623+815355761+815041644+815678230+816108787+815951832
2210+816363615+817218793+817826460+818522957+819444327+819860182+819538265
2197+819289304+819657534+820589879+821280854+821080829+821034033+821415170
2183+821071995+820700520+821812804+823495896+823754382+822605724+821948845
2170+823007499+824619983+825084291+824609008+824248232+824228699+824167684
2156+824111293+824324432+824832707+825765397+826650461+826929101+827077498
2143+827641819+828584654+829303652+829412776+829653937+830271336+830092155
2129+829118674+828821398+829381578+830221916+831268491+832083153+832147343
2116+831842544+832089848+832511087+832093231+831871878+832792420+833625925
2102+833616124+833278746+832848258+832381603+832482167+833622543+835048047
2089+835474186+834740900+833762036+833183634+833305043+834326632+835656817
2075+836447667+836353177+835676488+835658060+836800989+837883248+837856606
2062+837100543+836529803+836680615+837774194+838993461+838850724+837816090
2048+837824649+839180786+840206861+840181392+840477978+841578390+842393950
2035+842672245+842954819+843205230+843054487+842556288+842218911+842417348
2021+843019009+843814001+844269060+843998910+843905316+844158971+843856380
2008+843738146+845155988+847283373+848219306+847649878+846870347+846675223
1994+846815475+847466901+848788597+849922346+850158676+849555634+849082629
1981+849390948+849999995+850485700+850243711+849389292+849359405+850567422
1967+852037583+852666025+852516662+852868810+854104712+854883207+854682008
1954+854824055+855517929+855460918+854398882+853236696+852632894+853220130
1940+855156118+856722909+856781992+856133809+856048568+857302139+858769676
1927+858798044+857857072+857280673+857505200+857568907+857245817+857678514
1913+858689059+859669373+860825486+862158017+862944174+862964466+862396073
1900+861044008+860118704+860879599+862413604+863418490+863220950+862909180
1886+864022775+865216159+865028144+864557140+865490934+867454461+868425181
1873+866938801+863305157+860055687+860414462+863505251+866743676+868532303
1859+868148750+867194250+867617283+868903777+869784148+869925781+869409016
1846+867473511+864797750+864761858+866591139+868518084+870731746+872514851
1832+871729385+868182225+866669271+868328896+869854343+871456473+873487642
1819+875011156+876000374+877016373+877610718+876918224+876293578+876888476
1805+877202317+875810772+873394877+872510572+873796997+875086804+875055675
1792+875251904+877361343+879034289+878831227+878289822+878944423+880173422
1778+880449440+878778564+875272334+872162910+873415445+877501319+881389445
1765+883707260+882838278+880381453+879761915+880771563+882953406+883557829
1751+879168053+873666339+873450922+876360184+879715256+882046600+881537082
1738+879532418+876337062+871528877+872151797+877070141+880937215+883379270
1724+885248928+886605686+885592448+879676811+872749801+873552246+877471018
1711+879868346+880519220+878750886+876899243+878162270+877036872+871105705
1697+869325223+873232331+879113526+882423803+882188785+881467785+878722725
1684+870067482+867479378+872444587+877415456+878495713+877026174+876792674
1670+876325604+875466699+875651056+874832735+873292173+874116636+875786062
1657+874982167+869122369+860336536+861738159+864369746+861922308+861228089
1643+864509308+866460205+865389748+860719952+856196550+860042642+865990029
1630+868097605+867338574+867158358+867539289+868642599+871090935+871901870
1616+871441220+875709862+882613199+887412756+889348467+890979172+892641696
1603+893281941+895096934+898173504+899329547+899514594+901161243+903658446
1589+906159030+908064304+909670644+911476733+911849381+909909735+906178357
1576+903364138+905859753+909587818+910783549+911182149+912249637+912826313
1562+911782154+903080597+889123043+896159453+909173205+917457526+921314248
1549+923178867+923365778+918882202+909319738+900133028+903392436+913463590
1535+917972842+919095686+923512587+928110601+928382132+925456512+920942083
1522+917356962+920256077+924824619+927964965+932473320+936122770+935684275
1508+930351319+927426251+934296595+939806868+940924397+938323593+935024014
1495+936702965+940037193+938850297+935542574+937120615+940676541+942186044
1481+942126892+942860454+942780872+938633776+932182601+929914274+932695293
1468+934786511+934434639+935158606+937273015+934775122+922986366+914366807
1454+920912059+929598500+935042581+937990909+941267573+945321972+948187543
1441+949424687+949551411+949581504+950342399+950000259+949024914+950907962
1427+955845562+959450148+958848348+954651488+947193011+942539711+945631534
1414+947878327+944856698+941472774+940819622+940537876+940289467+939767595
1400+936208356+930559005+925496545+921773035+921082956+920769805+916262279
1387+910900402+912080741+916592754+918620265+917941782+916331783+914959012
1373+915125354+916559762+918557317+922140644+924967218+923310768+920693674
1360+921457123+922367863+921015384+919656003+920567089+922331972+922806426
1346+922269162+921921707+920283962+915908060+913193508+915029207+917934535
1333+920596492+923262107+924574208+924768504+925564393+926587776+926948138
1319+926927777+926976644+928425477+932096738+936143200+938741726+940758883
1306+943450865+946427975+949144804+952652139+957867965+962629077+965431424
1292+967817295+969403688+970064432+971506363+973279874+975091209+977116372
1279+978640577+979505763+979314642+978800017+980446321+984221045+986911784
1265+987256409+986793619+986285551+986045701+986059643+986214735+987636649
1252+989886409+990295086+989172656+990551295+994359218+996722518+998257145
1238+1000029690+1000293491+999642686+998949432+998017847+998282821+1000366239
1225+1001378787+999706324+998734706+1000114172+1001018770+1000000839+998313812
1211+997435926+998092805+999221930+999540465+1000097331+1002087501+1005475358
1198+1009954241+1013038956+1012682735+1011248328+1010700434+1011013447
1186+1012694469+1014499522+1015618915+1017455719+1018459777+1017597627
1175+1017296555+1017104330+1015619053+1015149706+1017419483+1018867763
1163+1015997568+1013505542+1016076598+1019782852+1021208770+1022429694
1151+1024596628+1026011847+1024634659+1022840787+1024745300+1028135781
1140+1029195953+1029722036+1031851974+1032357558+1028402895+1024927655
1128+1026032761+1027912772+1029570879+1033529200+1036032960+1034681240
1117+1031826851+1027659877+1023922217+1022354046+1022491054+1024363956
1105+1025378574+1024749718+1025723613+1027486149+1027953012+1029827501
1094+1034591926+1038328757+1040399820+1043992465+1046087893+1043532298
1082+1040504664+1040971595+1044954281+1049347577+1050924100+1051371844
1070+1053059215+1054827135+1055198679+1052172840+1046362530+1045489268
1059+1052974043+1058340889+1054988232+1051997594+1052171666+1049893676
1047+1047574066+1048555623+1051199152+1054517573+1059137398+1065893926
1036+1070357623+1066702583+1060014249+1058961324+1062689942+1064679697
1024+1063662111+1062466795+1061829518+1062602698+1066435262+1071078347
1013+1073218639+1072316526+1067656255+1061745657+1060189564+1063845985
1001+1068781446+1070535561+1068233966+1064635247+1060242435+1054347297
989+1050952813+1053374437+1057444229+1057869264+1055300141+1054168807
978+1055859906+1057709479+1058703942+1058293540+1056482550+1056427954
966+1058517791+1058649415+1056180305+1055915676+1058854755+1061246354
955+1062076063+1062050870+1061104722+1060024878+1060729520+1064547314
943+1069193712+1069626891+1065754847+1062647562+1062254967+1062743640
932+1062280436+1061938089+1062953949+1063229829+1062391216+1061328835
920+1060926232+1064413274+1071087872+1073741823+1069280955+1063804848
908+1061033077+1059177707+1059508597+1063010202+1065672642+1064603773
897+1060282467+1056310893+1058409910+1064439433+1066995787+1067817282
885+1070091890+1069079964+1062542580+1054556778+1048372854+1046083475
874+1047770571+1048044656+1044445247+1040911132+1039413363+1039943587
862+1040839005+1038265395+1033665035+1033384324+1037951830+1040875310
851+1038683114+1034244195+1028507738+1020089170+1012769288+1010429869
839+1010314534+1007244383+999371155+990600852+986154755+986532855+988288627
826+989301037+990947686+993232785+994820006+996608219+997442000+994207991
812+987716438+981335734+976673599+972104229+967486060+965739399+965171282
799+961358527+955391814+951130350+949874846+949905147+948192513+943855746
785+940470304+941242587+944074890+943715701+938379363+933542396+932580580
772+931352823+927845765+924358930+921758195+918688665+914479174+911143842
758+909579259+907954076+904442255+899153542+895707154+895879915+896599190
745+896517882+895742217+894391740+893933298+892332756+888501917+886345267
731+885061051+882682841+884670526+890706330+892332756+891837387+894910990
718+896756628+894819605+893193248+893248880+892245374+889104200+885661263
704+881472271+876280809+872885704+871837059+871342519+870923350+869554582
691+867381988+867408700+866541719+861402438+859328545+863526440+867310137
677+866877164+863745791+860062037+856385600+852690803+850416334+850092277
664+851271581+853715222+853380675+847716208+844284383+847418172+848182173
650+843867216+843979238+850827012+854227777+844847600+828853769+819814973
637+824107359+834448111+835047080+828199582+826501995+824341963+812980520
623+799922732+796632057+804635529+815580220+824024464+829236977+828496789
609+829392621+838121580+839074630+823235409+805354458+794407697
##END=
