##TITLE=Sample description
##JCAMP-DX=4.24
##DATA TYPE=INFRARED SPECTRUM
##DATE=25/8/2023
##SAMPLING PROCEDURE=Instrument type and / or accessory
##ORIGIN=Default
##XUNITS=1/CM
##YUNITS=ABSORBANCE
##RESOLUTION=4
##FIRSTX=4397.6552
##LASTX=599.8556
##DELTAX=-1.9287962
##MAXY=1.8149831
##MINY=0.78091192
##XFACTOR=1
##YFACTOR=1.6903348e-009
##NPOINTS=1970
##FIRSTY=0.83731902
##XYDATA=(X++(Y..Y))
4398+495356917+495935073+496832386+497278486+497845641+498304083+498335289
4384+498773949+499301681+499318642+499725002+501018589+501777005+500842385
4371+499709980+500414304+502302974+503037517+501797775+499841719+498739146
4357+499134327+500446181+501677284+502151982+501529818+500503129+499708922
4344+498825361+498543335+499052801+499157071+499444880+500437506+501273252
4330+502622977+504511541+504846742+503652769+502845022+502834725+503733096
4317+505476099+506225875+505152675+503612359+502570930+502178781+501981208
4303+501585215+501837515+502993299+503625899+503230683+503079373+503827105
4290+504586155+505032573+505550255+505791588+505961269+506348446+506002525
4276+504709043+503645823+503810073+504561578+504329342+503420146+503441444
4263+504271829+504953974+505550290+505767257+505708264+506490799+507102137
4249+505825439+503892375+503613875+504995759+506181586+506618236+507072199
4236+507247945+506561499+505865638+506373764+507534132+507523060+506611607
4222+507176892+509296634+510833601+511059877+510684266+510408834+509899439
4209+508605428+507552010+507509766+507990458+508671544+508749579+507744047
4195+507188211+507786256+508136549+508179251+508953147+509881208+510235733
4182+510251001+510137493+510231360+510440782+509904234+508607191+507911753
4168+508167262+508154144+508332923+509760189+511542156+513085963+513872342
4155+513100667+512003983+511387391+509966542+508054141+507220864+506883794
4141+506713091+508137219+510705106+512677840+513285088+512619376+512366653
4128+513097176+513018824+512201697+511975773+512093584+512160546+512626569
4114+513659853+514325283+513764440+512329346+511256040+511651292+512972913
4101+514094669+514783513+514546693+513560238+513712746+514998259+514868001
4087+513627694+513895826+515349081+516070401+515660621+514906013+514557730
4074+514275352+513779708+513985075+514810277+515233880+515773036+516926351
4060+517776484+517841542+517504437+517244098+516989788+516587765+516462162
4047+516115395+514741833+513308960+513036103+513998615+515638229+516825678
4033+516981924+516861787+516904771+516892923+517026989+517316279+517159363
4020+516611179+516663438+517416176+518151637+518835015+519148565+518697916
4006+518264334+518406123+519019506+519983182+520848971+521220492+521130715
3993+520809724+520607391+520739094+520745688+519991328+519011642+518730921
3979+519093345+519645478+519990517+520480800+521702383+522772127+523103943
3966+523225068+522739298+521386823+520432385+520915228+522350922+523178169
3952+522364639+520488840+519249238+519779438+521455795+523169319+524319460
3939+524848532+524574193+523032008+521018229+520776931+522411784+523617993
3925+523511572+523091460+522375817+521113225+520999928+522792367+524682236
3912+525558991+525674827+524589074+521377866+517796336+516875257+518343638
3898+521124226+523700541+524505045+524095476+525058447+526474782+525297065
3885+522969207+522374653+522551951+523592992+524302464+522816451+520932366
3871+520027542+519743294+520594238+520935433+520780774+522634111+525659418
3858+527312573+524897581+517929803+518123991+525167512+530194539+530962828
3844+528405414+524948465+521895478+519547908+520639303+524842079+527935582
3831+528395893+528110129+528546497+529461617+528235486+525052523+525495943
3817+526854907+527397096+530597231+534094626+533993565+530351631+528069719
3804+527631906+526398581+527035448+529579921+532539323+535621719+537089818
3790+536872992+536350444+535583882+534828640+534892817+534909778+534763970
3777+535901452+536957127+535520904+532505013+531313615+532234659+534436703
3763+537070424+537471318+535966722+535804129+535793903+532891027+528077794
3750+527652358+530547476+531602305+531493451+533358601+535625597+535455458
3736+531799490+528765756+530621174+534574507+537315495+537881557+537296842
3723+537440711+538462393+539429243+539998584+539535769+536550697+533659069
3709+536309117+541200208+544894858+547256639+549443661+552996664+557439786
3696+560937921+561824796+560117550+557605059+556534645+556924537+557254519
3682+556300787+553659026+549585273+543632618+539691698+539783697+539555516
3669+540539644+543269737+544369242+543704623+542800329+542011305+539776362
3655+536184712+532975373+528109177+521788069+522050595+526673554+529414225
3642+529249269+527882442+526330384+524238710+521877036+519005965+514297461
3628+511061675+512199758+513049996+511629923+507697783+503669695+502568144
3615+502045420+500686139+499116696+497333918+496348062+496488088+496030915
3601+494094783+491696964+489466288+486976612+485447650+485620998+485064281
3588+483099340+483409434+485094748+484938537+483349312+481902193+480802723
3574+480109789+479835450+478763343+475587045+472359158+472397100+473772672
3561+474493781+474636522+474169899+472643582+470386741+468931371+468866489
3547+469281805+469534352+469110255+467805348+466333229+465697772+466152793
3534+466685461+466380410+465265389+464034320+463702928+464106572+464094901
3520+463722005+463470622+463093635+462883720+462965317+462847541+462916338
3507+462999274+462436316+461986548+462223157+462747715+463003470+462849904
3493+463180873+463985941+463975997+463301822+463029106+462713228+462217585
3480+462576694+463458950+464020463+464547277+465169758+465417544+465563071
3466+465819849+465509896+465134884+465785010+466903557+467314783+466858422
3453+466451463+466432703+466270180+466509645+467353465+467482771+467233398
3439+467703547+468779603+470356028+471809635+472483986+472661072+472673519
3426+472704691+472702716+472500242+472134292+472151147+472988233+474313980
3412+475585952+476429208+477514891+479557480+481580357+482924369+484010193
3399+484839415+485912792+488133136+490595484+491920702+492499564+493082198
3385+494183573+496417105+499320969+501791004+503661796+505518695+507752439
3372+510345856+513694410+518067995+521977991+524772754+528401076+533070405
3358+536631024+539204624+542634809+546758951+551055982+556211045+561631419
3345+565696885+568108526+570102383+572978143+576325921+579415968+583134103
3331+587356979+590760118+593622196+595859008+596765877+597704411+599681201
3318+601139357+601414542+602059907+602993364+603578009+605025938+607228899
3304+608850529+609253433+608369202+606650178+604009334+600956558+599173428
3291+598658814+598090178+597061725+595328385+592364822+589036016+587185887
3277+586762320+586113145+584634573+583683485+584750268+586081480+584996503
3264+582285839+579870707+578530150+577828048+576706222+575470640+575011528
3250+574908316+574234000+573234921+572825317+572903246+572453232+570734279
3237+568257050+566633339+566459180+566599840+566648890+567333855+568185891
3223+567922836+566833451+566533301+566735423+565658344+564127619+564208863
3210+565467999+566467396+566949146+566959866+566292955+565301704+565077543
3196+566026092+567068755+567341189+567054191+567028098+567852383+568352892
3183+567365203+566155468+566282129+567647369+568950619+569519537+569920924
3169+569893244+569518831+570145861+570937282+570608534+570584415+571512194
3156+571936679+571767139+572256929+573462643+574742902+575637606+576286039
3142+577547327+578871311+579196462+579255420+579735372+580246248+580592345
3129+581338772+582460351+582443531+580994790+580166168+581544702+584066114
3115+585261532+585314813+586048969+587019239+587184159+586463967+585078381
3102+583917237+584138507+585544087+586373661+586285436+586914299+588865312
3088+591598014+594128982+594809398+593229730+591586060+591476325+591718751
3075+591452840+591349769+591527631+591869884+593031345+594749241+595717255
3061+595983836+596240050+596402537+596152318+595484102+595178733+595836581
3047+596855019+597311592+596946137+596322915+596281800+597047056+598087921
3034+598777082+599026032+599275688+599629225+600037489+600785890+601301280
3020+600959309+600704153+601417433+602602026+603447398+603854181+604186067
3007+604685025+605256975+605841408+606890736+608584019+610164463+610916673
2993+611129374+611638981+612822657+614481876+616287716+617920489+619093093
2980+619885642+620642225+621348100+621943112+622303631+621608616+620145594
2966+619795583+621044846+622811263+624095647+624421186+624240786+624042895
2953+623601344+622700328+622140579+623111131+625138628+626668930+627434468
2939+628615747+630002955+630018823+629519442+629941317+630494155+630565949
2926+630501419+630398242+629782849+628042386+625668052+624598978+625515438
2912+626641848+627418318+628751294+629852245+629750267+629782638+631299893
2899+633027874+633174493+632318824+632348868+633651095+635130196+635986217
2885+635877540+635535216+636263659+637686059+638628754+638936028+638875730
2872+638525507+638270280+638633550+639444577+640460194+641790771+642661532
2858+642481625+642360888+642616538+642113701+640894904+640425708+641296327
2845+642100936+642263283+643023180+644298184+644940094+644690298+644079630
2831+644470686+646541273+648601281+649219425+649380643+649988419+650650358
2818+651315823+652023532+652104353+651802721+652416704+653777607+654532638
2804+654873833+655772380+656892796+657663413+657994100+657930417+657999460
2791+658565839+659110285+659154080+659489845+660755752+662162425+663119014
2777+663316481+662705672+662315533+662585358+663030012+663854298+665178387
2764+666219957+666800582+667389881+667971352+668409448+668725607+669008408
2750+669360183+669654268+669931004+670678136+671576754+671726336+671817241
2737+672772419+673773085+674055393+674040513+674262945+674906337+675761653
2723+676143047+676217732+676681216+677306976+678379012+680115103+681471140
2710+682026235+681961847+681680456+682014669+682884090+683595607+684090334
2696+684624836+685030490+685080633+685419783+686425315+687125972+687046914
2683+687020397+687604337+688535819+689431051+689986781+690057234+689937696
2669+689882899+690068518+690901972+692232126+693290552+693448808+692620009
2656+691613983+691429492+692282833+693584284+694466470+694897936+695350419
2642+695871803+696739884+697867916+698626826+699094683+699383056+699562187
2629+700004232+700329982+700181952+700321660+701410552+702956722+703837991
2615+703508432+703000517+703567531+704443440+704618763+704751983+705369068
2602+706278970+707224909+707794532+707647630+707211439+707825422+709594941
2588+710904714+711195203+711219534+711701213+712615981+712886934+712534596
2575+712972268+713972300+714467802+714740095+715062602+715212465+715441457
2561+716231045+717196590+717447444+717365706+717616137+717811348+717311685
2548+716212356+716002053+717367328+718807148+719355331+719618316+720227926
2534+720977385+721434170+721844126+722391181+722683927+722681529+722822789
2521+723557297+724934068+726391024+727356428+727374059+726550691+726169367
2507+727117070+728549696+729035889+728549273+728298136+728679248+729057187
2494+729383220+730183033+730980802+731327921+731976178+732663153+732539101
2480+732496293+733189122+733743018+733831596+734019613+734577952+735040026
2467+735064921+735054625+735203289+735822138+737168443+738322075+738482024
2453+737888564+737230081+737170488+737873472+738665104+738992266+739397215
2440+740041311+740412197+740483991+740384763+740412409+741022795+741928535
2426+742502883+742992320+743282738+742864178+742693016+743348890+744473114
2413+745994318+747238645+747901148+748483748+749033976+749517207+749966798
2399+750277668+750383596+750185352+749759599+749498660+749850927+750506166
2386+750220615+748994060+748021321+747011135+745125744+742937594+741149315
2372+738709535+734576542+730831502+729225034+728409212+727559820+726838923
2359+727049367+729548669+732979877+735842590+739301866+742927861+744213304
2345+741825500+738644300+738027144+738517850+738886832+739664783+740635194
2332+742074802+744548081+747654244+750350872+752000642+752803065+753372688
2318+753857682+754388023+756353670+759578383+761530842+762029659+762694207
2305+763502836+763952780+764342989+765189490+766821276+768802649+770004309
2291+770261863+770654541+771649495+772737963+773475151+773712817+773492994
2278+773345246+774112407+775309200+775535018+775202215+775486357+776131934
2264+776561214+776991693+777455177+777440649+777018422+776779557+777348686
2251+778473263+778985056+779262145+780345747+781351703+781114037+780388697
2237+780405834+780961846+781693603+782836940+783804107+783787604+783627867
2224+784475849+785486882+785306552+784467315+784629379+786115251+787419946
2210+787715090+788075538+789017317+789392505+788901446+788404745+788348537
2197+788967456+789823830+790238794+790573712+791138117+791590035+791616340
2183+791437421+791870368+792817788+793134089+792961093+793584949+794851138
2170+795356937+795317232+795811747+796479257+797194019+798076909+798175784
2156+797479218+797198673+797594595+797754755+797509755+797861247+798976444
2143+799786201+799821745+799804397+800010397+800007788+799714831+799401069
2129+799878799+801367704+802733684+803363182+803299640+802762740+802391502
2116+802464423+802780089+803245689+804002977+804759347+805003290+804753846
2102+804148115+803886541+804739671+805814599+806043802+806284995+807044680
2089+807201243+807100605+807903734+809209487+810163889+810156484+809876010
2075+810511643+811487626+812140749+812463256+812128196+811595246+811544821
2062+811752585+812348443+813027378+812785198+812282785+812524964+812998745
2048+813054459+813157354+814106185+815376676+816234389+817082794+817772661
2035+817520749+817022284+817582316+818732070+819222988+818912612+818871919
2021+819697897+820048895+819240407+819082927+820469783+821957418+822750884
2008+823522488+824342330+824682186+824621394+824322019+823939074+823993659
1994+824180901+824088726+824490431+825185234+825596389+826139213+826542611
1981+826381463+826218905+827078946+828827097+830162470+830721021+830191526
1967+828626597+828304443+830125445+832085803+832558526+831993769+831888265
1954+832506267+833092675+833734867+834415142+834270850+833372867+833219336
1940+834173174+834613033+834601679+835744733+837359452+837759888+837430258
1927+837248659+836823822+835963428+835362210+835624348+837142238+839101820
1913+839771587+839243996+839165432+839867358+840431480+841085873+842324770
1900+843400121+843604288+843585670+844210583+844551990+843927570+844343310
1886+845863950+846127216+845779321+846427790+847078374+846723709+846505437
1873+846956227+846263469+844075671+844171090+847494255+850432287+850501824
1859+848852125+848581172+850427280+852483621+853119114+852255335+850900849
1846+849565406+848861082+850258305+852591311+854504629+855790565+855753470
1832+853972102+851392402+850436872+851228716+852457175+854526915+856935665
1819+858881001+860387748+860756236+859376714+857486669+857275661+858813157
1805+860232242+860243949+859088059+858670698+859724116+860012700+857977658
1792+856513226+859157949+862274125+863023585+863096224+863827841+864719618
1778+865711398+865369286+861562044+855648530+854545110+858808361+863478747
1765+866166067+866086022+864819198+864649799+865007920+865887638+866479828
1751+864353951+860909696+860710889+862174475+862825342+862704675+862208044
1738+862876119+863497295+861224868+860735502+863946886+867048958+868881173
1724+869498823+868646469+865319707+859039327+855585834+860536835+867402354
1711+871631753+871717933+867856952+864366857+863971569+861591170+856684035
1697+856454620+860438736+865153905+867539029+867226608+865381134+860200436
1684+853621104+855688799+861059912+864153803+864173268+863234240+862241966
1670+859174522+857711853+859986818+860696713+859085944+860019330+862520043
1657+862133218+855670322+845376840+845566620+845824245+840693125+841292579
1643+847820428+852097361+852098701+847381205+842824433+847134511+853252545
1630+855600080+855289844+855318195+856916905+860454816+863385373+863155042
1616+863487915+868728347+873591335+875255844+876209611+879020207+882190899
1603+883932420+885008336+886271069+888050462+891218121+894415753+894970777
1589+894508986+895509652+896578233+896805109+897601255+898632105+896970205
1576+893660652+895383343+898390913+898475824+898996574+901217306+902448445
1562+901562874+894557718+885571752+893300697+903091060+908910706+912386485
1549+914276883+914059810+909869763+900910456+891962503+896459117+906866707
1535+910922194+911316494+914087314+916942340+916410095+915047217+914089783
1522+912025473+912452778+914899611+918873854+925488588+930833185+931451469
1508+924821854+918016281+925166082+933988855+938089547+937115398+935688414
1495+938229397+939852438+936426872+931763256+932504252+935365767+937105172
1481+938539844+939474358+937643906+932628869+926452229+925505514+930896163
1468+934447050+933267041+931766782+932891994+932330552+925918009+921637551
1454+928114200+936779986+943120311+945663551+945577159+945027917+945220518
1441+946618023+946676699+944295595+945868000+951087909+954383993+956483636
1427+959175469+959410385+956118815+952282094+947761430+944435938+945527157
1414+947533567+947370233+944950623+942680453+940843442+939184363+938917782
1400+937265615+932617020+927746628+924857398+925602485+926600541+922586664
1387+915527416+912913371+915167108+918291748+918947974+916087800+913086437
1373+914218983+917273521+917932005+917031060+916077856+914341342+914254739
1360+917750758+920951916+921430351+920449291+919732625+919186275+918189206
1346+917426629+917144744+915670650+912538112+911565585+914284218+916382379
1333+917382270+920191102+923820976+925908630+927338505+929499998+931431299
1319+931958114+931790901+932388452+934822167+938557827+941679434+943608550
1306+945285965+947790698+952112201+957994684+963044490+965742741+967482358
1292+969457808+971058634+972522502+975119763+978191086+980411254+982285713
1279+983928360+984205661+983668691+983808187+984307074+984361378+984428869
1265+984723660+984146280+983165219+983687873+985095534+986754824+989309065
1252+991163143+990625467+989939973+991949486+994850282+995295359+993833607
1238+993309472+994977084+997147110+998521272+1000217375+1001667491+1000978189
1225+999470596+999472218+1000520417+1000925578+1000105736+999640559+1001631454
1211+1005018513+1007010395+1006902282+1006054512+1006014031+1006547757
1200+1006543667+1006765536+1008690278+1010619676+1009974169+1009283739
1188+1010700144+1011180342+1010043353+1009377677+1009582267+1010311204
1177+1010427498+1010305421+1010880403+1010733008+1011387048+1015133005
1165+1017889297+1017316853+1017213747+1018064973+1018788761+1020833677
1153+1023139180+1024059730+1024794944+1026426166+1028194204+1028743516
1142+1027997512+1027089233+1027116314+1026686964+1024337736+1023368242
1130+1026277995+1031359254+1035620036+1036000725+1033128773+1030539059
1119+1029973809+1031107624+1032109348+1032003209+1032233047+1033151623
1107+1032104129+1028647110+1026277148+1026003374+1027466184+1031053391
1096+1033080323+1031794740+1031327659+1032805138+1034465628+1035538017
1084+1036158487+1038009885+1041272470+1045292201+1050228886+1052819447
1072+1051321374+1051386962+1055606840+1058981276+1059652595+1060333293
1061+1060766663+1059962407+1060116784+1062902203+1065838331+1066408942
1049+1064805013+1060587391+1055428908+1054722539+1061033808+1069865326
1038+1073741823+1072030415+1069686195+1067802568+1065542271+1064022619
1026+1063901740+1064881531+1065026106+1063055804+1062656849+1065045570
1015+1065859771+1065036191+1065952862+1067548893+1067893826+1069245843
1003+1071273551+1069591693+1065461662+1063097625+1062367207+1062194776
991+1061686297+1059379173+1056936854+1058029201+1062049073+1062934996
980+1058412993+1054814502+1054904844+1054131406+1052227397+1054334233
968+1060824140+1064416143+1061401380+1057844498+1058324062+1060767651
957+1061638834+1060080323+1058536198+1059775306+1063125905+1065177944
945+1065019688+1065041339+1065471536+1064083975+1062667992+1064156826
934+1066254564+1066733352+1065977969+1064882942+1065018983+1066021906
922+1066450621+1066410423+1066390605+1067543110+1070320207+1070959648
910+1067090980+1062784004+1062462203+1066966858+1071047169+1068747449
899+1064120647+1062421934+1062751845+1064713331+1066211122+1063663440
887+1062457055+1066901693+1070348698+1069175601+1065173219+1059758310
876+1054988203+1050833136+1047645096+1046720878+1047710542+1048633490
864+1046772854+1044333003+1044132221+1042586757+1038618790+1035009439
853+1031479568+1027394955+1022021867+1016270558+1013972955+1013137526
841+1008629769+1003812622+1003277203+1002892988+999993603+996476849+990382300
827+982639180+978384040+979532595+983530816+984436416+981106269+978626995
814+978243979+975879236+971404272+968848198+968004236+966199384+961158676
800+954626314+952142597+952737185+952272220+950308054+946467313+942040941
787+940101811+940683493+941752003+941427311+937842572+932496706+928892151
773+925775410+921001212+916038715+911541677+907885992+906915087+907794663
760+907229201+904415714+900624763+897146304+894463216+891806927+890360407
746+890705270+889495006+886273255+884185320+883350667+881323664+878603128
733+878505099+880834650+882051050+881990117+882927029+882392880+878123635
719+875964681+879119505+881292140+878078217+873269322+870683204+869645372
706+868470793+866502890+865660691+866601694+866339556+864705936+861882999
692+857195123+853732602+853563768+855225879+856338467+856080349+854729178
679+851046270+845322677+840311731+836442004+830515655+824040205+828113958
665+839291953+845770787+847439034+843960082+837602689+834574456+837196682
652+840707230+839251683+835468702+834129379+834620085+836463444+837874419
638+834383830+829345661+829519009+829358637+821881322+817421310+823690759
625+825357877+809145945+790534501+789120070+803119310+810447184+805376715
611+801423559+796594634+792698532+799838742+809521062+809766204+801629560
##END=
