##TITLE=Sample description
##JCAMP-DX=4.24
##DATA TYPE=INFRARED SPECTRUM
##DATE=25/8/2023
##SAMPLING PROCEDURE=Instrument type and / or accessory
##ORIGIN=Default
##XUNITS=1/CM
##YUNITS=ABSORBANCE
##RESOLUTION=4
##FIRSTX=4397.6552
##LASTX=599.8556
##DELTAX=-1.9287962
##MAXY=1.9179424
##MINY=0.63697189
##XFACTOR=1
##YFACTOR=1.7862231e-009
##NPOINTS=1970
##FIRSTY=0.75093496
##XYDATA=(X++(Y..Y))
4398+420403798+421211597+421106751+420404132+419089523+418039264+417905554
4384+418202906+418194831+418158659+418511570+419144715+420177455+420893923
4371+420547352+419880604+419797982+420305259+420528732+420084623+419649523
4357+419605509+419871160+420097770+419837625+419657164+420144620+420632009
4344+420996400+421737060+422203193+421566711+420448746+419917110+420447812
4330+421851383+422387324+421302828+420288141+419669544+418949539+418789668
4317+419246424+419444370+419453646+420293046+421327421+421264487+421050091
4303+421637020+422125610+422036014+421577055+420768422+420433597+420945145
4290+421495401+421694948+421198049+419999765+419239317+419688064+420742961
4276+421438640+421680233+421692346+421287945+420784673+420725910+420812302
4263+420660073+419984982+419113382+419464191+420601543+420511814+419560461
4249+419403593+420141650+420838898+421088632+421279203+421233454+420386913
4236+419683793+419915775+419872395+419461154+420112819+421336397+421939877
4222+421999408+421856054+422053366+422495273+422481291+422200624+421752243
4209+421354750+421520194+421428930+420815172+420987357+421959565+422627815
4195+422882855+422887927+422634755+422472582+422558240+422835337+422801067
4182+421808103+420719436+420726244+421297489+421342304+420949082+420928861
4168+421093370+420710460+420342532+420872634+421908744+422377780+422033645
4155+421659143+421378743+420899896+420763450+421123636+421569948+421963069
4141+422109092+422106723+422172694+422120771+422009252+422046558+422219611
4128+422191080+421370701+420187199+419774257+420301021+421309202+422055735
4114+421883884+421289214+420919451+420872033+421180097+421522664+421924361
4101+422697723+423375282+423303672+422449424+421811774+422130448+422535683
4087+422673297+423326096+423965615+423360366+422268730+422117801+422454562
4074+422558641+422623543+422519932+422169490+422124642+422637558+423170496
4060+423186580+422822390+422445686+422056536+421761119+422101818+422569819
4047+422044790+421375806+421794021+422630417+422989703+422585569+421852150
4033+421971244+422814682+423156148+423073159+423533652+424558851+424763570
4020+423705369+423017432+423246344+423624716+423762831+423148673+422449891
4006+422882321+423533218+423361768+422992405+423058209+423584173+424206673
3993+424432215+424438522+424502958+424151448+423238469+422768532+423278312
3979+423682445+423207669+422618905+422672196+423075428+423380254+423671333
3966+424065122+424435819+424664864+424776351+424992983+425399085+425383168
3952+424362674+422995309+422381451+422432072+422359694+422150904+422511323
3939+423394103+423731497+423008189+422333199+422950894+423960409+423605963
3925+422251812+421973514+422531545+422614233+422850754+423880257+425111677
3912+425592659+424802946+422878417+419859348+417146507+416964679+418722396
3898+421472677+423794498+423534586+421234922+420891220+422386089+422675165
3885+422080562+421501941+420748901+421294920+422384154+422297027+421410810
3871+420007974+418936425+419022051+418846195+419381936+421694081+423138328
3858+422202659+418623757+413842166+415584667+420945212+424211912+424729100
3844+423582371+422273468+420594869+418809990+418993353+419960256+420666780
3831+421846044+422987333+423395104+422923265+420749869+418419438+419504000
3817+421469040+423425303+426222267+427796821+426674251+423985436+422542490
3804+421505312+420050252+421000838+423362202+425851937+428449754+430158785
3790+430758528+430384994+429142062+428539550+429150872+428963738+428400534
3777+429430672+430353561+429485564+427607418+426662739+426968333+427963266
3763+429169225+428921826+427274361+426851041+427174187+425474499+422027939
3750+422567884+426640882+430659889+435413417+440368493+443932046+444960748
3736+442978858+442322621+446675419+452005398+454124469+452197737+448931136
3723+447233684+446284233+444787429+443066551+441585664+440795317+443206568
3709+449577029+456002014+460541879+464197563+469682942+477392771+485469326
3696+492960287+498498923+500590398+499621359+499166739+499694471+497960279
3682+492784733+485480638+477521242+467922455+460775396+459312428+457967420
3669+456722653+457370113+457477962+455992771+453612153+450853163+447880477
3655+445900355+444224426+440448412+435804736+436039454+439651792+442648770
3642+443973690+443903348+443111733+442576660+442315180+440696245+436181640
3628+431752927+431257496+430758395+427104746+419965962+413501167+410726661
3615+408288348+405758270+405140407+405931889+407348474+408808872+408975918
3601+407563271+405650521+403608466+401578657+400158001+398573270+395392661
3588+391421706+389371842+388805902+388425328+387665647+386194537+384590885
3574+383329500+382023100+379872963+376546431+374203153+374608187+375284545
3561+374812439+373941172+373280464+372277356+370598490+369072822+367967170
3547+366964095+366446707+366540108+366663440+366359180+365769482+365171140
3534+364367646+363203198+362090639+361729652+361957864+361814443+361098176
3520+360457222+360208656+360025559+359398688+358460716+358030722+358548677
3507+359439164+359455449+358353201+357626288+357711246+358002291+358454709
3493+358609142+358034626+357226960+356810247+357068557+357660358+358064525
3480+357994249+357239807+356602658+356969217+357672738+358050109+358259000
3466+358306217+358072700+357940892+358173208+358289466+358443531+358871189
3453+358841924+358308853+357759665+357280685+356957738+357121013+358042234
3439+358933923+359182589+359454915+360023624+360584525+360944811+361081491
3426+361204890+361362259+361712300+362426499+362896603+363094281+364013934
3412+365363914+366101104+366766250+368059769+369119071+369421228+369954967
3399+371370651+373158934+374481952+375017893+375406476+376511627+378266775
3385+380183362+382458867+384804147+386418344+387930731+390281984+393232046
3372+395831131+397850095+400500869+403888432+406693038+409153108+412304985
3358+416165089+420262180+424233903+428201021+432273318+436320222+440553158
3345+444798341+448464903+451623355+454953590+458857908+462599384+465319733
3331+467299054+469063578+470873117+472586187+473841732+474997938+476591879
3318+478366281+479632872+480459024+481488894+482468310+483067152+483318855
3304+482727521+481518459+480727011+480697279+480742094+479870159+478080174
3291+475943918+473645822+471493883+469935346+468672292+466609348+463727493
3277+461580325+460564337+459336321+457537126+456101420+454868399+453074744
3264+451272112+450078466+449323123+448616766+447562103+446525258+446002364
3250+445905994+445677883+444532222+442939082+441742466+440727979+439827013
3237+439333584+439412502+439560494+438823805+437161657+435141792+433572611
3223+433184695+433353843+433340161+433596870+434232551+434629977+434518891
3210+433982350+433150291+432622292+432785901+432803953+432320569+432206647
3196+432461753+432522352+432760807+433009440+432253096+431083176+431078971
3183+431917637+432400354+432919978+433736786+433863989+433464661+433628170
3169+434517056+435309372+434984357+433968301+434065839+435424528+436329832
3156+436301702+436091343+436165823+436907551+437973994+438141774+437506326
3142+437552175+438378194+438703009+438334547+438816263+440384477+440856283
3129+440056726+440022222+441367898+442848318+443103791+442580464+442723017
3115+443775411+444315557+443527212+442556872+442926201+444716053+445591991
3102+444374987+443467381+444728633+446560729+446182090+444418467+444227996
3088+446056255+447731884+447261213+445807756+445600000+446416141+446710723
3075+446447875+446678823+447493262+448225113+447807933+446585456+446163370
3061+446523523+447240591+447885015+447769892+447397192+447599276+448278437
3047+448600315+448290950+448106419+448457963+448660513+448321049+447922489
3034+447776466+448266024+449257686+449644568+449153541+448665418+449521102
3020+453378235+459858513+464457542+463515599+459342694+456157380+454902903
3007+454042848+453279496+453523291+454388685+454992599+455421559+455974051
2993+456514763+457124851+457981869+458748524+459268081+460064501+461640790
2980+463225455+463521639+463032548+463002349+463602326+464525582+464865212
2966+464164828+463699229+464312754+465807055+467162908+466685863+465115147
2953+464680247+465599499+466616055+466844800+466878503+467329119+467955958
2939+468861862+469410884+468695617+467845206+468284510+469404744+469661719
2926+468714638+467574416+467018520+467086159+467129172+466211555+464956477
2912+464759699+465437793+466253567+466985251+467370797+467477278+467795953
2899+468365830+468815145+468966007+468870638+468857457+469164987+469623011
2885+470183278+470773978+470999887+470844720+470665228+470548336+470604496
2872+471150815+472074972+472671912+472631302+472501429+472428017+472112179
2858+472031058+472629833+473419346+473749734+473259575+472182020+471578540
2845+472066463+473147221+474311135+475304033+475789419+475813111+475808039
2831+475892396+476045093+476467379+476964579+477136530+477212912+477551708
2818+478119884+478801981+479442868+479873263+480157968+480602411+481287144
2804+481826956+482099014+482494405+483277811+484126788+484340683+484109302
2791+484304211+484815392+485117049+485285763+485576441+486150957+486927956
2777+487602446+487987992+488028769+487880210+487910109+488095841+488060169
2764+487856351+487923390+488590938+489908283+491266072+491754495+491425076
2750+490998185+490820695+491103998+491785695+492246956+492402123+492660066
2737+493007872+493591230+494411976+494943746+495288015+495785215+496250347
2723+496541092+496632723+496423966+496247944+496803573+497901049+498724164
2710+499225468+499696807+500029864+500207888+500537808+501116929+501733022
2696+502234626+502606325+502809376+502793325+502739467+502793993+502903376
2683+503261126+503886029+504218920+504218286+504520009+504988010+505143410
2669+505401520+505990685+506303420+506177919+506220665+506731712+507212061
2656+507091598+506634508+506712792+507664045+508782544+509280010+509309375
2642+509456366+509852690+510082770+509913255+509818087+510040892+510378621
2629+510985938+511798442+512240383+512288968+512501529+512977773+513348870
2615+513480411+513646489+514102645+514729183+515442014+516096782+516251681
2602+516123110+516309677+516731629+517192156+517732034+518167301+518350430
2588+518531157+518810891+518907227+518861044+518951575+519318735+520147056
2575+521139052+521625240+521517258+521188939+520949649+520786875+520686834
2561+520882010+521258680+521629344+522139591+522579930+522806739+523244942
2548+523780883+523936317+523968284+524178843+524302409+524358569+524644676
2534+524755862+524451135+524591018+525418071+525981909+526015111+526101737
2521+526422881+526842965+527381008+527988993+528355519+528344107+528426562
2507+529120506+530143736+530546534+530255155+530302506+530757593+530850994
2494+530718852+531039062+531626892+531767442+531789833+532169540+532534097
2480+532970899+533623999+533901496+533692105+533587660+533731581+534005507
2467+534604649+535280340+535542321+535365598+534936572+534819213+535294656
2453+535703894+535742269+535896300+536518501+537440689+538083911+538074735
2440+537686552+537398377+537473991+538076537+539154759+540090996+540397658
2426+540343533+540098804+539745225+539800685+540377369+541097775+541536612
2413+541386184+541213165+541631547+542237262+542692350+543177103+543830103
2399+544558150+545127727+545967427+548662114+555123239+566783267+584364842
2386+607432964+633972071+661237557+688072649+715484759+744088479+772295040
2372+798016739+821750974+843923268+862705530+879887076+896375880+905157357
2359+901865563+888960867+869565748+846335387+823709473+810840815+815157908
2345+832598932+843843783+839213354+829712506+822764460+819082914+819349133
2332+821509582+820193972+815631816+812697271+811704340+809016260+802703695
2318+791959447+779207982+772906295+776346115+780344266+774341500+757235835
2305+736432808+720719902+711022577+702621774+693848706+684004222+671125220
2291+656881890+644713449+634604215+625081410+616426935+609406011+604105131
2278+600294447+597283020+594245631+590919533+587666180+585052913+583066251
2264+581449184+580406867+579614685+578408593+577324297+577043930+576670063
2251+575287848+573743793+573042909+572869123+572340623+571470290+571287494
2237+571857238+572071268+571683919+571374988+571266138+571077336+571208143
2224+571923309+572367118+572188860+572390143+573174116+573672851+573813735
2210+573977511+574179193+574311335+574411242+574665314+574991063+575263956
2197+575637089+576184276+576738469+577077032+577215180+577348723+577452435
2183+577371748+577379156+577830373+578401919+578644979+578792070+579205980
2170+579698708+579923349+579837991+579844198+580446176+581423157+581913215
2156+581547089+581032605+581110221+581672290+582297026+582569518+582322187
2143+582132850+582485829+582816984+582922497+583653747+584827605+585232706
2129+584920104+584956076+585676314+586596901+587164710+587251002+587273760
2116+587390485+587365258+587525563+588129610+588693948+589050998+589251746
2102+589139893+589181604+589739402+590278980+590559948+590777181+591033656
2089+591516773+591970059+592042270+592152388+592542806+593048882+593690570
2075+594311969+594844873+595425295+595791888+595801966+596085203+596990573
2062+597923906+598497721+598708013+598793305+599342093+600215229+600912376
2048+601565743+602216774+602714507+603254953+603999351+604694963+605183019
2035+605579444+605890844+606079380+606143515+606311428+606789140+607305160
2021+607672020+607719738+607416679+607388316+607808166+608202321+608383983
2008+608693648+609354623+609712540+609410216+608956329+608739430+608951057
1994+609212204+608963737+608648333+608814711+609421628+610259326+610978163
1981+611500790+611965621+612385071+612881402+613444473+613722037+613659903
1967+613634076+613958824+614708360+615579694+615996875+616125879+616717647
1954+617471855+617702369+617756761+618056882+618449636+618569965+618568430
1940+619251896+620420215+621256711+621683636+622006315+622497307+623276943
1927+623811316+623442053+622765795+622770734+623222084+624057580+625374658
1913+626228973+625958417+625232105+625245052+626124194+627090697+627717635
1900+628211431+628563275+628454892+628240262+628322750+628702290+629659917
1886+630750419+631464517+632165135+632809158+632898587+632347530+631799143
1873+631672474+631126956+630323027+631478599+633994295+635897001+637047367
1859+637416429+637020071+636667159+636733697+636891533+636703865+635876846
1846+634542816+634256042+636054770+637781487+638482705+639091090+639591493
1832+638540367+636210470+635700123+636962943+638063589+639365718+640626069
1819+641125938+641278701+641566410+641520961+640984653+641032304+641899233
1805+642510755+642269630+641597109+641638354+642624010+642948758+641520894
1792+640814204+643333504+646122759+647202250+646990556+646209786+645735077
1778+646134906+646248895+644646444+642291453+642850052+645800214+648287946
1765+649171693+648228616+647057294+647341465+648458930+649789756+650058110
1751+648023596+645640376+645965257+647647460+648655340+648370568+647802493
1738+648004710+647070375+645023715+646878970+650886331+653728911+654879077
1724+654784108+654385948+652729173+647867763+644191757+647577185+652236178
1711+654428994+653910305+651522413+650069789+650481230+649301966+645717058
1697+644496150+647259778+651241645+653009406+652372323+650493243+646423148
1684+642228653+645194765+649713874+651236173+650066920+648818248+648442512
1670+647472406+647963532+649829398+649471014+648101280+649436110+651068860
1657+649606960+643544530+636319854+637848559+639382269+638725699+642196151
1643+647308830+649656413+648965673+645365348+643347385+648435838+653558194
1630+655468775+655742201+655987798+657182679+661136983+665406225+666728108
1616+668122803+672763443+676518467+678029219+679434125+681887821+684293199
1603+686141312+687831324+689378648+690339078+690941123+692044505+693561731
1589+695159777+697090580+699237948+701035340+702065444+701695047+699348600
1576+698362543+701746102+704199932+704090948+704970958+707091764+708252809
1562+707906771+703791761+698506030+703793563+711180680+716314381+719834086
1549+723221984+725239546+723398706+717663761+712712788+719239983+729346614
1535+734169516+736874948+740799221+743517000+743819591+743309511+742447320
1522+743397805+748703758+754408806+760253603+766552620+770315786+770131522
1508+767408537+770901814+781942179+789345246+792225733+792138172+794211661
1495+801215567+806764713+807555294+807722673+812793241+819695237+824864644
1481+828963436+833072240+835246570+833933963+832203976+836865705+845619553
1468+852398551+857876355+863647673+867325281+866695606+861634716+862665754
1454+873332185+881594839+886536736+891325267+895902372+898941095+901272527
1441+903819257+905089284+904325332+906351837+911217118+914161140+915337000
1427+916834271+917096685+916461605+916636459+914513651+909980726+908131077
1414+907864125+906486315+904146073+901864629+897507826+892218091+890124981
1400+887510245+881734389+877655017+877079000+877862707+877562852+873435228
1387+867210624+865242449+866629669+866891950+865718959+864602630+864444927
1373+866793911+869977256+870419463+869398169+868447216+865527955+862723215
1360+864353162+867976178+869359995+867810401+866780831+868730787+871187687
1346+871766240+872663201+874285073+873190233+870569624+871255025+874339064
1333+876811313+878092753+878713151+878596827+878117780+878508532+879885341
1319+881804598+884261898+886928756+889630384+892133667+894067005+896432874
1306+900674286+905765542+909389760+911987677+915723214+920387412+924148710
1292+926529394+928015921+929326125+930852894+931891941+932601969+934067539
1279+935936609+936821824+936496409+936170927+936440549+937956974+941182497
1265+943216477+942243434+941170017+941814174+943000512+943499314+943795231
1252+945191394+947460292+949722249+951693628+952292871+950937418+950139696
1238+951678345+953241554+953524724+953933762+953717731+952098529+951687422
1225+953225937+953212389+951158922+951392773+954080319+954766588+953128633
1211+952546476+954878842+958581877+960081551+958730436+957197593+957365507
1198+958634667+960148089+962000541+962659514+961385281+960262411+960845970
1184+963152041+965121552+964590583+962429400+960913843+960598505+960042042
1171+959659298+960564268+961227312+961260748+962618670+966012640+969024334
1157+969638326+970082335+972044972+973622662+972707281+970857499+971715819
1144+974297519+975201221+975230118+977013363+980389180+982635254+983192651
1130+984213012+986031694+987494528+988101579+987994397+987684198+987848441
1117+990027376+994768857+999071668+999258268+995183235+991316691+991371483
1103+992892046+993488619+994772728+996279209+996281678+997781085+1003360598
1090+1008051025+1009392529+1012755399+1017944894+1019827912+1020640049
1078+1024390602+1028260549+1030063815+1029851721+1025658027+1020459189
1067+1020883510+1027324880+1034266185+1037735703+1037856967+1035930302
1055+1034264250+1034779335+1037804310+1043318887+1048185969+1047771992
1043+1044554878+1044812621+1047433029+1046946841+1044221254+1043862603
1032+1046567501+1050369643+1053438999+1054713831+1055401035+1055621671
1020+1053413371+1050605762+1050233563+1051586547+1053404495+1054147424
1009+1052182652+1049206930+1046139242+1043167725+1044064285+1049751113
997+1054660908+1054218567+1051159622+1049284146+1048037744+1046883106
986+1045164264+1042812744+1042664852+1044626621+1045436089+1044139499
974+1042527772+1042586702+1044384161+1045761437+1045797543+1047217398
962+1050460940+1052207812+1052132732+1051543567+1050205934+1049012855
951+1049135854+1050313249+1052391943+1055517159+1060039405+1064256324
939+1063893068+1061644392+1063409817+1065934923+1065673443+1064854499
928+1063732697+1060913409+1057261428+1055970445+1057917131+1061956326
916+1067831489+1070648842+1066667175+1062753981+1063889198+1065310988
905+1064270940+1063992241+1064753524+1064707608+1064028147+1063789357
893+1064760198+1066933527+1070421598+1073741823+1073196705+1068286043
881+1063866440+1061586530+1058142239+1055264822+1055257748+1054363723
870+1050435179+1044585978+1039295642+1036383588+1034152797+1031468587
858+1029368336+1027972240+1026399021+1024058246+1020626034+1016079295
847+1014609853+1020207118+1025883602+1021976548+1012026218+1005675078
835+1003732864+999209016+991082907+983839078+980941839+985407825+990793597
822+986961290+979399453+975171722+971775149+969148734+969366968+971362106
808+973557392+972790637+967002768+959026420+951930949+946778294+945348629
795+948223443+951857204+951525982+945476165+938034791+934126135+931569128
781+928589602+928465469+929967612+926986284+919935328+915649334+917062249
768+920674787+921009812+916516731+910373480+905132931+901166814+899202843
754+899580514+899845331+897603062+893807728+891258863+892098362+895391692
741+897739408+897460309+895169921+891407155+888991099+890752120+892022615
727+888008179+883278043+884104796+889992773+894100441+892924915+890417094
714+888687574+887169013+885729804+883573894+881431598+879744590+878509733
700+880013678+883911188+887976545+891087212+892346228+892225098+891206740
687+891505260+893891818+893254335+887553892+879441131+871622352+870240538
673+880435130+893794313+893141814+879810194+875284944+876844816+876753651
660+874295684+872175812+872999829+873528996+875477751+882610194+881259013
646+864006057+849590608+850404881+854834895+849750446+841292783+838717356
633+849556305+870362669+873670347+854245530+837754057+826798450+813526026
619+807124032+811290096+820760712+832441630+834147659+827924389+829758956
606+830976394+826638478+831715519+845021178
##END=
