##TITLE=Sample description
##JCAMP-DX=4.24
##DATA TYPE=INFRARED SPECTRUM
##DATE=25/8/2023
##SAMPLING PROCEDURE=Instrument type and / or accessory
##ORIGIN=Default
##XUNITS=1/CM
##YUNITS=ABSORBANCE
##RESOLUTION=4
##FIRSTX=4397.6552
##LASTX=599.8556
##DELTAX=-1.9287962
##MAXY=1.9226114
##MINY=0.69604135
##XFACTOR=1
##YFACTOR=1.7905714e-009
##NPOINTS=1970
##FIRSTY=0.75569391
##XYDATA=(X++(Y..Y))
4398+422040657+423238361+423805157+423026283+421546163+421475292+422883843
4384+423176479+421721058+420406846+420219034+421050171+422224174+423030011
4371+423089597+422052774+420801109+420629676+421329690+422084131+422686112
4357+423189195+423540284+423922730+424246656+424156246+424059378+424352479
4344+424671978+424927397+425117638+424653137+423770704+423714713+424805929
4330+425964054+426094610+425563465+425450353+425772415+426105462+426583645
4317+426910300+426756842+426898050+427567839+427719866+426806142+425622951
4303+425432177+426416772+427490411+427926551+427842765+427604989+427959307
4290+429048059+429722342+429112239+427725758+426743627+426433149+426374296
4276+426884435+428133204+428953488+428680692+428567280+429106014+429286835
4263+429098857+429229313+429825802+430642724+431175399+430987888+430199627
4249+429195625+428471810+428678495+429224985+429017401+428764379+429388397
4236+430322093+430613131+429745677+428463155+428547440+430255983+432024844
4222+432754019+432834842+432960638+432564344+431583478+431545330+432508753
4209+432738840+432160560+432141153+432192117+431605148+431544797+432083331
4195+432296475+432639308+433521708+434083611+433739046+433303305+433356267
4182+433255570+432620600+431725185+431548492+432941464+434561494+434709027
4168+433660686+432654887+432733147+433784717+434791115+435085714+434766282
4155+434219659+433608590+433101646+432925552+433338125+434322985+435215971
4141+435596120+435873277+436315708+436231789+435357511+434846540+435209180
4128+435634834+436004099+436754278+437643136+438504331+439091500+438639914
4114+437446237+436630780+436504185+436879208+437258426+437100973+436828644
4101+436902477+437264551+437671564+437541075+436989392+436629681+436578351
4087+436805975+437059630+437130733+437452495+438356299+439035842+438881019
4074+438820335+439440458+440144667+440440598+440316667+440237408+440537000
4060+440465830+439470351+438677163+439120327+440101026+440546554+440478979
4047+440678008+441455984+442011928+441964858+441973513+442072612+441927775
4033+441467335+440805868+440480577+440399387+440378782+441012221+441975277
4020+442419573+442522766+442646265+442858110+443243852+443559856+443553897
4006+443349508+443320048+443624068+443630559+443301773+443709286+444824402
3993+445483040+445305748+444915412+444849102+444746641+444106745+443405798
3979+443362291+443766208+444000390+444124255+444335101+444644780+445700378
3966+447153202+447161890+446026467+445947508+446842424+447265882+447117384
3952+446844954+446483978+446380386+447082198+448012866+448135000+447585314
3939+447093549+446588137+445408674+443991502+444148488+445711829+446766261
3925+446877843+446924679+446623555+445267699+444462361+445937122+448271481
3912+449726468+450384640+449891144+446984231+443751262+443643142+445175092
3898+446914093+448401171+448353835+446635772+446218706+447585980+447349035
3885+445814189+445319995+445701410+447799556+449257839+447475996+444808690
3871+443179240+442944060+444647310+445794350+446542133+448886311+450370393
3858+448777160+443851725+437576793+439587125+446753612+451581645+452787705
3844+451435111+449204046+446824515+445681270+447872590+450713992+451734338
3831+452128834+452130599+450980163+449651637+447510649+445404480+447663508
3817+450996940+453258564+455681869+456949178+456065946+454112603+452964598
3804+451414373+449339861+450756301+454030015+456675717+458601231+459209537
3790+458815174+458460023+458154838+457811872+457492706+456601351+456517865
3777+458522239+460107416+459461894+457520668+456543929+456699917+457117383
3763+457960769+457942228+456598222+456351891+456795687+454777132+449641551
3750+447820128+451160085+454272885+455682901+457345772+457981940+455033351
3736+450261940+450218133+454638987+458369946+459738518+459173087+458328436
3723+458695936+460269462+462312384+463555060+462666669+459294555+456586505
3709+458313722+461497059+463380198+463854753+464700203+467180496+469457233
3696+470038509+468697699+465382675+462721195+464885251+468360525+469647541
3682+468866170+466444697+462517239+458000715+457502958+459463226+458746201
3669+458309362+460657069+462610312+463174778+462962433+461835266+459185570
3655+456275495+453598902+447957707+440219166+440211576+444860586+447753119
3642+449210470+449997866+449013505+446363609+443626498+441239977+437396305
3628+433692043+434218361+435246629+434254578+431104596+427646466+426707343
3615+426534911+425285843+423603132+421564671+419904828+419747975+419774073
3601+418655394+416899815+415299492+414132945+413691512+413228209+411208722
3588+408400442+408224381+409563826+409616155+408209601+406990593+407020186
3574+407174576+406181793+403537423+398690715+394737991+395482877+397465082
3561+397927453+397712878+397686580+397172346+395917819+395212745+395243670
3547+395020240+394743783+394600478+394356543+394212971+393893073+393113067
3534+392319780+391527790+390360078+389367195+389200988+389429377+389718451
3520+390175929+390675716+390934630+390595025+389785293+389357342+389639292
3507+389835758+389291365+388725834+389079586+389651442+389985388+390733604
3493+391342242+390678678+389559534+389176555+389250321+389621816+390333148
3480+390750913+390761299+390792590+390979369+391385184+391989163+392259129
3466+391664038+390844653+390850012+391379891+391726087+392215422+393030113
3453+393638553+393869738+393813748+393681328+393710688+393306870+392726526
3439+393337362+394741852+395537936+395471793+395429983+396284853+397229003
3426+397267916+397348973+398186068+399033082+399970341+401623160+403073420
3412+403443118+403675435+404681567+405924609+406788434+407746099+409165768
3399+410453017+411386714+412488748+413893238+415435507+417165554+419039372
3385+420848378+422654489+424758893+427075176+429073991+430389668+431709373
3372+434546881+438489485+440985324+441824649+443366685+446242773+449423048
3358+452521567+456126564+460748012+465267831+468652594+471828708+475266066
3345+478404564+480829998+482645196+485128352+488303534+490481072+492138318
3331+494795471+497983169+500216065+500856461+501175826+502782275+505058512
3318+506063013+505796975+505929128+506344031+506080156+505588758+505505338
3304+505878763+506248527+506291635+505783526+504292521+502681479+501864190
3291+501088878+499827860+497979141+495575111+494215659+494445047+494415821
3277+493683017+492922951+492037089+490943477+489498941+487753349+486246332
3264+485108779+484121289+483887773+484529001+484416920+482794194+480657400
3250+479005779+478148446+477955774+478337156+478707918+478139424+476932865
3237+476322429+476489236+476798249+477018482+476978870+476734336+476361909
3223+475637095+474957086+474767610+474584859+474006712+473335325+472865398
3210+472987898+473660782+473775460+473672100+474955688+476536804+476226293
3196+475052589+475164737+476453551+477537477+477669797+477388512+477757677
3183+478978949+480072961+480359572+480469455+480922572+481511139+481763695
3169+481168005+480344725+480486566+481601016+482575092+482754248+483072049
3156+483959009+484636821+485111642+485342328+485306943+485526378+485686560
3142+485980427+486874644+487622693+488139457+488676260+488841702+489099451
3129+490100024+491273461+491836462+491956665+491941253+491915588+492409915
3115+493257829+493860243+494494014+495188769+495518388+495365329+495018900
3102+495272788+496219933+496923576+497029266+497168676+497891926+498760744
3088+498997090+498766170+498849890+499455067+500273853+501169036+501761064
3075+501638797+501420594+501765857+502525091+503486883+504159768+504084437
3061+503751190+503526929+503116953+502894788+503510451+504197350+504149316
3047+504435460+505805530+506988587+507125734+506857965+506502116+506017841
3034+506021902+506954933+508110461+508693468+509115961+509807753+510383170
3020+510722875+510979559+511142771+511083684+510821874+511096667+512213980
3007+513191750+513508553+513706151+514277141+515270323+516459806+517763998
2993+518975950+519712215+520500443+521864155+523048711+523611778+524095421
2980+524744238+525735556+527302226+528660578+529021487+529029044+529586918
2966+530397383+530524576+529895632+529226409+528904846+528915998+529415418
2953+530315694+530951962+531293764+531833330+532710836+533914998+535101285
2939+535976561+536455643+536353515+536031353+535932488+535948866+536147728
2926+536578376+536526979+535901497+535983918+536575813+535926762+534620772
2912+534545308+535487127+536238372+536366964+536313936+536785161+537643660
2899+538256727+538683713+539394845+540168526+540399113+540435763+541045234
2885+541677075+541555074+541606770+542466068+543227433+543406789+543334487
2872+543485915+543931808+544265121+544378268+544506826+544958578+545659558
2858+546122162+546274455+546395824+546448352+546208445+545672407+544974324
2845+544211594+543734243+544453831+546327883+547717526+548067217+548414545
2831+549269881+550189763+550800300+551329180+551834593+552227392+553086157
2818+554676195+555520879+554383959+552954070+553462379+555301411+556337402
2804+556477645+557221134+558614771+559784780+560338094+560168991+559832781
2791+559981979+560331370+560684290+561458637+562460674+563114252+563595064
2777+564343513+564929383+564898026+564879185+565305272+566092934+567072468
2764+567852740+568349265+568453457+568278761+568498862+569344179+570364324
2750+570974894+571378412+571999833+572429582+572501085+572802542+573631880
2737+574404696+574873725+575484760+575955254+576118831+576279280+576418424
2723+576835257+577351155+577399090+577518860+578377359+579451498+579839171
2710+579863338+580360396+581082880+581563426+581987250+582532774+583338279
2696+584638510+585916639+586332273+586065503+585989872+586378743+586628470
2683+586787587+587380781+587839024+587837626+588059924+588537208+588674488
2669+588793659+589666672+590762981+591105714+591043932+591142930+591140267
2656+591064504+591182277+591457702+591826201+592032387+592282514+593210385
2642+594440179+594898090+594480391+594284724+594787440+595127644+595083571
2629+595715645+597094835+597925639+597887357+597825974+598171305+598875747
2615+599744165+600142557+599942429+599920392+600195951+600705591+601893842
2602+603204925+603652783+603732541+604227734+604479059+604167749+604261022
2588+605017327+606046128+607365999+608739598+609495769+609374601+609001841
2575+609073144+609266614+609340114+609688773+610038964+610120519+610175578
2561+610340553+610915971+611728665+612109747+612216269+612448819+612421190
2548+612250689+612558537+612911856+613041480+613591199+614667269+615655458
2534+616146257+616301846+616227946+615950057+615941003+616482999+617070933
2521+617359807+617707068+618213845+618734870+619267945+619655351+619955609
2507+620442214+620900391+620956382+621140864+622323789+623890391+624282525
2494+623754642+623891257+624712939+625479297+626172421+626504769+626310833
2480+626217293+626503903+626788450+626849566+626871470+627074327+627290500
2467+627461334+627905064+628504715+629085326+629555886+629682114+629838967
2453+630268383+630574234+630762445+631256306+632062077+632807663+633260980
2440+633173299+632643420+632145430+632023063+632757132+634003104+634735108
2426+635149012+635833215+636440522+636482532+636264961+636432599+636982651
2413+637811125+638798781+639068947+638656774+638950841+639858740+640072649
2399+639757011+639601689+639538575+639865397+640699263+641332402+641545446
2386+641620477+641584393+641348247+640735281+639894491+639535246+639301497
2372+637570918+634423332+631766213+630077776+628538270+627678306+628094873
2359+629029069+630672034+633351790+636349446+639090318+640758116+640694936
2345+639469269+638714230+638815692+638983796+639495234+640723031+642226719
2332+643506312+644547696+645777024+646853227+647106948+647353080+648408112
2318+649759407+650981012+652026257+653122500+654093046+654214814+654094977
2305+654679649+655729487+656855756+657641087+657956925+658331748+658933397
2291+659668597+660642672+661571275+661890841+661673670+661709887+662472250
2278+663424422+663758434+663627945+663906366+664599890+665152804+665705519
2264+666257968+666565283+666862878+667297487+667676971+667806329+667716451
2251+667489160+667441225+668161512+669385780+670246876+670509585+670324504
2237+669723188+668993447+668902837+669806475+671191658+672571181+673538865
2224+673890187+674149435+674300363+674125467+674203428+674468667+674576720
2210+674750018+675107665+675553858+675720631+675485018+675394408+676038133
2197+677091899+677596480+677762321+678487668+679630314+680569170+680927749
2183+680774691+680849189+681426071+681916404+682169061+682415725+682644081
2170+682973167+683431544+683694519+683885926+684331853+684801214+685302532
2156+686028279+686581326+686591779+686364089+686395978+686549303+686621272
2143+686839442+687088037+687345554+688123828+689133122+689371864+689106758
2129+689346166+690047945+690635546+690873822+690936270+691204239+691726129
2116+692127650+692121991+691894833+691836645+691861878+691874461+692498745
2102+693684199+694532113+694983632+695391078+695699991+695586678+695202334
2089+695453460+696333330+697041966+697363195+697220323+696837178+696948227
2075+697679698+698313237+698382676+698325487+698870212+700035694+700872556
2062+700863169+700644399+700525827+700582217+701202973+702151882+702965909
2048+703502978+703755169+703961421+704392036+705074641+705707247+706072683
2035+705914099+705040154+704381783+704889958+705923087+706164758+705765368
2021+706185330+707421981+708286938+708647581+708756500+708816618+709322130
2008+710117249+710898919+711785979+712175516+711752159+711799161+712629232
1994+712465189+711034202+710557317+711719536+713057117+713800839+714297830
1981+714844486+715311917+715786871+716638779+717522444+717729296+717463657
1967+717342089+717710322+718572616+719662400+720660642+721141855+721365550
1954+721788708+721956746+721958411+722181374+722084706+721457359+721241053
1940+722118992+723378679+724480647+725422965+726090058+726703424+727348813
1927+727155209+725570098+724233450+724754541+725960767+727023921+728102787
1913+728798974+729220933+729587368+729817322+730138751+730575358+730887067
1900+731061297+730985666+730723090+731157100+731964069+731839505+731651627
1886+732507130+733786723+734808467+735346002+736049845+736897625+736882313
1873+736084332+734626647+732836549+733112973+735600057+737897798+738966079
1859+739120336+739242503+739797681+740359384+740654316+740717031+740259320
1846+738876734+737876428+739448423+741932977+743295990+743671479+743748175
1832+742984813+741193649+740917824+742662917+744427451+746002376+747251011
1819+747785018+748133410+748436998+747878491+746982909+747558792+749060217
1805+749987089+750020977+749300889+749113211+749949474+749839890+747956251
1792+747432897+750492335+753366094+754020537+753570549+753164568+753150054
1778+753755764+753931991+751617871+747751330+748403510+752681358+755796655
1765+757076314+756690972+755912963+756218547+756897557+757751729+757424707
1751+754294697+751151040+751430460+753212236+754840688+756066021+756892231
1738+757549271+756539444+753258973+753209573+756751090+760541202+762942868
1724+763303178+762820768+761342845+756804750+752815909+755581947+760341074
1711+762933015+762463520+759746882+757802127+757865241+756805150+754437969
1697+753829264+755311980+758874468+761438315+761356493+759978434+756457090
1684+751405826+752789145+757170386+759882364+759454080+756941431+754794751
1670+753390727+755524425+759596353+760420233+758411432+758214366+760011056
1657+760714899+756864935+747951525+746916000+748607166+747664914+749613331
1643+754215205+756124941+754224593+749629842+747236231+752173449+757585821
1630+759771715+760103663+760694859+761849489+765004531+769254551+770996715
1616+771455491+775009057+779224790+782158534+784863588+787658320+790058722
1603+792375371+794420323+795664697+796113487+796366277+797823228+800594526
1589+802715042+803562689+804798475+806812269+808205907+808036937+805965021
1576+804739089+807682219+810038881+809467658+809768116+812124444+813876661
1562+813482197+807493143+798869672+803524274+811376528+817155801+821120143
1549+824034113+825230818+823072421+817889137+813154310+818485592+827731151
1535+830688129+830551981+834204547+837915167+837232828+834987082+833063898
1522+831287581+833873064+839717182+846774917+854071260+857878814+856074668
1508+849787220+849328776+859391291+866521726+868534189+867342144+867390145
1495+870954897+873232599+870699977+867629619+871511073+877915962+881457679
1481+882303062+881923112+879285699+874107009+870257245+872385284+878094453
1468+882600324+885117501+886293635+885239069+880371889+872372901+872844793
1454+883143852+891065145+894983815+897351661+901112946+905078552+906345829
1441+905975399+906184981+908195247+912392471+915969739+918234393+920834922
1427+922329623+921104556+920316561+920485797+917961231+916551282+919634089
1414+921382178+919091094+916142371+915247721+912534745+906206485+901230786
1400+898821063+898505758+899646141+898554093+895812488+893261225+888874058
1387+884480234+884683691+887923351+891560604+893603559+893220081+892312515
1373+891598020+890937385+891181853+892388279+892611974+889851595+887560378
1360+890046264+893930581+895360237+894544280+893808747+894273182+895366561
1346+896217071+895174090+891444829+887466839+886759335+889254541+892065251
1333+894439955+897091349+898925654+898848426+898686446+900174622+902236950
1319+903756750+905575676+908120482+911258547+915408170+919962975+923572266
1306+925794111+927195471+928852817+931481509+934126778+935257040+936346825
1292+939553730+943464211+947037019+950773137+952616696+952059654+951793283
1279+951756600+951630438+953109959+954377169+953280127+952745455+954984809
1265+957441734+956520121+952172101+948952946+950522412+954683752+958208491
1252+960850231+962315106+962791791+963996419+966236306+968655948+970336796
1238+970289460+969696134+970267623+970880723+970662087+970811750+972324692
1225+974894330+976905728+977064246+976191832+976292495+976955128+976280112
1211+975738649+977680874+980877326+983170341+984120382+983739367+983025005
1198+982464434+981469255+981558467+982831269+984323439+986761457+988902212
1184+989828619+989478495+987562501+986565989+988010025+990591647+993156426
1171+994757781+995060702+994826754+994650660+995027548+996399482+998195106
1157+999282361+1000259299+1002827739+1004879149+1003941291+1003597492
1146+1006828963+1009980677+1009101406+1006993539+1007642523+1010643509
1134+1012449053+1009596066+1005789843+1006103550+1008654880+1011636092
1123+1014360919+1015410225+1015369281+1013693094+1010939439+1010203507
1111+1010469612+1010850760+1014441476+1019131564+1019452328+1016569449
1099+1014662043+1015379334+1018605480+1022852503+1026091498+1026497945
1088+1025114360+1027007918+1031566385+1032578742+1030814674+1031140498
1076+1034751653+1038637368+1040426734+1042009648+1043243903+1042522351
1065+1042386402+1047318894+1055751158+1058446559+1052916347+1047208377
1053+1047117501+1049986199+1051605930+1053702744+1055830251+1054640735
1042+1052463497+1054466306+1058545292+1057382140+1055656221+1059726019
1030+1062936719+1062507037+1062462364+1061921233+1059788534+1058577980
1018+1057467624+1055723130+1057592920+1060358559+1059263382+1058082987
1007+1058111615+1057917678+1056588553+1051501272+1046054081+1047261771
995+1052341196+1053391168+1052049926+1053058088+1054765499+1054885602
984+1053270932+1050496638+1047495786+1044798655+1044187819+1046639285
972+1049156062+1049914630+1050812742+1053737497+1057928730+1060448703
961+1061824631+1063540231+1062231811+1057375416+1054425228+1056429969
949+1060674529+1063270332+1063104291+1062509833+1064425694+1066493215
937+1064583146+1061274912+1062088273+1065789173+1066554931+1064803580
926+1063693490+1063151360+1062858425+1063097101+1064981471+1067032149
914+1067281343+1069427358+1073421658+1071856188+1064813766+1062344058
903+1066780691+1069316508+1066741877+1064983735+1067796509+1072331075
891+1073741823+1071422444+1067661826+1065453629+1065574198+1064331089
880+1061441952+1060985706+1060282595+1054775552+1048589699+1046544680
868+1049324632+1053143438+1051719242+1047951700+1047623879+1049033628
856+1049200468+1046154211+1040852555+1038174398+1037398719+1032161775
845+1023295767+1017349188+1016064136+1015590514+1012210311+1008925512
833+1008863063+1007183548+1000626799+994372638+994220845+998262348+997912091
820+990755957+982863026+977046337+972977271+971900269+974154004+976023728
806+973625256+971845743+974896195+975459229+968946220+962365770+962071704
793+964183698+961175056+953074407+945249317+942832803+945435863+945828995
779+940541054+934378302+931667522+931838490+930381005+923135393+914370514
766+910703236+911200759+911979433+910401912+907307920+905010711+901577780
752+897264913+895361368+894884950+894239428+894898931+896896680+897578753
739+897200733+897062255+895311569+893487051+895093000+896621321+893967997
725+891686899+893763941+895789386+895224088+895764553+895638125+891411807
712+888954083+891003961+890385136+884911714+879507398+876141509+874376842
698+873402235+872112788+871639898+872226367+872010727+873098914+875005720
685+873150710+870694184+870165104+868951288+868922993+871696088+873509156
671+868184132+856286913+852042952+856126132+854329575+849892610+851257753
658+856244637+858335859+859194292+859499077+852208194+843379335+846456283
644+852636145+845755037+833607292+830191937+836563006+843247914+837917896
631+826787235+823281403+823388591+824590489+835118570+839165466+820712364
617+806364878+815101462+829348951+834797008+839527707+841654814+839790816
604+843267420+839203681+822622166
##END=
