##TITLE=Sample description
##JCAMP-DX=4.24
##DATA TYPE=INFRARED SPECTRUM
##DATE=25/8/2023
##SAMPLING PROCEDURE=Instrument type and / or accessory
##ORIGIN=Default
##XUNITS=1/CM
##YUNITS=ABSORBANCE
##RESOLUTION=4
##FIRSTX=4397.6552
##LASTX=599.8556
##DELTAX=-1.9287962
##MAXY=1.9347426
##MINY=0.61427242
##XFACTOR=1
##YFACTOR=1.8018694e-009
##NPOINTS=1970
##FIRSTY=0.72533429
##XYDATA=(X++(Y..Y))
4398+402545419+403157949+403847521+404587043+404871558+404775331+405097259
4384+405471981+404457604+402469568+401495977+402212972+403591553+404330910
4371+404212750+403761283+403286297+403066055+403334593+403933825+404422903
4357+404530411+404480097+404391643+403680371+402523058+402484553+403647788
4344+404250758+403953210+403667305+403616429+403617058+403458343+403452289
4330+404038985+404596603+404469545+403810307+403178690+403288216+403875606
4317+403642694+402453525+401541362+401768783+403039922+404277718+404756178
4303+404702225+404227239+404018442+404412549+404381852+403793635+403588444
4290+404142953+404793690+404519958+403620696+403399263+403650236+403204128
4276+402573801+402784550+403547359+403934322+403305483+402521172+402651604
4263+402841314+402699966+403329830+404276660+403902334+402362061+401349767
4249+401833155+402943562+403466778+403508921+403355896+403124506+403393937
4236+404166505+404856640+404989519+404377188+403638559+403649442+404344869
4222+404826173+404667293+404322673+404159426+403690130+402496098+401814962
4209+402496528+403395194+404026944+404908971+405847035+406321756+406319375
4195+406072107+405494641+404737389+404165281+403663005+403257882+403151499
4182+402886037+402324449+402292759+402829571+403091989+403034597+403197082
4168+403469590+403479381+403689534+404194292+404013745+403328407+403358543
4155+403837366+403739749+403308593+403073862+402827322+402499009+402242214
4141+401996170+401727996+401626575+401909635+402288856+402398646+402639960
4128+402996059+402778695+402269306+402125874+402318495+402654945+402948028
4114+403086763+403110613+402821863+402105233+401681354+402331297+403482623
4101+403867501+403378886+403127384+403555298+403757909+403269328+402918157
4087+403223744+403674153+403788971+403721621+403650732+403037971+401888497
4074+401582943+402147574+402044201+401545828+401728757+402125676+402221242
4060+402408140+403060432+403665717+403401910+402729208+402583791+402764041
4047+402715976+402586339+402563315+402307116+402082209+402785212+403912225
4033+404084568+403521458+402949219+402389020+402585710+403717156+404292703
4020+403764922+402937013+402440856+402491566+402650711+402480584+402231331
4006+401943541+401801829+402505360+403482359+403446401+402745814+402345786
3993+402263583+402157829+402292032+403172306+403863036+403409981+403095826
3979+403938490+404819855+404427204+403173398+402261433+401942085+401830509
3966+401705767+402038545+402771947+402789313+402446843+402622362+402571717
3952+402012445+402026405+402774858+403306244+403439686+403435187+403525560
3939+403570383+403230294+403125102+403298504+402497785+401440371+401487245
3925+402000073+401895576+401109048+400362018+400566580+401416951+401839705
3912+401888596+402187170+402498182+401766037+400005687+399053862+399908930
3898+402000537+403496086+403002840+401268359+400702702+401331176+401432862
3885+401013449+400693837+400497279+401285064+401957633+400679844+398536469
3871+397543758+398154931+399121179+398905535+398811755+400088981+401027177
3858+400529002+397639158+392844176+393911812+398535575+400927377+400833398
3844+399768078+398518308+396436625+395106935+396878367+398834381+399366958
3831+400191692+401310469+401392902+400450670+398191947+395764189+396635267
3817+398273620+399600234+402140760+403899853+403167642+401254366+400742959
3804+400244156+398565611+398763294+400094340+401007396+402575092+404341793
3790+405226863+405157959+404583735+404219234+404011760+403355301+403300621
3777+404395447+405097126+404546885+403149977+402435464+402544725+402786535
3763+403585169+404056450+403768362+404258797+404826537+403286959+400033077
3750+400217163+404154464+407864345+410249068+412678811+415150334+416074041
3736+415154667+415184240+418302331+422547634+424860243+423674746+420754469
3723+418862133+417938194+417338002+416991562+416671917+416299741+417664429
3709+422240492+427919751+432969874+437388182+443254935+451371744+459761193
3696+467207814+472823726+475772914+477305249+479944649+481876978+480466806
3682+475488961+468540614+461170108+451889865+443555394+439736749+435791740
3669+433299940+434035790+434148491+432431243+430004213+427806488+425539594
3655+423517520+421549432+417434594+412306139+412509246+415863193+418346525
3642+419405891+419903536+420444020+420165657+418544968+416097792+412249177
3628+408745479+408505257+408121008+405158224+399610058+394342869+391732678
3615+389896311+388647169+388700890+388741115+388427920+388419319+388000667
3601+386573856+384691575+382984252+381595548+380575348+379652435+377704194
3588+374425238+372285203+371504465+370157177+368099278+366404061+365614491
3574+365282143+364698722+363757814+362210627+359792164+358096021+357512435
3561+356957595+356153734+355258872+354067388+352900547+352535880+352628271
3547+352317028+351250847+350065516+349645077+349758275+349511271+348566294
3534+347609507+346925989+346012271+345267788+345380820+345527527+345047314
3520+344784333+345015790+345035373+344734119+344524561+344363465+343761057
3507+342890740+342527297+342810225+343070989+342880518+342533483+342255451
3493+341762735+341356950+341701306+342272156+342392929+342061110+341304883
3480+340908395+341386689+342042520+342258395+342070207+342058894+342542911
3466+342767685+342191641+341751388+342040601+342095149+341611760+341407727
3453+341623404+341721220+341359828+341050768+341688637+342703114+342963151
3439+342752898+342856933+343372673+344015140+344344643+343979149+343377999
3426+343481405+344158241+344644110+345121147+346202180+347446095+348023098
3412+348132822+348132955+348040002+348410126+349375315+350378016+351645087
3399+353414732+354904725+355708189+356148806+356526869+357469829+359239309
3385+361185664+362980549+364739311+366590066+368615481+370562233+372623704
3372+375128869+377847659+380831184+383725328+386116435+388881470+392312492
3358+395607459+398471004+401333227+404982440+409318314+413080758+416187172
3345+419698808+423264199+426386987+429994884+433978364+437138731+439739263
3331+442667710+445581834+448013992+450193491+451914410+453024123+454131983
3318+455386120+456350118+457156724+458229917+459635061+461094389+461815618
3304+461581317+461189525+460686918+459721861+458858391+457842955+455617708
3291+453021774+451486463+450421110+448400756+445516866+442646837+439740586
3277+437353019+436171491+435159164+433489220+431481966+429794192+428691757
3264+427508740+425805122+423998196+422807836+422773533+423271046+423051068
3250+422321404+421800438+421106930+419921267+418705767+417747293+416917432
3237+416448731+416232127+415513578+414391824+413486708+413053137+413088135
3223+413020917+412327045+411402809+410452241+409489831+409197178+409382455
3210+409281166+409144549+409365849+409728862+409784270+409539251+409404552
3196+409449011+409521851+409455627+408875514+408034737+407820945+408240259
3183+408296163+407292139+406100720+406149777+407250326+408225439+408852028
3169+409641036+410144702+409626184+408525700+407980255+408413363+408851565
3156+408554446+408397286+409585926+410938044+410357204+408987356+409445405
3142+411808692+413056478+411404893+409559099+410461040+412767232+413063557
3129+411434499+411035363+413522896+416258094+415548013+412965741+412858266
3115+415891708+417907959+416361401+414612100+416181880+419356173+419164412
3102+415593034+413839863+416168350+419344231+418998254+416242779+415404581
3088+418263827+421384068+419866455+416185584+415710102+418339645+419432619
3075+416893978+414476044+415351390+418425089+419563315+417057887+414579417
3061+415025724+417308826+418124596+416642112+415255526+415191683+416109601
3047+416675953+415896438+414842861+415035251+416046883+415936299+414366717
3034+413152838+413560243+414986260+416030905+416298947+416436822+418168988
3020+426553277+443022089+455190985+452076036+441329386+432916815+428251471
3007+425558085+423594231+422126005+421466502+421350394+421234020+421650952
2993+423124604+425500196+427575825+427453498+426018351+425926820+427706985
2980+429540176+429428401+428133642+427501959+427652007+428686233+429978642
2966+429710666+428186437+427752171+430085488+432820190+431923641+428874586
2953+427422668+428895625+431910707+432537891+430225017+428371416+428892350
2939+431323416+432872125+431907564+430455183+430281914+431698106+433607710
2926+433456372+430942210+428524872+428277769+429849335+430245890+428500757
2912+427328756+428194740+430095809+431274227+430754253+429215171+428150016
2899+428993771+430996295+431539193+430567124+430101962+430650814+431817853
2885+432916815+432785523+431626986+430927126+431366783+432336537+432769513
2872+432333329+431683915+431491294+432031810+433103052+433798280+433602285
2858+433119988+433056244+433320681+432992368+431870780+431145516+431536117
2845+432650129+433559547+433564244+433181450+433346615+434110747+434826948
2831+435025060+434954370+435230615+436066927+437006479+437469458+437330855
2818+436905058+436846342+437548087+438449532+438848932+439003810+439482071
2804+440101746+440379513+440276901+440087522+440123645+440572829+441357570
2791+441956637+442026103+441977477+442155940+442416307+442685738+442962778
2777+443093574+443187023+443502633+443745005+443612787+443614838+444118702
2764+444597195+444802849+445120543+445521895+445666187+445621133+445723414
2750+445931516+446083714+446488506+447233916+447807577+447854319+447525245
2737+447306359+447732090+448634032+449249704+449491713+449607391+449524428
2723+449667992+450438840+451227683+451540184+451763370+452153971+452589162
2710+453069474+453517335+453680251+453497984+453325773+453487266+453796459
2696+454020373+454336115+454890525+455382911+455530114+455498722+455528228
2683+455587076+455659256+455935534+456366492+456682598+456846142+456998473
2669+457298833+457669520+457932269+458217843+458574504+458833053+458998449
2656+459092295+459047804+458957464+458960937+459028320+459183693+459590305
2642+460145938+460531643+460779143+461081951+461186250+460937560+460974642
2629+461625577+462183195+462276744+462353124+462740847+463257579+463453707
2615+463444577+463752049+464126276+464094916+464029122+464439438+464975157
2602+465066523+465000761+465229207+465631485+466049839+466366474+466520756
2588+466713444+467111189+467743038+468281735+468271348+467970128+467894343
2575+468115743+468419510+468502969+468422024+468508361+468797078+469175605
2561+469552742+469787870+469766435+469589328+469604677+469814664+469929913
2548+470045724+470300898+470622594+470902710+470996754+471009622+471112598
2534+471290499+471600882+471946098+471995651+471894958+472362402+473384289
2521+473837442+473417401+473112939+473384454+473935688+474479446+474706933
2507+474620662+474591850+474730419+474958104+475149997+475184201+475416683
2494+476108604+476776905+477126587+477360061+477543684+477687646+477845666
2480+478048177+478172126+477937229+477668261+477949237+478520352+478910886
2467+479005923+478784623+478581284+478721044+478947274+479041881+479275421
2453+479783122+480201973+480313946+480428500+480720822+480936764+480960383
2440+481030313+481356508+481807842+482171781+482429205+482541509+482451368
2426+482296391+482290338+482496885+482865157+483208388+483331576+483384867
2413+483557011+483862400+484303546+484750944+485064404+485248887+485425994
2399+485749146+486315497+487568212+490742736+497440839+508846660+525199232
2386+545515104+568322314+592447537+616716986+639969576+662051356+684867432
2372+709645178+732990258+752079350+769485300+784968480+794895192+800565916
2359+801639142+791956027+772698362+752086297+734454415+724912019+729265127
2345+742873834+747909038+739991565+730456579+723509389+720136289+722201300
2332+726911930+727504645+723670353+722226705+725024026+725279266+718320167
2318+706787189+695909248+692267478+696896931+700601684+695051501+680407940
2305+662096543+647676797+639424164+632768933+624647492+615242508+604157358
2291+591952803+580717737+570973491+562149115+554586980+548482255+543382215
2278+538949815+535010530+531503922+528389138+525780601+523811818+522125533
2264+520428497+519095499+518202853+517028702+515483698+514398928+513901447
2251+513276413+512412282+511737463+511177993+510683060+510446873+510170694
2237+509681980+509293364+509140041+509190421+509402691+509696700+509913039
2224+509881580+509823989+510170198+510885803+511479048+511661811+511650200
2210+511687117+511927438+512547179+513226728+513510847+513623846+513873098
2197+514209085+514636305+515137622+515607977+516093714+516650803+517205345
2183+517610997+517766602+517833158+517977384+518230143+518622960+518881905
2170+518883890+518994541+519213493+519186930+518866755+518509531+518379331
2156+518586011+518994706+519183027+518967449+518747140+518687663+518521076
2143+518500302+518971683+519527217+519915833+520501503+521279429+521755243
2129+521928215+522184745+522625825+523147949+523452279+523529453+523855681
2116+524460967+525013723+525354936+525254143+524859639+524878891+525409484
2102+525952018+526239014+526301964+526496471+526951411+527270230+527281212
2089+527284619+527465265+527778990+528380141+529214004+529806257+530077011
2075+530361460+530665393+530965688+531509446+532090550+532474172+533018624
2062+533917291+534871663+535632950+536329502+537012756+537552445+538082310
2048+538788785+539419542+539724567+540138422+540867755+541522627+541992387
2035+542381300+542802235+543202528+543424391+543594684+543887336+544292988
2021+544778328+545163372+545049513+544567811+544257130+544167155+544189615
2008+544311017+544438107+544461759+544342012+544227458+544287266+544389315
1994+544374132+544407013+544649385+544989143+545193639+545238098+545396283
1981+545674811+545931209+546292171+546687535+546923755+547064971+547127722
1967+547279325+547913356+548797931+549451182+549846546+550113430+550387922
1954+550782989+551251756+551514472+551454830+551405906+551532368+552003153
1940+552973932+553854802+554348809+554844337+555402386+555726629+555876016
1927+556013692+555998608+555949981+556218321+556711203+557323038+558085781
1913+558749882+558927849+558732879+558834036+559351992+559900051+560333655
1900+560746352+561286340+561970089+562503262+562417190+562086198+562579014
1886+563487306+563841189+563921042+564240523+564742336+565191289+565657112
1873+565954032+565248053+563833647+563968875+565823435+567537276+568276400
1859+568324167+568303988+568453441+568681424+568883208+568884994+568419766
1846+567456562+567350443+568893462+570085244+570245944+570261227+570231521
1832+569330043+567771940+567386235+568149706+569182377+570819341+572410060
1819+573204295+573534758+573786822+573734358+573207669+572850545+573126691
1805+573611568+573802899+573536544+573431947+573843851+573758969+572624348
1792+572205630+574029955+575942933+576692710+576842294+576856188+577125255
1778+577762165+577519825+575470163+573388150+574570935+577348739+579195228
1765+579803160+579545802+579762075+580811153+581435691+581478760+580885780
1751+578975184+577100247+577336103+578393120+579220235+579900545+580294454
1738+580044903+578512338+576854534+578489116+581368871+583454457+584795361
1724+585359297+585120200+583769703+580589720+578014361+580098823+583651345
1711+585697633+585678910+584189083+583000013+582509645+580251252+576772431
1697+576977853+580872350+584462252+585438291+584793310+583303747+579684934
1684+576365026+579167838+582817679+584049157+583191344+582153116+581707802
1670+580872416+581213993+582768060+583073780+582306802+582629260+583434675
1657+582682451+579028838+574550756+575766885+576922743+576563237+579240546
1643+583201201+584995557+584229241+581150415+579754864+584355009+589099578
1630+591650722+593144453+594467031+596247824+599658105+602790784+603577345
1616+604893307+609304635+612906644+614088502+614707946+616497273+618797875
1603+621089744+623558719+625548441+626348366+626753521+628033493+630033139
1589+632109595+633916322+635226661+636330122+637374966+637355316+635666550
1576+635588417+638906936+640843863+641022624+642968152+646017538+647500881
1562+646858613+643270431+640785313+646710219+653226120+658427978+662343182
1549+665085989+666196528+664681561+660569931+658070060+666461097+676985949
1535+682222606+685184332+689339626+693263827+695228674+696036802+696447647
1522+698596944+704795747+712052758+719614165+726804885+731853122+733793953
1508+732180277+735171906+747070477+756116815+760662379+762284987+765271522
1495+772067870+778066609+780707200+783712987+792069224+801889950+809110772
1481+813760073+817023746+819221339+820075447+821241362+827638905+837116730
1468+843832960+847796527+853211415+860038196+862913055+859132352+858164252
1454+867068349+876459639+882896547+886125090+888293573+891413351+894401276
1441+896692417+897961538+899308463+904914286+911241304+914065221+917068428
1427+922539221+925392843+922741798+916802602+908510274+903207458+905261155
1414+907972470+907594770+905738226+903337063+898808965+893372376+889948665
1400+886641128+882065925+877562570+875193561+876482067+877745565+875854486
1387+871406109+867334836+866598027+869091746+871197775+869941819+866993193
1373+866677153+869154200+870313035+869353801+868050144+866673382+866800671
1360+868953210+870341417+870171522+869307953+868408526+867880579+867991329
1346+868482028+869042392+869303785+868741436+868478124+869676787+871775142
1333+874186824+876317332+877565084+877648643+877257049+877215766+877724527
1319+878906385+880159100+881357829+883456117+886639937+890979615+896385771
1306+901083632+904104503+906869936+910598506+915199776+919155072+921053297
1292+922037010+924050483+926957032+929232824+930881763+932821469+934836199
1279+936514248+937015995+935985905+935766522+937665144+939346633+940011329
1265+941463446+942927008+942742160+942722247+944826820+947186766+947262849
1252+946973140+949028094+951446260+951644074+950748088+951543249+954274609
1238+956016435+955957488+955749683+955933207+956550534+956733860+955676379
1225+954140373+952746079+952507445+954014275+955352797+954664284+952988617
1211+953097117+955210490+955971249+953840079+951131212+950406047+951962099
1198+953892742+955218628+956624830+957069416+954810362+950960060+948523899
1184+948336604+948682680+949115093+949873933+949990835+949872874+951408947
1171+954834709+957809467+958652726+959178356+960132166+958964995+957102231
1157+958147472+959734552+960077254+962007500+964591525+964783385+963619588
1144+963201531+963892162+965902988+968787507+970488115+971560283+974605831
1130+977766826+978171717+978268971+980380888+982961274+984622188+984813717
1117+984427284+985225687+986699636+988648869+990996708+991404312+989478565
1103+989201030+992839823+995842699+995159544+994687767+996627407+999510403
1090+1003165074+1006998109+1008030383+1008051488+1013034625+1021292815
1078+1025671329+1025781086+1025529154+1025090191+1024705346+1027462045
1067+1033853105+1039411823+1039867193+1035685635+1031199680+1031442680
1055+1035871474+1040325938+1043850739+1044047628+1040896027+1040255545
1043+1042582147+1043428912+1042254926+1041610144+1043338936+1045752801
1032+1044327082+1041561649+1043052072+1045013412+1044291687+1044475542
1020+1047587249+1052029341+1054398152+1054349261+1052718582+1050417517
1009+1050237036+1050312986+1047951915+1045961135+1045942677+1046544919
997+1047746559+1048567985+1046866119+1045546783+1047352319+1048266368
986+1046448129+1045404476+1047138495+1050420296+1051731230+1050108357
974+1047687281+1044417322+1042123006+1043977698+1046732876+1045829148
962+1044262312+1046883718+1052414252+1057580384+1062541358+1066036322
951+1063781436+1057322630+1053973413+1055824665+1058620266+1060160837
939+1063484847+1069248392+1072676801+1073105178+1073741823+1072728008
928+1067379277+1062263293+1062777611+1066863504+1069677696+1068544067
916+1064901370+1063110058+1063910777+1066148064+1068768609+1068089028
905+1064549472+1063818948+1065053866+1063480481+1060298645+1057757226
893+1056723034+1057734335+1059301039+1059512217+1058050309+1057933804
881+1060560501+1062966362+1061423740+1055844976+1053550725+1057192628
870+1058227416+1052870151+1047891182+1045893785+1043219850+1041347295
858+1042717441+1043119091+1038108564+1030834351+1026404764+1023498479
847+1021092487+1019924919+1017713234+1012309658+1004302144+998625928+996804381
833+994362134+992982130+996580169+999133034+993656287+985127243+979939279
820+976993894+975540521+976279579+976274617+973578916+970866080+970574122
806+970973852+968278548+961694305+954501600+950970381+952515649+956370450
793+957914461+954474872+949834502+948170413+945986582+941500693+938366558
779+935160972+929020587+923444668+920760875+918818060+917802855+919083356
766+920189000+918651340+914911787+909671491+905334327+904625900+904940947
752+901694740+895854451+892559021+894622841+899341873+901498116+899727049
739+896326361+893736050+893605188+893674986+892359950+894183217+899047864
725+900657173+900133064+901352170+899759797+893402941+889133590+889391212
712+890658944+891751422+893060702+892542548+889723659+889088866+891761478
698+891917679+887724608+883984725+882904552+883192739+884010593+885209256
685+885199266+882023054+877640968+874937923+874347126+876907136+882961912
671+889948532+894640902+892003090+884411911+878619852+875752734+877849567
658+883951712+884403575+876138505+870657325+871694958+870703835+867733376
644+866958658+865305551+863025459+861677079+859130566+852672024+838291775
631+824648798+824216583+831251566+839844850+856335693+865260762+842358813
617+818749032+825816498+838317180+834621622+835424326+835456148+825407572
604+834381665+866028666+880880428
##END=
