##TITLE=Sample description
##JCAMP-DX=4.24
##DATA TYPE=INFRARED SPECTRUM
##DATE=25/8/2023
##SAMPLING PROCEDURE=Instrument type and / or accessory
##ORIGIN=Default
##XUNITS=1/CM
##YUNITS=ABSORBANCE
##RESOLUTION=4
##FIRSTX=4397.6552
##LASTX=599.8556
##DELTAX=-1.9287962
##MAXY=1.9355265
##MINY=0.61247092
##XFACTOR=1
##YFACTOR=1.8025995e-009
##NPOINTS=1970
##FIRSTY=0.73191184
##XYDATA=(X++(Y..Y))
4398+406031307+405484165+404692798+404500917+404781646+404647101+403864596
4384+403404814+403735539+404302785+404951242+405491341+404955243+403759975
4371+403793504+404870561+405023491+404132430+403738747+404174159+404601338
4357+404983778+405480330+405753851+406137813+406531661+406139631+405504501
4344+405095971+404423112+404046723+404839875+405940211+405947221+405608890
4330+406166613+406486195+405607733+404624980+404446457+404953887+405864523
4317+407009067+407621779+406967735+405887471+405392473+405506485+405945270
4303+406017056+405466376+405029277+404904189+404433197+403627149+403457455
4290+404232917+404892649+404890466+405138229+405615768+405383083+404896319
4276+404955243+405657034+406451807+406601100+406410474+406148295+405769987
4263+405766714+405946030+405760497+405737483+406183477+405943021+404594923
4249+403623909+403772375+404178160+404323782+404289394+404100719+404032405
4236+404127999+404077177+403765960+403056993+402378546+402836146+404461304
4222+405566929+405086184+404146185+403421248+402253921+401416327+402286887
4209+403944086+404609108+404256692+403915153+404264760+405151753+405890083
4195+406037887+405645494+405399682+405618578+405659018+405318902+404879786
4182+404511134+404342762+403988527+403411129+403722974+404735090+404614035
4168+403646823+403290736+403026440+402606040+402918083+403841549+404608149
4155+404454327+403243485+402319755+402581836+403246461+403365035+402756887
4141+402238049+402727491+403867505+404839181+405199468+404714093+403965348
4128+404055783+404703710+404496684+403460894+402565369+401956327+401841919
4114+402248299+402413629+402417333+402597806+402415316+402122351+402279381
4101+402309901+402025567+402156409+402812900+403349494+403574574+403767150
4087+403905432+403583932+402852084+402681662+403279262+403727934+403921965
4074+404121353+403854081+403116578+402544736+402051822+401639886+401871745
4060+402590499+403393704+403837614+403608401+403255356+402886538+402202073
4047+401821815+402478405+403605259+404120989+404167480+404111367+403778823
4033+403566506+403637433+403164094+402100296+401779524+402564245+403259952
4020+403343774+403138071+402988712+403074254+402686456+401413748+400745023
4006+401806968+403108973+402988877+402089318+401793973+402303387+402950951
3993+403365399+403530167+403106129+402108960+401406573+401432530+401471944
3979+401149485+401055743+401387626+401823072+402228195+402605841+402813297
3966+402875858+403130730+403134566+402572676+402519969+402982033+402742172
3952+402061345+401973356+402478835+402932070+402748058+402094378+402159749
3939+402957002+402985240+401686873+400400806+400608163+401637175+402066801
3925+401796718+401477466+401328901+401041393+400701541+401174781+402353912
3912+403078089+402925093+401677218+398708888+395758911+395915478+397685828
3898+399609704+401938968+403046809+401639060+400115414+400089028+399581928
3885+398598514+398574343+399063554+400135188+401086594+400812378+399852011
3871+398754288+398247453+398582808+398064599+397647571+398922891+400120407
3858+400044719+397686986+392765121+393244015+398148983+401217337+401534703
3844+400168518+398359051+396490792+395508899+396725494+398099450+398568920
3831+399268133+399978852+400180356+399898898+398013942+395787943+396674540
3817+397879892+398910987+401433720+403195110+402539280+400438303+398942268
3804+397381192+395888397+397052979+399003936+400691886+402679645+404079425
3790+404494270+404094801+403177717+402787770+403034541+402715720+402527145
3777+403387619+403646923+402290425+400456126+400361160+401693850+403015694
3763+404211656+404271108+402840742+402001363+401768678+400053746+397281068
3750+398139824+401612838+403965844+406612078+411140822+414871751+415430532
3736+413507218+414065537+418099251+421916515+423571399+422896986+421034316
3723+418955625+417276934+416612771+416130406+414747026+413225265+415071237
3709+420679816+426475580+431224610+435271616+441157618+449702716+458092999
3696+464699607+469630300+473196065+475460487+477792859+479652223+478585020
3682+474216943+467756619+460350874+451670867+444978519+441899518+437691514
3669+434371693+434140265+433358718+431206886+429049102+427073446+424550514
3655+422523506+421048865+416926038+410348264+410387017+415222580+418481890
3642+419541091+419608413+419559277+419171248+417922414+415880129+412229518
3628+408797438+408639251+407930317+404171944+397824639+392236462+389854061
3615+388178676+386255099+385337023+385312620+385870674+386821320+386799331
3601+385125434+383240345+382299486+381590222+380554729+379271209+376826578
3588+373108677+370930590+370531914+369892882+368452265+366734622+365181845
3574+363940451+362948770+361811996+359856807+357510052+356747650+356935895
3561+356511559+355672743+355181581+354549790+353213596+352118121+351757273
3547+351158482+350317714+350205720+350240439+349678649+349022753+348485001
3534+347837206+347214277+346759025+346585462+346679932+346345007+345292485
3520+344674912+344761479+344709301+344361216+343699004+342754542+342353187
3507+343143265+344178824+344007939+342975852+342299290+342233456+342393065
3493+342265298+341757339+341450058+341621306+341823967+341780287+341368881
3480+340762220+340199107+339770936+340150103+341317728+341980104+341616015
3466+340991433+340742413+340813108+341039808+341488480+342083535+342285733
3453+341771987+341074924+340838404+340955093+341098038+341451281+342102184
3439+342880655+343524118+343685381+343732169+344012238+343850347+343243289
3426+343068305+343466947+344034954+344384792+344789453+345897327+347303059
3412+348425383+349154620+349268763+349192116+349622899+350596658+351948063
3399+353397244+354337474+354740647+355430006+356684362+358161120+359735720
3385+361339815+362969304+364819575+366937911+369003871+370825474+372692939
3372+375066081+377910314+380460491+382608422+385322705+388787387+392111506
3358+395036585+397973766+401024794+404666908+409342167+413914558+417185407
3345+419896814+423122397+426611514+429965889+433527818+437456745+441169058
3331+444082730+446237802+448348732+450826825+452502177+452712444+453282600
3318+455223207+456867476+457578725+458740199+460384766+461402999+461965418
3304+462686685+463030240+462339294+461040100+459749735+458173184+455902546
3291+453558204+451294345+448632900+446053658+443787649+441741562+440059531
3277+438084172+435738805+434168602+433239185+431805777+430254257+429481406
3264+428581285+426515491+424205967+422659606+421739976+421277714+421117311
3250+421024528+420986998+420834697+420215272+419364585+418523421+417294525
3237+416035076+415408808+415090945+414540331+413847037+413428059+413104012
3223+412666054+412269164+411568529+410303989+409384690+409495130+409654408
3210+409474067+409640355+409649085+409234769+409587318+410389167+409892549
3196+408666200+408288984+408506987+408499382+408247552+407960771+407679611
3183+407663442+407718993+407668038+408092903+408875176+408787419+407636923
3169+407233221+407941097+408139294+407813462+408299300+409608943+410054341
3156+409105216+408440855+409166752+410096269+409754830+408898885+409461733
3142+411844961+413336664+412095567+410744923+411895981+414260890+414413192
3129+412136272+411314153+413886286+416381012+415217620+412481678+412591457
3115+416334290+418830041+416696957+413971993+415123052+418467506+418491545
3102+415104138+413896735+416719111+419652622+418502391+415150529+414556698
3088+417985339+420976252+419057270+415447925+415092565+417691680+419118971
3075+417227070+414903692+414939966+416966643+417881908+416051841+414248094
3061+415009536+417438957+417944568+415802424+414204017+414174092+414684730
3047+415068328+415035758+414594790+414269851+414467916+414436338+413610450
3034+412991225+413752237+415112239+415475931+415379809+416071945+418698538
3020+427535840+443482252+454692201+451131793+440255380+431725889+426888640
3007+424008101+422036147+420779675+420365094+420442138+420341750+419975412
2993+420082248+421690476+423935951+424606065+423981681+424000694+425505591
2980+427514380+427900623+426615152+425359539+425084827+426195776+427437998
2966+427248728+426445094+426638364+428902587+431300827+430350445+427732681
2953+426926732+428354685+430956709+432136072+430630051+428767843+428831330
2939+430838300+432264633+431166414+429419805+429320640+430997050+432475296
2926+431163338+428167697+426877497+428210881+430321281+430367673+428146237
2912+426457493+426773538+428380145+429638900+429242604+427880056+427266154
2899+428171466+429700766+430202575+429483490+428709681+428842506+429995780
2885+430846501+430427423+429709165+429583514+430232632+431351318+431847803
2872+431287104+430459100+430327828+431039606+431726154+431612969+430948377
2858+430652966+431159800+431737958+431328767+430105625+429365444+429754829
2845+430763704+431618425+431985424+432094409+432343263+432909815+433481195
2831+433567960+433413277+433715500+434379199+434734989+434738825+434723052
2818+434736378+435021902+435733481+436299107+436481631+436763254+437320580
2804+437848048+438002466+437829994+437670781+437645717+437791439+438292454
2791+438995436+439407933+439655829+440087108+440425339+440594174+440920270
2777+441382995+441594022+441432892+441337364+441610389+442205775+442815709
2764+442874864+442599226+442771070+443320659+443754517+443912010+443825940
2750+443799950+444117713+444606494+445034235+445444914+445818328+446039440
2737+446240977+446534999+446725657+446835568+447206469+447738004+448089429
2723+448321816+448542961+448850210+449268924+449519266+449580107+449589366
2710+449606461+449834087+450297341+451006770+451895748+452382016+452214173
2696+451898129+451961384+452522877+453199869+453490584+453424122+453431363
2683+453603901+453712192+453813936+453995799+454156995+454324574+454591746
2669+455043956+455438631+455412807+455334044+455620891+456049061+456441488
2656+456770593+457032938+457316611+457342303+456992896+456936088+457410551
2642+457841235+457975119+458014633+458180260+458615706+459172635+459506767
2629+459459945+459194393+459204147+459687240+460129597+460293868+460482278
2615+460619832+460493917+460430827+460751137+461280853+461783092+462246081
2602+462744319+463275424+463692451+463890715+464133981+464565359+464693853
2588+464404824+464272660+464551571+465091537+465604026+465722932+465448352
2575+465275483+465486510+465891469+466240810+466244646+465968975+465909357
2561+466102694+466264452+466424888+466673147+466904609+467182065+467717800
2548+468324923+468620235+468509960+468174672+467929356+467886403+467969531
2534+468352302+469109016+469768615+469921909+469711378+469575973+469804756
2521+470270655+470625453+470715756+470794288+470949631+470872158+470811085
2507+471248118+471863243+472265755+472636490+473042110+473281309+473445614
2494+473677439+473791285+473824053+474078463+474322489+474236187+474316736
2480+474844468+475233291+475239342+475152345+475054404+475099241+475632661
2467+476412819+476822770+476739114+476362658+476009051+476109472+476765269
2453+477497018+477687379+477393224+477256364+477471987+477663670+477692636
2440+477711153+477708442+477727587+478000976+478450706+478824913+479180438
2426+479510998+479746229+479993133+480073979+479893935+479907789+480254155
2413+480514549+480624328+480963585+481632509+482278022+482554817+482558388
2399+482664464+483187997+484532590+487658412+494119001+505200389+521288621
2386+541783287+565010786+588998603+612603385+635876316+659844294+684597985
2372+708367832+731037773+753752684+773912920+788132663+796645621+799306371
2359+796153666+787469492+772238461+753106112+734714176+724131092+727777075
2345+741103309+746435853+738616354+728429995+721050008+718162293+720590656
2332+724202051+722954474+718037767+716528241+720324739+722609331+717501570
2318+706304319+694327902+688944767+692336935+696130392+690970915+676624001
2305+659440427+646045944+637585825+630347361+622136625+612782404+601498520
2291+588964611+577542512+567913777+559373374+551899810+545772097+540935013
2278+536828455+532691377+528559193+525036877+522375168+520422194+518778883
2264+517114575+515538653+514193233+512993071+511860166+510929592+510415515
2251+510053807+509517345+508840552+507921153+506977484+506634822+506793935
2237+506807790+506565714+506311107+506093103+506047009+506345363+506834507
2224+507243202+507386642+507280203+507235729+507535869+508175596+508802890
2210+509003864+509127928+509696298+510147781+510137530+510488294+511319108
2197+511738186+511637335+511679792+512132630+512845796+513556713+513973113
2183+514155769+514347915+514503656+514559041+514627686+514824197+515067066
2170+515058304+514832265+514845888+515087600+515145201+515023089+514966513
2156+515140539+515389294+515269794+514797810+514429853+514349039+514470226
2143+514972597+515838925+516529044+516957777+517449037+517964866+518216233
2129+518265138+518548744+519170549+519784220+519988336+519818080+519800621
2116+520326138+521120084+521488868+521425183+521513436+521847237+522145855
2102+522347359+522633016+523078282+523413273+523421110+523421010+523749124
2089+524254735+524531100+524457760+524528719+525037373+525577207+525727492
2075+525726136+526131095+526863075+527562784+528263021+529034912+529806241
2062+530590103+531212139+531449453+531859504+532873471+533967094+534775159
2048+535526153+536329887+537013161+537623757+538232732+538734342+539052139
2035+539193628+539436597+539811002+540035586+540137628+540296179+540545199
2021+540721705+540725210+540726565+540870898+540934352+540753316+540608718
2008+540713107+540937030+541023431+540835451+540431220+540129031+540207165
1994+540319590+540346538+540733178+541304525+541615510+541757991+542039680
1981+542444440+542718854+542885606+543077553+543122325+542807339+542378110
1967+542439216+543247116+544310748+545117490+545670055+546053752+546230523
1954+546398729+546820519+547289592+547410481+547323749+547500156+548134989
1940+549034448+549875910+550473941+550871294+551383850+552070431+552500585
1927+552459154+552300768+552520491+552895029+552908685+553147157+553987594
1913+554493271+554464801+554781309+555618869+556253536+556477194+556608797
1900+556815988+557210002+557736941+557956895+557641578+557320244+557831509
1886+558807219+559437125+559983308+560689001+561189091+561360504+561423131
1873+561274996+560436774+559300761+559626990+561443831+563103344+563888462
1859+564167472+564349930+564468372+564562544+564552161+564149352+563252339
1846+562016599+561703464+563390753+565178298+565727523+565708609+565769847
1832+565021235+563292217+562883720+564070853+565256267+566403920+567535833
1819+568295622+568669201+568899406+568929232+568827653+569281715+570042297
1805+570350604+570118746+569349500+568764563+569155535+569514036+568812972
1792+568453016+570105784+571964354+572770171+572921745+572898996+573048057
1778+573389959+572911164+570808766+568611799+569619119+572625144+574966940
1765+575892654+575739096+575810386+576411591+576783516+576992493+576311335
1751+573966827+572236288+573266491+574907686+575566954+575440312+575461474
1738+575880552+575335691+574002472+574972098+577430815+579574546+580724976
1724+580876286+580610899+579184897+575553728+573189249+575908856+579648878
1711+581687526+581492635+579509340+577629872+576785566+575126516+572704965
1697+572443281+575469608+579469000+581057421+580486174+579108978+576262199
1684+573642847+575938153+578898414+579698609+578684080+577803931+577285325
1670+575952900+576406895+578677732+579279598+578553867+579211548+580208420
1657+579151038+574758426+569725261+571161645+572376157+572083524+575173205
1643+579363255+581065225+580264302+577584969+576472697+580864448+585669458
1630+588209518+589151169+589666601+590834556+594230693+597874361+599144225
1616+600599192+605024738+609132321+611455534+612920553+614517440+616271786
1603+618104895+619913470+621124411+621822036+622938540+624631847+626210613
1589+627606393+629274900+631125138+632639690+633696610+633737744+631917067
1576+631268379+634389606+636331899+636489690+638676340+641887506+643661559
1562+643748787+640246840+636045680+641737585+649022408+654367120+658124601
1549+660827411+662468143+662565952+660313632+657394174+662953021+672351618
1535+677966942+681570005+686156449+690611423+693345380+694622387+695138216
1522+697094264+702126173+708128236+715797087+723995918+729256643+730215886
1508+727118930+729063406+741585543+752199114+758253421+760852073+764495410
1495+771278226+776455493+778292835+781230016+789745818+799539420+807208204
1481+812691661+816170529+818304141+820051015+822089067+827244642+835058123
1468+841403477+845900246+850825153+855452864+855847208+851772955+855394800
1454+866618966+874385759+879628628+884276905+889321908+894281402+898205932
1441+901581898+902738611+900744007+902725979+909341812+914738901+918409683
1427+918697026+914282789+911309170+911883922+910139032+906841234+906456809
1414+907011722+906140037+903095127+899033704+894633422+891273988+889794750
1400+886476980+880000950+874695983+873672130+875819762+876826223+874028250
1387+869519114+867253899+866728745+867386295+869289438+869635241+867635215
1373+866958355+868188474+868333634+867142995+865728104+864820047+866198632
1360+869031854+870386235+869787543+868706551+868080084+867176921+866631928
1346+868045563+870386830+871259969+870208737+869575326+870883613+872738347
1333+874468291+876409526+877834338+877574572+876468251+876912129+878540692
1319+878951702+880016425+884528537+889245724+890083615+889843953+894020511
1306+901829826+907520276+909831783+911867719+914241325+916063522+917921762
1292+920199344+922587035+925126169+927917265+930667623+932346513+932490284
1279+932898119+935091714+937859002+939963252+941604050+942311397+942430037
1265+944295022+947639377+948297257+944927640+941982126+942301609+944224195
1252+946903925+950167335+951490832+950523587+951086237+954022823+956176672
1238+957049216+957677337+957927844+957789827+956858227+956023378+956092354
1225+955783717+954857407+953603613+952610577+953421221+955237599+955940185
1211+955580758+954326170+952294533+951530114+952214182+952274891+951419476
1198+951052179+952610775+955508145+956564271+953969322+951048873+950715039
1184+950536218+949591194+950021712+952034105+953878391+953642763+952471105
1171+952713015+953855774+954760458+954911702+954106281+953778201+954891465
1157+955596497+955778360+958203151+962455431+965426009+966118277+965542599
1144+964743197+964388003+965594513+969956902+976470495+980718873+980707961
1130+978904413+977652007+977089820+977543815+979599789+980595471+979402915
1117+979346504+981129089+983625171+987141072+991665352+995788212+996123170
1103+993027801+993024759+997301441+1000141078+1000260777+1000195835+1001173859
1090+1003676819+1007693537+1013669015+1020323998+1022818757+1018193361
1078+1012106054+1011116523+1012872588+1014381255+1017020777+1021194029
1067+1026519100+1031606956+1034387801+1035668842+1038565550+1042452187
1055+1043011596+1040263222+1037898213+1038530368+1043613264+1051077701
1043+1055094485+1053533244+1049929652+1047058603+1046002675+1046556265
1032+1046640517+1045208034+1045145606+1048936153+1053349331+1055468858
1020+1056520223+1056390406+1052702694+1046960264+1045970601+1050611934
1009+1053232212+1051137220+1048962605+1047927245+1046537550+1045766783
997+1044839746+1042612556+1041812361+1043409512+1045115648+1046029723
986+1047432446+1049162522+1049348088+1048362591+1048044629+1048824787
974+1049965562+1050626946+1050669403+1050924143+1051229408+1050039100
962+1047716813+1046506997+1048448761+1052796932+1056734225+1059499397
951+1059475193+1056370831+1055017243+1056169724+1055893094+1054695115
939+1055838998+1058167105+1058447107+1058240445+1060890746+1064833859
928+1066934075+1066935067+1065386060+1062947580+1061142047+1061394274
916+1062630279+1063744998+1067018261+1070337420+1068284356+1063895117
905+1063424390+1067182599+1071739482+1073741823+1072324749+1069674779
893+1068364905+1069416864+1071087157+1070363344+1067830956+1066515527
881+1068139858+1069466728+1064261554+1054913218+1050081028+1051616941
870+1054981731+1056763720+1055645893+1052399810+1048632740+1043970442
858+1040309117+1037693667+1033174215+1030253964+1031616280+1034201904
847+1034412865+1028990250+1021583678+1018801973+1018875379+1017166068
835+1014544006+1012098184+1007007286+998808124+991395600+987752395+987148942
822+986115102+983479614+982112404+983554939+983755517+977644468+968557089
808+962908302+961042457+960114892+958662305+958105144+957620199+953654799
795+948298712+944563187+941630172+939459592+938626859+938684857+937325582
781+933632977+930352174+928259762+926778209+925691464+923769804+922586043
768+923461828+923140228+920769665+918376948+914407580+907966071+902331899
754+898542609+895408619+894261959+895822076+898155275+900347745+902130991
741+901012635+895819298+890794400+890705783+894014096+894890542+892501462
727+891331854+892599073+894875993+897150731+896770539+893999283+892541538
714+892511713+892595568+891608616+888767061+887727203+890477893+892577712
700+890837650+887492898+885616406+885328402+885001115+883483719+883244256
687+888130476+894612392+896072054+892940644+889231638+887034274+884322668
673+880917869+881864348+885344803+885121475+884390453+880993656+872981977
660+868383629+870645273+873479024+870558707+865256187+863245315+862158437
646+859424017+854745451+853470891+862049981+865879943+852657932+844044255
633+851377950+859801431+864287818+865019038+853775032+839052290+834192986
619+839992223+854232598+867003722+863588275+850985192+845338720+846171982
606+849129929+846527904+826057773+803512094
##END=
