##TITLE=Sample description
##JCAMP-DX=4.24
##DATA TYPE=INFRARED SPECTRUM
##DATE=25/8/2023
##SAMPLING PROCEDURE=Instrument type and / or accessory
##ORIGIN=Default
##XUNITS=1/CM
##YUNITS=ABSORBANCE
##RESOLUTION=4
##FIRSTX=4397.6552
##LASTX=599.8556
##DELTAX=-1.9287962
##MAXY=1.8692491
##MINY=0.17132619
##XFACTOR=1
##YFACTOR=1.7408739e-009
##NPOINTS=1970
##FIRSTY=0.18432768
##XYDATA=(X++(Y..Y))
4398+105882269+105740419+105625104+105590250+105565093+105625532+105781317
4384+105835011+105723608+105640683+105685835+105830740+105901973+105728744
4371+105610664+105776113+105983760+106193632+106527970+106931477+107323403
4357+107595761+107587407+107177146+106663879+106465253+106248782+105779793
4344+105526549+105578626+105600538+105437744+105159797+105096935+105421181
4330+105763093+105877338+105993269+106074971+105816676+105391933+105142866
4317+104967737+104759508+104794833+105271747+105919075+106361400+106487971
4303+106323258+106057903+105871603+105669092+105422174+105186451+105050080
4290+105257213+105670795+105877013+105962677+106229642+106673594+106969002
4276+106822068+106559263+106607017+106712840+106535947+106365363+106492687
4263+106510491+106222949+106056567+106248422+106641196+106769504+106390237
4249+105922755+105802177+105992062+106186665+106171805+106024811+105967205
4236+106131250+106512040+106846523+106880256+106788934+106706000+106651638
4222+106832426+107140134+107153247+106883244+106860218+107240495+107470140
4209+107223967+106953963+107095975+107279356+107051114+106693521+106611708
4195+106836962+107202944+107493268+107633166+107728203+107921855+108168226
4182+108162491+107809511+107394773+107206351+107372981+107701181+107736335
4168+107374513+106995674+106905567+107122450+107537607+107859910+107789105
4155+107584890+107777233+108141640+108090308+107885186+107970722+107956924
4141+107605810+107403667+107508325+107573352+107564818+107747925+107982688
4128+107877645+107646785+107692596+107786768+107633620+107505877+107777489
4114+108191602+108299256+108229230+108190070+108150473+108261979+108625231
4101+108885622+108806720+108767765+109016404+109230685+109263545+109376052
4087+109535783+109459012+109303775+109344151+109504001+109623202+109643231
4074+109643967+109673233+109728399+109931646+110211057+110250123+110035175
4060+109940146+110093474+110197336+110127849+110062608+110133747+110260189
4047+110240913+110185241+110428051+110843328+111028181+110958069+110813369
4033+110623698+110439581+110301549+110145884+110098045+110214130+110222253
4020+110031777+109797638+109773902+110083579+110326868+110183067+109985435
4006+110154718+110519716+110597890+110339271+110080960+110086584+110248317
3993+110209919+110023551+110044950+110160453+110051815+109913902+110009727
3979+110134115+110027522+109740314+109489219+109333297+109344801+109692663
3966+110055170+109928300+109543794+109446001+109651774+109826800+109622098
3952+108917353+108013520+107678952+107965860+107902211+107825064+108707643
3939+109733963+109753496+108586970+107169836+107039790+107864104+107929396
3925+107341010+107493517+107885623+107426290+107218189+108505842+110113375
3912+110885903+110665725+108888036+105381404+102298464+102008148+103788996
3898+106280589+107980985+107724009+106392651+106441561+107087707+106413605
3885+105344204+104885239+105308665+107136685+108011911+106674347+104613250
3871+103079860+103147164+104058400+103781874+104038131+106140469+107289139
3858+105914752+102164780+98413901+101110744+106260209+109011482+108832048
3844+106585952+103528279+100486682+99515177+101904141+104660045+106395476
3831+107601830+108045002+107754310+106737953+104002190+101341211+102087213
3817+103849658+106353748+109525871+110960175+109745202+107249269+105874762
3804+104688369+103473567+104573046+106676145+109092174+111582303+112912129
3790+113135894+112671467+111761096+111200006+110901490+110319601+110687603
3777+112201118+112959224+112097325+110371370+109431638+109548126+110319113
3763+110976601+110021419+108350973+108099647+107660155+104684346+100335151
3750+99868038+101995865+103305901+105014421+107110210+107465330+105081571
3736+101482102+101739651+106178242+109962589+110983911+110081174+109364000
3723+109934095+111437714+113032519+113637357+112270699+108831354+106945763
3709+109739107+113123088+114389822+113997185+114027392+115237837+116078611
3696+115874431+114279985+111094560+109076997+111794914+115760485+117947503
3682+118159806+116589713+113540839+110466766+111436533+113792311+114695656
3669+117728968+122357778+125470926+126937217+127439485+127106081+126545531
3655+126929693+126497528+122814381+119336997+123663055+130297001+134550251
3642+137147923+138986573+140140123+140802395+141171314+140502416+138577904
3628+139427555+144034376+147488717+148191390+147059402+147167373+149308365
3615+151286246+153164990+155131726+156743273+159329347+162600667+164501187
3601+165077418+165766910+166677770+167730239+169627044+171290685+170938629
3588+169800204+171500635+174832693+177065376+178019256+178592646+179381446
3574+180214722+180177556+178304188+174870938+173374448+175743416+178578078
3561+180186287+181409110+182459867+182462435+181732200+181339178+181127568
3547+180833871+181226260+182369101+183341197+183676390+183653707+184046952
3534+184658243+184335769+182974538+181802851+181565014+181994756+182993198
3520+184213915+185079084+185543167+185705372+185557274+185219221+184958702
3507+184752758+184404982+184350663+185085572+186061861+186735740+187235038
3493+187403388+187000232+186519080+186469726+186402293+185956732+186131091
3480+187231957+187922270+187894452+187866599+187934784+187968406+188039965
3466+188030155+187579459+186727489+186188201+186270749+186581171+186870468
3453+187002714+186608374+185670329+185100585+185392639+185786397+185926688
3439+186031714+185973406+185696007+185550580+185813479+186332087+186832173
3426+187234850+187481897+187804336+188523941+189289322+189956473+190954025
3412+192243509+193392480+194246726+195049513+196103472+197492556+198961518
3399+200235219+201624423+203387629+205161826+206822968+208790046+211010968
3385+212757227+214026185+215604471+217644888+219792317+221737979+223257032
3372+224759086+226771085+228808883+230320249+231846766+233908496+236138765
3358+238260926+240446240+242943466+245737178+248163410+249932180+251764822
3345+254092190+256590152+258941059+260948043+262650527+264558425+266575406
3331+268007237+269034113+270258887+271640662+272768627+273414002+273754178
3318+274139633+274784050+275938053+277664505+279551706+281333606+282888027
3304+283913363+284500259+285232412+286307685+287131134+287293732+287165732
3291+286907147+286327594+285689580+285318950+285354130+285519107+284840606
3277+283487695+282857914+282991221+283206427+283475934+283521471+283321998
3264+283286014+283227826+283024467+282809587+282635502+282666591+282834649
3250+283170939+283726867+283910110+283478193+283068412+282908005+282706906
3237+282610474+282705965+282410676+281278773+279786307+278872228+278593922
3223+277984531+276823799+276084833+276123523+276269446+276115459+276010622
3210+276270662+276458870+276197649+275694550+275259758+275068125+274922835
3196+274608613+274217902+273836161+273387759+272845475+272399897+272050392
3183+271769038+271631126+271476814+271255549+271076893+271025244+270809149
3169+270283436+270245980+270794700+271001106+270631983+270165947+270124108
3156+270490236+270713573+270564345+270270871+270122687+270099987+269948551
3142+269855012+269967776+269761593+269105586+268460347+268102967+268087115
3129+268134261+267945591+267558680+267111442+266826716+266802783+266733279
3115+266367134+265974780+265678207+265146280+264404986+263671772+263049815
3102+262801741+262851626+262875593+262854229+262716351+262421987+262203888
3088+262023931+261696630+261470349+261473755+261553959+261931745+262697657
3075+263712892+265252762+267114129+268081192+267379168+265544986+263355409
3061+261070650+258841255+256806624+255118451+253807807+252616620+251518049
3047+250746744+250389621+250421771+250676059+250861631+250937589+251013016
3034+250973265+250792418+250545337+250227982+249976570+249816026+249763624
3020+249969380+250402854+251050490+251947963+253153512+254743609+256490193
3007+258207760+260093128+262278665+264799617+267876977+271754110+276746780
2993+283128979+290875714+299748273+308654078+315517874+318916269+319312339
2980+318162101+316430189+314538794+312626959+310659007+308753335+306990574
2966+305304335+303845063+302833148+302296633+302333063+302784393+303172348
2953+303360864+303499290+303937198+304873754+306039501+307111196+307672191
2939+307506614+306973968+306237741+305148106+303933398+302705645+301086821
2926+298962640+296601735+294082648+291044474+287354060+283410504+279565726
2912+276143929+273140181+270191489+267368315+264815487+262498903+260744547
2899+259754648+259077705+258379705+257874672+257809841+258150633+258683553
2885+259283135+259860017+260246311+260544013+261026774+261551117+261775087
2872+261626904+261113893+260352432+259558805+258667837+257530183+256195469
2858+254640586+252672840+250104416+246692051+242510641+238334779+234776336
2845+231667579+228671416+225796319+223143104+220618916+218278485+216336658
2831+214715523+213233123+211915135+210821442+209968222+209308706+208671428
2818+208027336+207529048+207212446+206947407+206587733+206228556+206017322
2804+205849691+205685433+205542385+205302700+204892216+204300406+203628016
2791+203033622+202481289+201829185+201042987+200219914+199473844+198840691
2777+198263980+197656849+197057866+196535098+196044753+195583956+195198963
2764+194902956+194716288+194626550+194600974+194612460+194515994+194171967
2750+193715604+193386009+193224113+193092911+192860125+192477700+192005073
2737+191677618+191627698+191612616+191417338+191151854+190949163+190815462
2723+190779734+190831297+190849221+190796391+190746865+190685733+190528065
2710+190349341+190316455+190370004+190316438+190196210+190200319+190310327
2696+190398422+190442932+190361633+190103801+189857011+189765492+189742090
2683+189642251+189428484+189137287+188772306+188411091+188162178+187929751
2669+187573262+187165569+186849703+186598462+186326507+186095637+185951408
2656+185778796+185558558+185452881+185425867+185288331+185128832+185081583
2642+185056709+184973801+184819626+184643709+184559705+184576722+184612432
2629+184656856+184730606+184754470+184706844+184764981+184990081+185221293
2615+185445948+185744609+186010504+186156650+186295915+186567476+186902789
2602+187130902+187316149+187573758+187827858+188050202+188290469+188558624
2588+188849274+189098854+189219904+189229918+189227231+189229953+189147969
2575+189016494+188993314+188984635+188754793+188333867+187908729+187589371
2561+187351791+187107141+186891730+186810380+186800451+186681575+186455893
2548+186279908+186117156+185881014+185733738+185778351+185870623+185955277
2534+186079956+186157557+186150299+186163703+186207271+186212733+186187550
2521+186238754+186451699+186752551+187032142+187279771+187528906+187765527
2507+187985731+188246148+188488898+188621657+188736201+188967892+189270748
2494+189500641+189660859+189836228+190070436+190326436+190455651+190433876
2480+190377160+190325118+190277406+190233889+190164283+190083583+190060147
2467+190067525+190019455+189880772+189621246+189286531+189059617+189047445
2453+189075452+188972532+188857645+188793020+188673768+188524557+188403114
2440+188303412+188246062+188194671+188084629+187927594+187761624+187615512
2426+187505110+187451493+187497013+187624482+187727642+187756094+187754194
2413+187751849+187761264+187768728+187793791+187919240+188093205+188196828
2399+188263284+188375826+188538800+188686316+188742073+188736818+188715008
2386+188535445+188068622+187302282+186164936+184636108+182790045+180773543
2372+178918800+177353338+175834507+174344814+173113038+172248143+171889736
2359+172190109+173223714+175020422+177465691+179953672+181270170+180700650
2345+178959133+177693924+177509756+177927754+178528483+179078625+179480446
2332+179768836+180228023+181066178+182093757+183029439+183899128+184930592
2318+186085554+187113903+187937660+188679383+189435057+190129668+190731441
2305+191300174+191734231+191993330+192268109+192612410+192913930+193162466
2291+193440174+193793753+194139030+194348586+194447312+194527977+194626601
2278+194732911+194781221+194775949+194808561+194890048+194995331+195114241
2264+195213669+195304520+195416480+195507879+195555915+195607102+195670819
2251+195748010+195873339+196031161+196151217+196186723+196170408+196177803
2237+196267234+196392444+196468898+196598148+196874982+197167412+197318129
2224+197336772+197376591+197497794+197619512+197710689+197821518+197972766
2210+198114975+198258262+198411941+198540010+198695606+198879654+199052387
2197+199239944+199407284+199545111+199671707+199736640+199807137+199975829
2183+200133531+200215309+200363441+200617302+200766033+200733695+200708170
2170+200758021+200840210+200977831+201144521+201281457+201392937+201506198
2156+201611463+201714897+201841511+201964563+202088541+202216130+202298952
2143+202403585+202609837+202821994+202955901+203070719+203215735+203349145
2129+203462748+203625363+203829646+204004433+204133734+204183876+204163984
2116+204240301+204457269+204613978+204678620+204816960+204999639+205145169
2102+205323825+205543361+205744546+205930871+206136249+206379787+206636198
2089+206865629+207027987+207119147+207278458+207587442+207870713+208044489
2075+208285733+208628048+208918201+209109302+209176478+209227133+209552141
2062+210075696+210513108+210847069+211100467+211252914+211327622+211361603
2048+211460227+211668088+211833784+211947010+212223417+212612176+212895481
2035+213062239+213209858+213425816+213713812+214025227+214314558+214558694
2021+214704207+214653654+214653963+215072492+215682226+216121504+216446528
2008+216817809+217255598+217665379+217951766+218171576+218436444+218604845
1994+218433260+218281807+218726220+219520173+220295723+221024178+221631241
1981+222132029+222587981+223004713+223453560+223974052+224312429+224250030
1967+224295824+225043041+226066203+226799263+227282880+227616995+227898759
1954+228278753+228656522+228797670+228623927+228163815+227533008+227482643
1940+228447891+229476702+229971155+230166040+230350892+230596535+230813572
1927+230691204+229989575+229518028+229804774+230131168+230718338+231772092
1913+232328876+232170746+232161040+232870492+233766493+234352619+234767143
1900+235031737+234942563+234792034+235010389+235057621+234871809+235541494
1886+236759455+237577341+238084376+238493816+238889183+239296551+239516549
1873+238981062+237262314+235816171+237028962+239484331+240947473+241507492
1859+241907584+242404503+242924035+243343849+243536371+243209018+242128216
1846+240777719+241069412+243393768+245151668+245758542+246310071+246714956
1832+245853417+244533101+244954403+246354546+247859698+249813253+251369026
1819+252136907+252640930+252860500+252419253+252082228+252899926+254238885
1805+254899787+254403503+253546945+253734759+254509231+254336567+253191842
1792+253585908+256583099+259014192+259773274+259842743+259844986+260308813
1778+261233847+261063546+259078869+257387511+258945476+262174495+264829062
1765+265827624+265481491+265773150+266789618+267806686+268870454+268480548
1751+266212360+264884734+266419211+268715234+270260360+271253409+272489242
1738+273382777+272423881+271564259+274557923+278866545+282707505+285217330
1724+286339783+286729552+285491922+282323745+282137266+287665458+293139759
1711+296244595+296963394+296271027+296305333+297055633+297080935+297658159
1697+300806512+307241062+313529790+316516093+317710566+317860153+316652464
1684+318455627+325591789+331889453+336146273+339447123+343179993+346342624
1670+349724996+356866533+363785897+367042957+368939248+371459156+372619117
1657+370668216+365384452+361543662+364267460+365261536+366625729+374211029
1643+382298229+387533136+390395804+392152026+399503684+413171803+423807843
1630+432376092+442172094+453122579+465380592+479925829+491954651+500473083
1616+510688847+521961755+529785422+534736048+538799078+542758230+545489457
1603+546666845+547116258+546832148+545246707+542856562+540628296+538371647
1589+535614980+532577183+529422941+526038583+522164822+517283667+510698879
1576+505039315+503698404+502089407+498794137+497692005+498846077+499772464
1562+499104645+495095780+493704607+502458394+510741609+517210020+522832025
1549+528494294+533049707+535433141+537015603+543389242+563245635+580903412
1535+591749983+604801504+620843060+633078271+642868384+652720742+660673694
1522+668159703+677372489+685059135+691744925+697924878+700809870+699155952
1508+694158249+694769815+703817640+709806681+712554924+714052647+716794385
1495+721552556+724523692+724383931+726351883+735046026+744575928+751509330
1481+757259592+762305776+764587968+762950827+760762038+764387947+771939352
1468+777324907+779928117+782939037+786534680+787482260+785481097+788256252
1454+796581033+802841720+806251654+809557024+816247402+824159063+830277661
1441+834347778+835814686+835953762+838754733+843303229+847074788+850951528
1427+853955053+853580691+851379302+849082799+845815707+844021960+845716896
1414+848109403+850151309+852205542+853225434+851183459+846566417+841877339
1400+837006592+832744123+830313406+829331929+830569371+831068361+827732998
1387+823406161+823022486+825743819+828340113+828594983+825196758+819208951
1373+815555103+816825620+819407739+820180978+818514597+815241480+813843117
1360+815494912+816609507+816136539+815588109+814607796+812531378+811372820
1346+811527098+811120758+809710822+808011436+807496149+808475640+810270962
1333+812961890+815295028+816008350+816168038+816912653+817985957+819102812
1319+820677844+822823904+824870741+827065214+830233151+833583168+836490414
1306+839899253+843881583+847369101+849966970+852231494+855057322+858351599
1292+860280861+859943066+859155241+858959124+857998533+855920265+854398713
1279+854397823+854762872+854487528+854092417+853619928+852786566+851929170
1265+850990080+850381254+850413301+849599730+847445247+845283096+843673003
1252+842725628+842528758+842268409+841385950+840231570+839030626+838022169
1238+837278170+836817527+837408139+839037405+840434877+841287549+842532798
1225+844372424+845745108+846297167+846479110+846266490+846385091+847527488
1211+848614145+849323495+850885516+853085673+854032021+853400118+853582403
1198+856139939+859655601+861921905+862371797+862554014+863743248+865162907
1184+866330709+868128427+870605503+873166189+875812814+878451358+881288895
1171+884247567+886067815+887140228+889614839+893591555+897596551+901294909
1157+904497701+907038529+909449936+911489719+912990591+914938480+918283087
1144+922790291+927422123+931039199+932615601+932937921+933685207+935141707
1130+936586976+937615427+938931686+940692427+942117222+943417252+945413758
1117+947993139+951390473+955947734+960202944+963228381+964562170+964697617
1103+965535704+966683921+967566996+967820839+967355609+968885652+973615611
1090+978863939+981755504+982939329+984726777+987265208+990470122+994684794
1076+998320291+1001672088+1006261191+1008880013+1008306315+1008634182
1065+1011069692+1012900211+1012725322+1012775515+1014721760+1017649139
1053+1020200786+1021363589+1021516634+1021825669+1023133437+1025778213
1042+1030276926+1036571920+1039748211+1036480093+1033681724+1036299520
1030+1040004862+1041235251+1041262437+1042034511+1042401273+1041910021
1018+1044040399+1047222306+1047065426+1044772826+1042130858+1038930600
1007+1034690797+1030629718+1030132577+1033779098+1037217381+1037476360
995+1036874176+1036661282+1034453457+1030916430+1030648138+1034873013
984+1040280275+1043839283+1044310266+1043307835+1043193548+1043635086
972+1044588829+1045965348+1047115414+1049184163+1050935660+1050821167
961+1051702393+1054004306+1054323613+1052550203+1051353847+1050153451
949+1048053133+1048218847+1050583347+1052514596+1055349668+1058672225
937+1060093391+1060522397+1061159915+1061329053+1060565400+1059774289
926+1060070382+1061637266+1064320731+1067544819+1068359966+1066288957
914+1065995739+1067351235+1067292346+1067561322+1069893159+1073187778
903+1073741823+1069546667+1064412353+1061757032+1061887343+1065000568
891+1069928630+1072509516+1071519206+1071269198+1071966770+1068978721
880+1064328195+1062549376+1060666746+1055644528+1049190874+1044295406
868+1044655320+1048856981+1050245209+1047239767+1042525695+1038471121
856+1036940667+1036044855+1033281820+1029129120+1024078416+1017821563
845+1008757029+998369731+992418010+991862596+991833425+989145509+983309104
831+975004798+968529505+966181713+963532555+958995426+956921335+958943726
818+961686834+962087217+960332707+958378793+957572138+956602645+953865631
804+950142417+947010977+944508360+941593786+937988557+933171084+927610777
791+923389805+920658612+918565964+917193554+914533029+909287714+905496844
777+904765034+903520265+900731483+898020217+895618054+892784557+890022755
764+888108831+886357951+884033715+881423315+879117362+876287905+873320467
750+872501692+871830688+868756496+866317904+866236485+866341734+866086384
737+864935702+861174345+856297298+853344720+853539810+855970048+859105938
723+862657208+864960764+864495533+862994113+861937244+861500431+859902459
710+856327017+853651427+852106456+851494891+853311098+853741816+850331951
696+848596135+851629721+855096696+853762154+848842583+846789788+848623800
683+848994806+845422309+839810781+836963794+840183431+845589597+846912293
669+843490170+841338427+841200036+840761785+843457712+844230403+837734636
656+832883062+833777368+835967184+837438680+835657053+828769872+821749025
642+820424070+823340492+823217645+816243431+806326225+800918894+803620163
629+806640054+802782419+799444591+804563429+815331595+823536267+828868616
615+835476206+834191789+822437490+815147598+815536751+814373538+814755501
602+821404998+824644288
##END=
