##TITLE=Sample description
##JCAMP-DX=4.24
##DATA TYPE=INFRARED SPECTRUM
##DATE=25/8/2023
##SAMPLING PROCEDURE=Instrument type and / or accessory
##ORIGIN=Default
##XUNITS=1/CM
##YUNITS=ABSORBANCE
##RESOLUTION=4
##FIRSTX=4397.6552
##LASTX=599.8556
##DELTAX=-1.9287962
##MAXY=1.8974472
##MINY=0.6576311
##XFACTOR=1
##YFACTOR=1.7671354e-009
##NPOINTS=1970
##FIRSTY=0.7615658
##XYDATA=(X++(Y..Y))
4398+430960631+430317949+431364643+433317280+433931562+432237429+430501235
4384+430842375+432329814+433079520+432756054+432199517+431683050+431188204
4371+431177984+431841343+432979377+434106820+434393319+433795463+433355596
4357+433390102+433460832+433692790+433493179+431901685+430175172+430107544
4344+430970345+431200549+430932636+430425276+429587333+429295000+429880173
4330+430734475+431526377+431729732+431114843+430858633+432071851+433754583
4317+434001787+432870734+431892005+431583953+431490927+431523240+432101701
4303+433178449+433544448+432703638+431902764+431819925+432606767+434513126
4290+435937862+435201479+433611603+433229785+434098186+434741914+434304104
4276+433722068+434196237+435274267+435347696+433994029+432679488+432490974
4263+432831338+432516810+431695294+432102780+433931393+435194024+435363009
4249+435496275+435564914+435010030+434184769+433467410+432704482+432116036
4236+432261276+433033783+433651000+433744734+433439009+432875828+432783813
4222+433662198+434627604+434913091+434772776+434675601+434570939+433665503
4209+432202856+431627666+432096271+432863145+433836714+434998460+435402776
4195+434619745+433947550+433795666+433823594+434384718+435046626+435447738
4182+435342502+434357330+433829024+434444858+434801919+434628852+434929922
4168+435330764+434876562+434243256+434083918+433562325+432811404+433178381
4155+434474607+435386789+435397515+434815174+434548171+435308705+436404071
4141+436611373+436037768+435717507+435807801+435694705+435420720+435682529
4128+436154574+435640873+434681605+435063558+436634241+437548008+437246905
4114+436760660+436305311+435211901+433887207+433704528+435000788+436232287
4101+436160409+435691265+435992706+436813952+437540284+437816461+437443008
4087+436748315+436122767+435576989+435145690+435173382+435946867+436918514
4074+437326338+437052791+436385250+435871684+435718721+435813939+436198017
4060+436661630+436797762+436502258+436264397+436436957+436769092+437187844
4047+437230343+436145602+434946888+435284453+436583344+437158871+436718397
4033+436255459+436583074+437207610+437298612+437170608+437053230+436893419
4020+437410392+438425043+438607048+437879671+437259789+437408233+438092436
4006+438308778+437798281+437330250+437386646+438042652+438947244+439292398
3993+438915133+438231132+437502136+437196378+437660597+438601145+439120715
3979+438461505+437408064+437141938+437157656+436643719+436033384+435998170
3966+436781235+437900414+438384096+438219630+438256092+438830169+439169083
3952+438407706+437096774+436438307+436769632+437343708+437721479+438432936
3939+439253440+439321304+438444910+437227611+436798639+437070364+436629115
3925+435659829+435900860+436635186+436479659+436895173+438633728+440517218
3912+442106318+442499705+440483421+436384137+432916202+432835015+434705182
3898+436572921+437902134+437841725+436498851+436385520+437518933+437404556
3885+436397899+436257685+436913286+438247053+438582425+436793850+434637656
3871+433615381+434371968+435873202+435664517+435571728+437515796+438692485
3858+437441254+433180877+427389720+429374837+435804461+439818950+440505582
3844+438744765+436163782+433806796+432620630+433963166+436449741+438661555
3831+440363951+440732784+439997851+439589724+438372223+435812927+435685464
3817+437030294+438853746+441668812+443317815+442478759+440559583+440398592
3804+440386719+438553654+438021031+439291589+441474833+444400836+446262605
3790+446598585+446161653+445163090+444197548+443672616+443166605+443750902
3777+445448577+445946188+444569079+442538393+441966037+442884593+443974832
3763+445017007+444952179+443787701+443851079+444057402+441224898+436243519
3750+436664497+442133807+447606153+452985271+458233248+462388794+464314379
3736+463279388+462811087+466291705+470356720+471696794+470193908+467854967
3723+465877540+463734838+461335893+459185332+457501216+456357718+458472930
3709+465368663+473014303+478991884+483365626+488103242+494686031+502454650
3696+510117594+515380952+516043299+513316570+513059214+514261806+512013362
3682+506156668+499146222+492110175+482936654+475199808+472333372+469038334
3669+467311720+469393911+470927356+470205275+468410931+465904186+462165234
3655+459816512+459549543+457037402+450994925+450445505+455451338+459185871
3642+460452415+460702048+460760939+460544969+459467985+456819880+451502083
3628+446398434+446190660+446336439+442851572+435427163+428528698+425413878
3615+422933644+420773976+420765679+422126800+423747335+424998262+424907294
3601+423502054+421980515+420488422+418838812+417462816+415440461+411357063
3588+406966187+405934333+406240800+405126207+402680648+400314893+399137597
3574+398619208+397597237+395318470+391037619+387013923+387282713+389626039
3561+390897878+390488806+388953641+386906056+385068808+384250058+383778519
3547+382599301+381762202+381956888+381717679+380553808+379484345+379163308
3534+379145566+378517185+377096902+376093685+376232111+376605463+376626274
3520+376661487+376877458+376724022+375804892+375068577+375150303+375121228
3507+374471935+373212677+372145272+372564328+373313258+373169402+372965844
3493+373111421+373044603+372649461+372367246+372471470+372768425+372977481
3480+373100459+373390533+373685632+373703745+373961776+374377897+374164423
3466+373967679+374246892+374132987+373898432+374386127+374991842+374728212
3453+373923392+373534794+373495364+373503695+374013989+375111548+376329117
3439+376983706+376858974+376843155+376941915+376521409+376632716+377832172
3426+378812048+378869389+378816028+379612147+380995799+382161492+382798238
3412+382966852+383270215+384090247+385064727+386354949+388077752+389160369
3399+389001806+388666096+389319775+390608479+391937996+393661068+395551001
3385+397073316+398603085+400588844+403224638+406155666+408684571+411116943
3372+413859794+416511340+419017545+421580551+424360977+427985653+432327790
3358+436407208+440318923+444148067+447123113+450111583+454550422+459512980
3345+463451780+466487707+469546571+473136506+477083029+480618120+483249293
3331+485509981+487846223+490060735+492177735+493982636+494863449+495730432
3318+497807126+500071861+501690373+502959986+503501109+503352935+503248846
3304+503433852+503605502+503375635+502749514+501842594+500218989+497938603
3291+495916586+494215268+492568660+490609211+487893613+485223044+483349368
3277+482436310+482026193+480885494+478878384+476808538+475098215+473436631
3264+471448849+470086007+470239409+470333683+468729068+466747931+465866072
3250+465670340+465456933+464953688+464190052+463275611+462553900+462202843
3237+461774141+461097695+460373185+459589546+458496676+456995408+455755781
3223+455405230+455714563+456202090+456030474+454917771+454128230+454397594
3210+455029921+455234896+454929340+454692086+454806902+454832772+454533389
3196+454313978+454218321+453863082+453246776+452755742+452827822+453327019
3183+453558909+453088281+452238803+451679163+451713668+452270947+452958422
3169+453453808+453944471+454780829+455708458+456024740+455790016+455793119
3156+456518405+457454130+458086694+458823313+459289050+458805807+458639318
3142+459829869+460781919+460310751+459750234+460138157+460974144+461653625
3129+461944340+461820249+461816775+462317658+462989652+463717164+464286856
3115+464412464+464465588+464808415+465429410+466284015+467026638+466723645
3102+465781242+466013740+467420295+468371029+468071848+467327640+467537370
3088+469059010+470525503+470650133+470036256+469492469+469218821+469525962
3075+469994027+469859311+469614165+469792560+469502992+468891948+469206037
3061+470112215+470624398+470446036+470226221+470678770+471252880+471199689
3047+470763532+470582910+470613031+470638429+470851903+471145755+471508348
3034+472149242+472746592+473070902+473406274+473664541+473580757+474041772
3020+476338483+479611293+481406986+481102509+479904302+478605276+477635923
3007+477280684+477308275+477580607+478307107+479332789+480109276+480511130
2993+481042471+481929929+482857086+483777227+484692107+485463906+486281712
2980+486990977+487143434+487247996+488211750+489884835+491190438+491159879
2966+489977828+489016502+489337742+490575110+491365629+491045435+490352293
2953+490191673+490835941+491704678+491813389+491397706+491734934+492867234
2939+493659439+493823163+493850146+494003987+494404390+494980187+495062082
2926+494283537+493365520+492805172+492786890+493337086+493374088+492365507
2912+491274323+491167434+492319230+493676304+494174793+494052017+494149057
2899+494974351+496006846+496445937+496185882+495720381+495846293+496601632
2885+497420990+498233939+498889945+499178568+499314667+499325899+499229331
2872+499054646+498652658+498482627+498816887+499178805+499896535+501347310
2858+502346277+502079274+501566181+501434264+500959892+500045013+499593374
2845+499931007+500598851+501401513+502365874+503194237+503706926+504017676
2831+504220087+504416123+504808128+505356840+505551156+505493242+505955269
2818+506828088+507510673+507932562+508182497+508444475+508925964+509500175
2804+510068990+510751001+511513018+511974270+511900672+511761133+512011743
2791+512478425+512850293+513205296+513973183+515064873+515696863+515829825
2777+516347809+517225553+517620357+517487192+517330890+517611216+518244859
2764+518621415+518903023+519457334+519927490+520154827+520321013+520593176
2750+521168433+521859079+522217152+522200118+522210777+522667137+523251872
2737+523590719+524191037+524822758+524777864+524756142+525407257+526287462
2723+527140651+527915519+528240503+528129365+528134997+528591290+529409704
2710+530107028+530273551+530359257+530913940+531537868+531809391+532064656
2696+532536903+532928503+532985675+532955790+533215474+533656791+533983360
2683+534330201+534917398+535379021+535505135+535706939+535942101+536025683
2669+536161310+536274877+536455532+536958271+537640754+538383782+538998671
2656+539199666+539011354+538716254+538576007+538822030+539740890+541013977
2642+541914994+542187259+542029236+542042964+542370815+542568436+542915209
2629+543712036+544335155+544455671+544551968+544985561+545646087+546195069
2615+546605928+547181792+547860768+548306604+548271762+547898680+547788182
2602+548363169+549395259+550121084+550178256+549969369+550097508+550892175
2588+551837479+552356846+552603746+552618925+552546001+552796949+553128814
2575+553337633+553841148+554598915+555046000+554982892+554757782+554782573
2561+555099698+555490488+555792536+556014544+556210040+556422401+556612804
2548+556721413+556835419+556993611+557306216+557852972+558273073+558425092
2534+558909549+560053014+561147099+561493670+561256349+561045910+561159376
2521+561143827+560854799+560969175+561590035+562152778+562644352+563333986
2507+563935080+564241412+564592502+565062355+565319576+565376849+565552782
2494+565883365+566345831+567011449+567554023+567596387+567478468+567709111
2480+568048970+568230434+568511334+568730441+568539195+568228073+568282243
2467+568953393+569992870+570851961+571419426+571633339+571349471+571093329
2453+571373150+571885501+572202356+572346314+572570345+572836876+572975842
2440+573287570+573966276+574662858+575149710+575334278+575279771+575340956
2426+575528223+575707596+576003000+576485534+577203164+577929630+578232791
2413+578232251+578263620+578363527+578541889+578879858+579513839+580402207
2399+581160514+581731825+582831745+585602693+591551165+602508337+619697040
2386+642990045+670722800+699686211+727853875+756721360+787228369+817381353
2372+845797401+871934143+895149030+913722060+924631471+928636515+927823566
2359+923385840+914283050+899680930+881501321+862149207+849859448+853090062
2345+869273760+882098604+881175966+873808290+868171681+866709169+868943480
2332+870671714+867006798+860164494+855772369+854607689+852073589+844330976
2318+831841471+819514543+814592123+817296085+818260277+809485338+790952986
2305+769700550+753969300+744358273+736199235+727196689+716903112+704799203
2291+691650826+678902076+667243802+657244009+649368096+643376855+638889479
2278+635434766+632476956+629742773+626856537+623777099+621349450+620217419
2264+619875739+619417085+618616953+617770477+616928858+615987399+614942323
2251+613953846+613293287+612788356+612186486+611605326+611093244+610695438
2237+610672840+611218583+611804803+611810671+611523431+611281658+611161918
2224+611414484+612009136+612386907+612373213+612477909+612702008+612726293
2210+612730880+612994308+613512394+614142326+614950756+615632902+615647270
2197+615347550+615368664+615840136+616343853+616578678+617023638+617453419
2183+617104858+616768980+617448292+618580593+619298694+619665064+620092417
2170+620339453+620071640+619840053+620099433+620306128+620309771+620833860
2156+621712851+622274988+622556832+622514805+622436080+622946475+623581602
2143+623851911+624197031+624617234+624875669+625234012+625495483+625338641
2129+625173096+625468162+626245156+627136964+627687633+627609650+627298529
2116+627726961+628784247+629358324+629215108+629102451+629411144+629718825
2102+629726380+629816033+630324540+630993126+631441189+631466959+631093573
2089+630802487+631046554+631870971+632934868+633664707+634058398+634536751
2075+635067721+635474971+635829401+636046080+636139443+636498595+637139793
2062+637678386+637874355+637934191+638505097+639687857+640781436+641213848
2048+641198400+641545005+642429460+643107289+643246592+643332872+643798542
2035+644670720+645523740+645721934+645470582+645546069+646040746+646544935
2021+646590672+645904209+645057463+645276030+646698539+647906191+648181694
2008+648315533+648746596+649092594+649344823+649821421+650251270+650353066
1994+650316166+650226580+650340991+650802411+651346333+651987464+652708669
1981+653212116+653416719+653534975+653947892+654742357+655240003+654970031
1967+654692033+655417015+656692464+657278480+657188962+657487469+658339544
1954+658995718+659327414+659690816+659882535+659687915+659255435+659058185
1940+659919705+661617919+663052638+663628604+663604858+663703011+664479262
1927+665436034+665473137+665027097+665278990+665664923+665862578+666652051
1913+667597827+667813359+667628791+667976340+668816138+669543144+669985271
1900+670340173+670712277+670907436+671040128+671065425+670580529+670461194
1886+671449807+672805329+673877321+674402557+674687302+675063791+675207951
1873+674617819+672814908+671099964+672637154+675867026+677422227+677607739
1859+677967903+678744155+679404646+679721974+679966985+679868630+678929195
1846+677494745+677212294+679361405+681738190+682480779+682436054+682603217
1832+681725642+679606214+678999689+679986548+681175311+682983484+684512511
1819+684783427+684786057+685163693+684902087+684146073+684473857+685623157
1805+686145965+685502270+684408624+684324503+685187102+685359797+684157541
1792+683771743+686250796+688890941+689921311+690074105+690043277+690049955
1778+690468336+690651083+689282811+686603809+686138274+688393363+690902368
1765+692318873+692238327+692044180+692463573+692662509+693197122+693243264
1751+690983926+688187545+688263504+689986948+691283174+691624045+691522384
1738+691755995+691072365+688823819+689200106+692241228+695483377+698006346
1724+698917448+698102340+695483445+689984722+685515830+688626434+694033277
1711+696940965+696615205+694263178+693004999+693250078+690889685+686782576
1697+687199270+691170315+694869837+696069462+695176978+693410428+689766897
1684+685693314+687643151+691708638+693917585+693230515+691397045+689955647
1670+688292782+689755294+693327453+693939172+692138420+691799101+692211546
1657+690644674+685477648+679580377+681295861+682740024+681892131+684783022
1643+689353778+691107511+689942156+686248840+684045155+688915429+694405382
1630+696786754+697051868+697216266+698525309+702535884+707064478+708505539
1616+709463120+713875617+717888351+719599788+720465220+722136855+724332850
1603+726051437+727743782+730062890+732344895+733841609+734708323+735704895
1589+737211661+738845857+740523698+742245388+743007676+742049217+739566522
1576+738609817+741783024+744164463+744293513+746018306+748900561+750002775
1562+748975981+744209661+739573470+745844801+752865535+756708273+758854752
1549+761451724+762987564+760836902+755969731+752584298+759028392+768548484
1535+772328889+773119847+776311335+779697577+780551609+780141660+779040593
1522+778743841+782113016+786884193+793137917+800131465+803757052+802602962
1508+798034905+799432117+810682129+818786323+821575552+821849301+824982437
1495+830297064+832421552+831499049+832017000+836911289+843412993+849102355
1481+852683014+853663464+852422420+849911189+848240026+851929902+859995846
1468+866433329+870993898+876755172+880704832+878674449+872474490+874958737
1454+886819658+895508654+900020788+902315745+903623844+905946797+910388099
1441+914953390+916412665+914693201+915447595+918895360+920055116+920991650
1427+924256129+925058487+922830045+920278473+916245434+914008356+915201707
1414+915183358+913870133+912798883+910561401+906700854+904099970+902236886
1400+897736085+891883607+886837670+882537425+881488099+882236422+879532798
1387+874405573+873441988+875731548+877488721+878126884+877220437+874980391
1373+874473234+876068573+876904661+877144748+877379033+876965644+877098201
1360+878135654+878678429+878710810+878767205+879077517+879486049+879466014
1346+879295545+879600122+878581423+875062556+873572318+876585107+879823547
1333+881394398+882778254+884546086+886010217+887256725+888808149+889837641
1319+889700565+889747246+891850957+895968523+900023824+903218752+906450041
1306+909290270+911145192+913411141+917442764+922066341+925388294+928087196
1292+931751302+935502835+937552107+938370183+939629104+941582111+943406001
1279+944960730+946604235+947613760+947367534+947163268+947586776+947752186
1265+948150599+949422877+951095052+952460693+952623404+952620639+954356967
1252+956768224+957647822+957110106+956661638+957202997+957813839+957447739
1238+957711774+959363576+960235417+960242230+961322654+962921097+963425286
1225+962708938+960897393+959570540+960656429+962389317+963063638+963770541
1211+964831133+965032970+964115122+963799481+964542205+965642598+967506154
1198+969722116+970783113+970375120+969503144+967508313+964059199+961837232
1184+962571322+965848550+969527767+971601796+972758179+973951530+974860945
1171+974908369+974798410+975332079+976326156+977787791+978873207+979170162
1157+979687371+980800580+982135123+983674268+985504837+986770234+987153672
1144+987964732+990148516+992645378+994290368+996376741+999462116+1000285656
1130+996767127+992910223+992072111+992218633+992194887+992085873+991241286
1117+992282381+997171342+1002700151+1006112635+1006714572+1004397016+1002518146
1103+1003867935+1006450267+1008380945+1010080509+1010155793+1008216008
1092+1008644980+1012459722+1015784240+1017461339+1017593492+1016649470
1080+1016787423+1017890379+1019233016+1023428498+1030742408+1034130000
1069+1030908493+1029731535+1034348837+1039698340+1043005790+1045162659
1057+1048742239+1052774334+1053459178+1053250797+1053310768+1051239640
1045+1049515185+1050067135+1051511028+1054488401+1059059090+1061959559
1034+1062397166+1061909437+1060559244+1059088839+1057200660+1055235308
1022+1056986005+1061152479+1061579765+1059264502+1060172569+1063922685
1011+1064153328+1059938553+1056044951+1053823457+1052713823+1052200460
999+1052089759+1054104492+1056660380+1054954678+1049981192+1047053941
988+1046129280+1044254323+1043396176+1045868618+1049128442+1050018429
976+1049298169+1050271738+1053912840+1056377727+1053849901+1049695435
964+1049244944+1050873135+1050228024+1049471673+1053748038+1061248541
953+1065783678+1066037999+1065153678+1066748073+1070345867+1069959326
941+1066125763+1064276103+1062324175+1060078328+1060255813+1060017615
930+1059588306+1061452537+1063924776+1066480935+1069189888+1068913306
918+1065173174+1062921593+1063671063+1064413247+1065037851+1066701256
907+1067736213+1066813373+1066452400+1068927945+1071855533+1073195809
895+1073741823+1072119028+1068213486+1067009746+1067832342+1064541487
883+1060888377+1063595104+1068100424+1066832532+1060868611+1056589818
872+1055634463+1053823592+1049613945+1045555405+1043409465+1043561990
860+1045647285+1045176555+1037652644+1028359080+1023926076+1023537309
849+1022722134+1018481388+1013840542+1013193947+1014921236+1013237121
837+1005929821+998283067+996576015+999930687+1001576958+1000357163+999342174
824+996126468+989637042+983642630+981010445+980404798+979394936+979000840
810+977381080+972047902+967441663+965334984+962624344+959250177+955167353
797+950418235+947797721+947641081+946967435+943806708+939763752+937690735
783+937622669+937765412+936118669+932402012+928640563+925715741+922446405
770+918447702+915392346+913969028+912629696+910100993+906614979+903663038
756+902143388+900017820+895794748+892691767+891983986+890709954+888448187
743+886374901+885493885+886501521+887870738+887332684+884346204+882612304
729+885019243+888194878+889483616+890592441+892279862+892148519+889290683
716+887606231+888643211+890557160+892318111+890720883+886369099+884280499
702+882645831+879476537+878621561+881918083+885531055+885928254+885104309
689+884287920+883872102+882895160+877663305+874388843+879249403+883890856
675+882481838+883817190+894183961+902486889+892785332+880487884+875228843
662+871420105+869727557+869674062+865371726+857481849+852689760+852061582
648+854205296+856288364+852830885+847820363+847697520+848755009+847375201
635+844325782+837374666+829768387+834295767+854803657+872344226+861909390
621+836067309+820839506+811676138+803616872+813600205+839569581+850174145
608+843265730+838221479+823836915+803062021+804017579
##END=
