##TITLE=Sample description
##JCAMP-DX=4.24
##DATA TYPE=INFRARED SPECTRUM
##DATE=25/8/2023
##SAMPLING PROCEDURE=Instrument type and / or accessory
##ORIGIN=Default
##XUNITS=1/CM
##YUNITS=ABSORBANCE
##RESOLUTION=4
##FIRSTX=4397.6552
##LASTX=599.8556
##DELTAX=-1.9287962
##MAXY=1.8700018
##MINY=0.23653649
##XFACTOR=1
##YFACTOR=1.7415749e-009
##NPOINTS=1970
##FIRSTY=0.23683153
##XYDATA=(X++(Y..Y))
4398+135986992+135948969+136252789+136506504+136455972+136411197+136532207
4384+136573353+136302851+135985461+136131429+136704853+137122726+137012788
4371+136692044+136634299+136692737+136794333+137362948+138110404+138437429
4357+138501788+138329578+137602306+136729854+136599159+137075821+137266735
4344+137105366+136983774+136838970+136534286+136229739+136256177+136586410
4330+136792408+136843659+136925901+136849623+136605071+136553691+136809357
4317+137142226+137361400+137368621+137011111+136587591+136830380+137330127
4303+137040570+136562530+136866761+137505442+137770563+137531889+137256245
4290+137414311+137609690+137355522+137046825+137224963+137783474+138430336
4276+138918977+138866784+138253052+137811239+138075701+138466100+138374233
4263+138095097+138052094+138181951+138300222+138510130+138812598+138920825
4249+138661138+138258896+138214396+138621069+139077976+139302360+139259409
4236+139016217+138750575+138593322+138559636+138692427+138864731+138959670
4222+139131460+139308752+139309607+139262369+139353714+139602510+139782300
4209+139699211+139508093+139505851+139912593+140491861+140646873+140196819
4195+139522082+139250835+139563597+139996169+140322518+140511968+140317435
4182+139870214+139793782+140132152+140292443+140246086+140264789+140266954
4168+140230017+140260742+140346920+140245795+139905765+139859091+140412811
4155+140976139+140982162+140823069+140910829+140964425+140934102+140958402
4141+140827467+140755313+141093084+141282876+140930209+140684391+140942188
4128+141308990+141490645+141526769+141486478+141456617+141573417+141863530
4114+142097429+142110597+141992916+141673738+141144463+140908477+141256138
4101+141724715+141941100+142165656+142518075+142668586+142631555+142780364
4087+143085578+143228243+143223306+143258840+143188491+142919375+142840025
4074+143098643+143374716+143542100+143553248+143343999+143248701+143502690
4060+143783665+143869997+143903058+144012987+144207194+144333055+144245817
4047+144122506+144283498+144633324+144760674+144574800+144265290+144083096
4033+144194120+144447245+144619121+144666009+144627044+144451387+144141894
4020+144018754+144205500+144427258+144692584+145036558+144959621+144379618
4006+144083216+144361427+144717945+144777016+144565611+144427138+144488298
3993+144457153+144446852+144736409+144909123+144667891+144386942+144329633
3979+144386617+144368940+144305744+144343784+144421200+144526099+144717585
3966+144802685+144641590+144523378+144715053+145077029+145302363+145107933
3952+144477928+143760940+143665009+144192597+144360127+144164961+144321196
3939+144729256+144887835+144257573+143146293+143012243+143798553+143785804
3925+142947242+142894802+143424538+143383032+143406759+144314967+145314410
3912+145825229+145802743+144560477+141717451+139073997+138848397+140538971
3898+142941228+144571481+144302886+143029818+143090010+143685081+142991940
3885+142013305+141685751+141998803+143409163+143986720+142730199+140994637
3871+139752080+140027964+141205571+141238119+141417730+143058780+143995139
3858+142794301+139382874+135817581+138122152+142789955+145459984+145720587
3844+144182125+141701417+139221197+138749300+140786398+142583393+143653133
3831+144808913+145527800+145481101+144712246+142381134+140025825+140799463
3817+142407735+144288512+146787436+148084581+147213138+145292951+144463177
3804+143696324+142600060+143255169+144649307+146458880+148718848+150110692
3790+150399479+149842320+148793149+148312670+148338116+148042485+148497586
3777+149973041+150645828+149747518+148002510+147161510+147712252+148643092
3763+148916888+147697501+146036532+145887655+145819650+143520846+139912901
3750+139801201+141819090+142534084+143307824+145059283+145713332+143898677
3736+140592139+140304832+143874052+147159782+148150378+147466263+146902242
3723+147423414+148735293+150254059+151107466+150209516+147243786+145402162
3709+147631619+150423471+151481095+151174751+151120984+152117552+152969128
3696+152814484+151279821+148407952+146356018+148019503+150981006+152670262
3682+152766142+151368428+148603648+145737084+146104022+147447011+147695345
3669+150004168+153569872+155589173+156141608+155894490+154847766+153472674
3655+152963122+152078331+148536773+144653209+147079183+151942648+154985058
3642+156406815+157044196+157222335+156916812+156221215+154857913+152322729
3628+151679564+154551706+156721287+156657167+155129331+154326834+154935997
3615+155620882+156544175+157540110+158065217+159413477+161455794+162330608
3601+162068396+162218077+162763942+162850376+163070406+163419599+162683583
3588+161734963+163033906+165275016+166636315+167025226+166797581+166435947
3574+166254660+165863712+164299273+161254297+159520377+161212885+163436934
3561+164426075+164704390+164643401+163866093+162959296+162955548+163169298
3547+162812079+162612704+163174551+163937879+164183988+163795676+163375124
3534+163345674+163219625+162523908+161773209+161580953+161780807+162235686
3520+162937974+163483514+163540446+163136699+162494834+162223006+162603891
3507+162933628+162656956+162322052+162727202+163413045+163786658+164070499
3493+164279731+164233015+164098615+164113742+164245815+164231166+164059188
3480+164080253+164409374+164667803+164634144+164654764+164964513+165355837
3466+165475811+165063782+164392415+164116018+164354837+164693831+164804685
3453+164724531+164629763+164439286+164340890+164651256+165023585+165333471
3439+165805325+166345783+166849209+167165855+167230368+167368755+167779912
3426+168316108+168897994+169632847+170463563+171417213+172888921+174707306
3412+176159472+177227073+178414306+179967399+182024672+184560644+186981382
3399+188830416+190462003+192216817+193947878+195679350+197709243+199981840
3385+202183455+204398692+206835121+209128013+210889072+212523758+214506763
3372+216695099+218946322+221203741+223141364+224706676+226381113+228567806
3358+231142366+233668242+236081930+238595382+241130994+243529948+245846934
3345+248085563+250070177+252182192+254864799+257449233+259347790+260741825
3331+261686080+262377006+263278618+264398839+265554192+266723783+267616565
3318+268057582+268609060+269875437+271338127+272357677+273654428+275459671
3304+276832436+277707010+278633709+279603034+280285216+280207680+279411017
3291+278830021+278757448+278551793+278013680+277417180+276787431+275999273
3277+275295736+274828673+274472840+274475407+274865961+274976694+274538979
3264+273964126+273358437+272825732+272784508+273139212+273390968+273255353
3250+272876761+272529433+272341249+272372889+272299597+271819855+271364377
3237+271270123+271159184+270764745+270172164+269414655+268719571+268445689
3223+268419131+268006519+267197656+266619877+266425738+266403577+266499167
3210+266689216+266749571+266474936+266078513+265874705+265877255+265868425
3196+265703719+265622949+265894829+266170970+266087514+265836271+265331425
3183+264641971+264440046+264588666+264362715+263901762+263938177+264602664
3169+265134548+264959438+264510001+264384841+264447010+264359652+264218065
3156+264356264+264816242+265219613+265474021+265770269+265928198+265902342
3142+265985011+266033422+265792994+265553114+265563142+265588742+265478077
3129+265372289+265256883+265055147+264944276+265165025+265543771+265483416
3115+264916777+264416927+264169809+264064157+264171468+264359190+264225543
3102+263685137+263067897+262689579+262560450+262439278+262261293+262264270
3088+262529168+262723598+262491983+262052403+262098350+262885823+263923683
3075+264819545+265734145+266832959+267613416+267293810+265922072+264208089
3061+262446157+260663091+259239982+258233558+257233892+256307057+255651160
3047+255215533+255036624+255126651+255400414+255733590+256029324+256187442
3034+256105594+255966539+256003433+255989401+255865132+256079498+256551198
3020+256999146+257764818+258821467+259671930+260394154+261496134+263171358
3007+265164443+267204826+269322420+271683521+274440994+277879964+282396135
2993+288313597+295840298+304660174+313352427+319948596+323327724+323878705
2980+322928015+321693193+320765160+319905644+318563288+316740830+314610898
2966+312287563+310180973+308532239+307323803+306623603+306225195+305780686
2953+305405517+305393435+305887262+306832441+307891931+308741282+309295926
2939+309645290+309865525+309904165+309657611+309054163+308125548+306881656
2926+305244182+303138447+300561371+297725011+294820064+291663327+288239740
2912+285180937+282800328+280604034+278440837+276715610+275466568+274484357
2899+273726129+273084315+272495294+272061446+271827555+271798310+271960329
2885+272226733+272422515+272415807+272311183+272132582+271684034+270944424
2872+269975544+268830133+267697643+266607898+265511839+264531733+263648141
2858+262579718+261034650+258960042+256501709+253906032+251506753+249452988
2845+247681918+246159302+244798157+243394915+241969890+240835106+240054854
2831+239290226+238351258+237528345+237018861+236622181+236297972+236062712
2818+235771530+235529152+235526499+235650888+235642709+235422114+235184544
2804+235121725+235194487+235281639+235264185+235082213+234844592+234638286
2791+234482085+234336614+234065384+233731369+233472905+233202018+232878373
2777+232630399+232505548+232386292+232167204+231875696+231605048+231433053
2764+231393729+231472548+231611055+231777609+231960796+232030237+231868920
2750+231608094+231430931+231354918+231359145+231330276+231097874+230853956
2737+230848668+230905190+230917408+231004339+231123423+231142846+231013785
2723+230870452+230880891+230979218+231058088+231170585+231360753+231525100
2710+231588740+231661159+231855966+232090815+232244962+232362284+232475020
2696+232584436+232742245+232863691+232882891+232891139+232890283+232833933
2683+232819387+232915045+232969684+232834925+232586352+232424727+232447332
2669+232499131+232388346+232174083+232044252+232074096+232173245+232163302
2656+231984684+231820441+231861373+231969095+231883208+231739209+231834575
2642+232106695+232307422+232351880+232330506+232367520+232497283+232630810
2629+232732371+232887511+233098009+233277586+233376478+233475233+233687202
2615+233987968+234363959+234762590+235055004+235274812+235500831+235720552
2602+235915923+236087097+236307589+236640030+236978493+237266870+237582762
2588+237882090+238104687+238306201+238532152+238769499+238984258+239135326
2575+239171672+239185413+239270718+239238838+238978714+238720541+238663061
2561+238715989+238709247+238589718+238407831+238318163+238386064+238473422
2548+238515673+238502342+238343882+238146886+238169046+238451639+238826637
2534+239075997+239120592+239115972+239193850+239366359+239600643+239785113
2521+239929182+240154088+240391812+240548886+240700552+240952188+241340192
2507+241783948+242143203+242352503+242493560+242747523+243167065+243570881
2494+243821285+244016502+244269010+244565429+244855089+245106862+245308684
2480+245412265+245405711+245388034+245444453+245568723+245662515+245642528
2467+245582053+245601493+245732419+245877924+245871798+245769227+245797308
2453+245929005+245966891+245897860+245867007+245956709+246066690+246088217
2440+246078960+246078857+246071139+246120046+246225013+246297963+246341086
2426+246348598+246288089+246291597+246461197+246657338+246723357+246662420
2413+246644948+246855412+247259758+247631386+247821058+247953114+248148981
2399+248353114+248584318+248822110+248946636+249069759+249354353+249608727
2386+249569609+249230820+248573759+247496165+246037702+244340283+242527185
2372+240694237+238969781+237383250+235789960+234474231+233975562+233991681
2359+234194239+235265947+237455344+240223307+242855964+244144450+243481640
2345+241845809+240790580+240567299+240835020+241453321+242194146+242870458
2332+243425392+244067034+244914777+245777065+246615087+247631865+248870418
2318+250150673+251343040+252367056+253099941+253583072+254125241+254861120
2305+255608277+256299664+256956160+257537019+258029425+258396056+258659859
2291+258943632+259313120+259716457+260083635+260407793+260653508+260802693
2278+260899839+260976930+261097846+261293525+261526063+261757165+261923702
2264+262042067+262212933+262435821+262648715+262796668+262877917+262989027
2251+263145382+263277215+263416492+263611349+263788667+263910010+264073843
2237+264357496+264696952+264927626+265034116+265154158+265340323+265580819
2224+265796742+265957700+266146346+266355030+266552335+266758076+266958546
2210+267116869+267291038+267583076+267928915+268207144+268395002+268547901
2197+268773115+269107318+269434762+269615604+269698017+269884900+270227317
2183+270530906+270713768+270937870+271183312+271250734+271222208+271344749
2170+271671525+272044984+272246926+272305724+272458793+272744003+273018673
2156+273210655+273390677+273626159+273852691+274017414+274144302+274302950
2143+274556092+274844536+275070059+275239419+275440814+275739012+276045083
2129+276209395+276317048+276555867+276850815+277019045+277090147+277196825
2116+277390912+277660362+277911400+278069928+278197859+278353581+278526039
2102+278703253+278935553+279226889+279436652+279527501+279654662+279944527
2089+280331744+280670567+281015106+281451845+281815824+282001851+282176944
2075+282479541+282884777+283263574+283454770+283493854+283643997+284052108
2062+284558786+285004526+285394926+285711401+285924962+286071238+286170198
2048+286256906+286417847+286645834+286874334+287167143+287594881+288059925
2035+288404703+288615321+288790448+289016262+289379350+289806918+290147555
2021+290398660+290557120+290761167+291274330+291938595+292405315+292710427
2008+293119650+293673814+294149639+294434250+294641514+294915379+295194823
1994+295211969+295201633+295741081+296607305+297369657+297999868+298500368
1981+298952748+299430044+299906587+300429436+300999446+301350898+301305858
1967+301345798+302025156+302978105+303672487+304153137+304578069+305001564
1954+305433478+305842427+306180669+306342482+306177999+305715454+305735407
1940+306707385+307722622+308274528+308635939+308957410+309195785+309376901
1927+309358693+308888927+308561398+308861719+309248730+309945645+311125776
1913+311790657+311644347+311545027+312112128+312966716+313667498+314248699
1900+314685473+314771925+314776305+315095997+315273315+315237687+315813276
1886+316707906+317332025+317945090+318568079+319098457+319605973+319938465
1873+319577122+318200028+317112200+318304824+320572441+322052859+322740191
1859+323258145+323883257+324484548+324870944+324982345+324736373+324066598
1846+323295656+323762547+325771153+327397983+328170945+328837845+329297412
1832+328672301+327574479+327956186+329331124+330795045+332494808+333789866
1819+334445300+334945116+335344038+335332743+335376174+336273200+337529550
1805+338110067+337681918+336974085+337172040+337963997+338028202+337284639
1792+337847941+340506060+342584621+343302652+343477300+343457792+343727858
1778+344496953+344419913+342716933+341258453+342842435+345874286+348108705
1765+348842378+348542433+348723105+349415091+350140344+350973507+350582218
1751+348550784+347385027+348779712+350832878+352130913+352741137+353478437
1738+354093110+353169800+352098024+354351848+357915413+361041929+363041226
1724+363861247+363995167+362754048+359725037+358796113+362997590+367653979
1711+370179786+370449373+369557310+369450426+370002640+369543757+369132651
1697+371280448+376430390+381536524+383861467+384400983+383998160+382477186
1684+382928676+387833775+392319042+394777700+396010024+397759002+399583856
1670+401604577+406599413+411784880+414168210+415366104+417322859+418647350
1657+417673456+414017417+411548354+414306443+415569535+417116348+423626716
1643+430543638+435059433+437485783+439059805+445461237+457415535+467217725
1630+475401606+484256767+493574234+503998182+517020389+528419976+536922693
1616+546953469+557498639+564576861+568971364+572356721+575462464+577684733
1603+579014015+580065463+580416744+579389390+577556733+576126283+575338571
1589+574472279+572920366+570709767+568275852+565515265+561559829+555760784
1576+551110316+550921568+550442732+547978392+547120040+548398704+549477530
1562+549028709+545528426+544035516+551782418+559316648+564815304+569371997
1549+574293353+578158127+579409446+579449420+583856723+600889400+616582595
1535+626001196+636515941+649628741+660359033+669096770+677337087+683954544
1522+690970648+700516153+708705134+715353530+721363090+724195925+722330413
1508+717555059+718743747+727125274+732380525+734720322+735747127+738039215
1495+742886372+746448122+747070256+749218875+756820219+764616918+769997909
1481+774403706+778323309+780711704+780304911+778155471+780082588+786360606
1468+791509213+794483259+797357849+799971989+800154954+798062943+801313250
1454+810952189+818760934+822689709+824669463+828604809+833101985+835397701
1441+837371089+840127604+843365043+848664786+853988417+856685655+858973567
1427+861634801+861222737+858484361+856057703+852963665+852400739+856942818
1414+860666040+860087371+857309090+855479102+854734786+853572451+850776031
1400+846063034+841250444+837698961+835429188+835581555+835655412+833057562
1387+829868996+829604782+831613559+833174336+833013618+831531557+828879222
1373+826303002+825863490+826598360+826600892+825302138+823488236+823159201
1360+824495329+825214729+824282178+822757953+821923215+822054775+822674308
1346+822037457+819960710+818267963+817509821+817821196+819244322+821328872
1333+823800981+825577988+825597702+824396693+823647654+824949009+828327316
1319+831961075+834611357+837103659+840302150+843377911+845101187+846487419
1306+849571873+854264609+858792382+861749385+863501683+865569462+868320091
1292+870790078+871976986+871547399+870507657+871040944+873500184+875030365
1279+874413706+873438785+872472694+871529876+871425902+871032661+869510558
1265+868007278+866539455+864963961+864320882+864326631+864141408+863778217
1252+863264438+862759352+862250501+861606737+861266613+861293924+861629325
1238+862462693+862988862+862538193+861933855+862400678+863828048+864750674
1225+864962729+865402857+866210557+867292259+868336382+868837155+868987538
1211+869573737+871386612+873635508+873965433+872694606+873082234+875214903
1198+876021097+875630869+876988968+880483433+883341595+883928204+883862835
1184+884073179+883801710+883918484+886225768+890826097+895045165+896807661
1171+898545379+902451018+906433184+908589057+910423152+913164403+916006205
1157+918323756+920088922+921766611+923647319+925762397+928561145+931673185
1144+934149332+935212005+935013366+935961523+939588574+943991770+947416006
1130+950288885+953011517+954297608+953487444+953614486+956025743+958039722
1117+959305689+960843262+962088762+962567701+962685365+964010814+966470191
1103+967164402+966369092+966605857+967408287+969741033+974413918+978652152
1090+981600256+983694389+985455516+987934470+990933158+994116522+997299338
1076+1000906334+1005066740+1008694613+1011856415+1013707896+1012275529
1065+1011408484+1014865918+1018230056+1019793708+1022911566+1026382827
1053+1027036927+1024897344+1022296208+1021329022+1023091792+1026747045
1042+1030456714+1033650892+1035088256+1035244525+1035525235+1033057986
1030+1029239072+1030392440+1035281282+1039586733+1042489797+1042609994
1018+1040581367+1038901557+1038433023+1040031584+1043806827+1046516386
1007+1045921768+1045428456+1045863313+1045502997+1046236087+1046160451
995+1042849018+1040736199+1040593962+1039181993+1039482006+1043848855
984+1046636446+1043705249+1038177228+1034458318+1034416085+1037868796
972+1041754311+1042655239+1042526760+1044230185+1046698324+1048671849
961+1049663472+1048579169+1046117944+1044998047+1046640690+1051008360
949+1055861951+1057704807+1056468411+1054870466+1054270304+1053628251
937+1053722026+1055811641+1057721030+1058717238+1059964998+1061594498
926+1064224382+1067824669+1068742504+1064930777+1062069261+1063884943
914+1066094686+1066179768+1067311712+1070344966+1072505905+1073195873
903+1073623201+1073741823+1071840648+1069203235+1069696479+1071621269
891+1071588413+1070154267+1067356067+1062904272+1059218765+1057684752
880+1055827864+1053344598+1052958545+1054322188+1054721931+1052665925
868+1047696175+1042821297+1042278426+1043488265+1042795902+1041782923
856+1039208825+1032600404+1025028355+1019731077+1017368350+1017370061
845+1015707158+1010095835+1003218956+996548109+990818506+986617783+983524772
831+981066284+976571503+968976456+962367076+959649304+960283690+961979038
818+961594970+959432457+958822096+960741820+962135787+958990207+951336567
804+943231642+938153880+935991846+935993557+936821929+935361361+933471070
791+932479105+928076799+920457795+915259357+915293650+915757119+911502595
777+905364350+901190048+898933828+897580315+897078994+896446181+893596439
764+889802440+888163220+887295148+883446391+877836231+874110819+872314851
750+871189205+871161346+871229042+868656381+865617924+866279075+868859401
737+869588932+867651000+864504325+863459997+865064376+865626480+865136864
723+866885534+868977066+867947522+865975845+865857633+865843327+862409714
710+855578695+849470843+846799547+847754686+850556104+851320270+850694918
696+852258570+853238830+848549996+840664725+836614110+838218763+841975799
683+842333378+836516981+831825751+834662900+840397978+844473234+846054546
669+841704262+833997574+832856595+836044887+838490986+838257643+837256642
656+836272892+833700505+828956295+822668558+818065149+817695934+820352855
642+823376527+826548255+830970548+833971906+833127106+826940537+815071320
629+804195232+800455719+800941708+799683066+798831490+806998498+820464154
615+816040423+796047322+786546993+787636361+789538083+791210843+791348905
602+792345456+795319707
##END=
