##TITLE=Sample description
##JCAMP-DX=4.24
##DATA TYPE=INFRARED SPECTRUM
##DATE=25/8/2023
##SAMPLING PROCEDURE=Instrument type and / or accessory
##ORIGIN=Default
##XUNITS=1/CM
##YUNITS=ABSORBANCE
##RESOLUTION=4
##FIRSTX=4397.6552
##LASTX=599.8556
##DELTAX=-1.9287962
##MAXY=1.8867544
##MINY=1.0055085
##XFACTOR=1
##YFACTOR=1.757177e-009
##NPOINTS=1970
##FIRSTY=1.0611356
##XYDATA=(X++(Y..Y))
4398+603886617+605173635+606529174+606527477+606076943+607349376+610395996
4384+612836386+613032583+612737812+614028833+613800004+610084197+606864378
4371+606458618+607992376+609917171+610250137+608088914+604747659+603807446
4357+607141985+611402287+612087688+609236315+607026993+607528952+608047463
4344+607573388+608090339+608751250+608606408+609402120+611433290+613179731
4330+613566291+612987129+612451589+612176289+611979074+611333631+610095255
4317+609537124+610344640+610478152+608578526+607673250+610724891+614899713
4303+615562455+614423670+614847882+615394616+615277996+615573853+615650513
4290+614969454+613987654+613384612+614072930+614879157+613926596+613184819
4276+614139686+615305201+616298059+615832735+612636389+610365671+611909469
4263+613738811+613522940+614244297+616476753+617239290+615571885+614321162
4249+615023252+614722443+613886434+616261153+619128198+617939278+614642526
4236+612065301+610138538+609153345+609785559+611904991+614257459+615280032
4222+614830786+614825223+616390527+616579737+614653584+613855295+613667171
4209+612475062+611661102+612699142+615691829+618855882+620023093+619254722
4195+617707396+616087412+615261714+615877782+617416696+618249380+618166818
4182+618772573+619348275+618774744+618481059+619273582+620516639+620528376
4168+618823183+618128962+618890007+618646252+618101825+619565639+622145442
4155+622452696+620621522+620398391+621389893+621062694+619694809+618510434
4141+618378483+618415185+618557109+620424375+622386211+622837899+623348880
4128+623130363+620807611+618903778+619251126+620766770+621707255+621276191
4114+620385569+619518082+619041768+619939784+621741176+623430290+624501370
4101+624555236+624576674+625750397+625892321+623447861+621491587+621656781
4087+622607917+623387414+623441552+623362788+624210737+625607862+626309885
4074+625419263+623490398+622590007+623472284+624317045+624400150+624684270
4060+624723143+624260872+624730063+626654994+628594782+628675038+626924867
4047+625226730+624811201+625616207+626719307+626730094+625847546+625920136
4033+627081241+627881701+628289632+628813638+628888671+628391054+628064873
4020+627729737+627157970+627548872+629292734+631197991+632546745+633089883
4006+632054963+629497004+627470651+627642696+629320006+630960614+631692690
3993+630928932+629061327+627594461+626645360+626319925+627440597+629244160
3979+630384912+628959565+625923800+625992523+628697426+630028609+630239121
3966+631677426+634106011+635270305+635100091+634525746+633192324+632060798
3952+631612027+629673731+626470058+626113620+628693830+630492644+631067871
3939+632183116+633076044+631967923+629365596+628585488+630701528+632841923
3925+633163559+632551562+632290441+632265136+631902184+632337319+634457090
3912+636211265+636242607+635137336+633239677+631944246+631888820+631549545
3898+632818925+635787663+636721635+634748876+634862714+638299490+639259920
3885+636197493+634174192+633993937+635954146+639164942+639636168+636260110
3871+631615555+630710958+634506208+635989830+633998890+634329345+637254733
3858+639778160+638579743+631012988+627926409+632755832+637428067+638755452
3844+637172509+635258568+633572778+631737533+632500410+635359109+637702757
3831+639619479+640770272+640445312+639946814+637880095+633393609+633444965
3817+636757523+639190790+641786265+643907597+643985953+642010888+640516749
3804+639350895+635684884+633923925+636249459+639479726+642847372+645798539
3790+647678220+648578407+648424543+647278973+645725338+643902237+643335151
3777+645545219+648147072+649072631+648747468+647595386+645685990+644310506
3763+644551004+644784175+642807752+640676312+641254863+641796780+637656964
3750+634596504+637928533+640275166+639874970+642119162+645309471+645408451
3736+641403707+637887150+638204919+640402030+643302791+645732529+646340320
3723+646047924+646036323+646634209+647726184+647382431+643650953+641259951
3709+646169089+651661526+653130088+652471280+652721751+654435017+656099165
3696+657329197+657929797+656435523+652541564+650365756+651741375+654287869
3682+655798832+654801496+650777146+643226469+639831891+644160238+646387741
3669+644953643+646130487+648331804+649077855+648123666+645199975+641482539
3655+639735488+637931925+632626527+628004698+629230524+630642302+631747710
3642+633901470+635940238+636025379+633526103+629969384+627334697+623179888
3628+618461317+620318407+623620449+623074191+618131744+611391636+606938393
3615+604798065+605215222+607246053+606574356+604946231+606428226+607390080
3601+604909664+602092959+600695562+599271368+597977701+596923107+594454631
3588+590978507+590305657+591994296+593676151+594442555+593577646+591483654
3574+589351196+587768118+586374928+584294979+582749349+583825042+584659152
3561+583433936+583072206+584303052+583957875+582179753+581168510+579843975
3547+577835260+577440559+578483484+579271190+580042479+580614653+579642689
3534+577529770+576240648+575984819+574993046+572934467+572229527+573805686
3520+575035786+574910890+575319905+576467713+577012615+576866146+576760720
3507+576601904+575496700+573568920+572475588+572819815+573574279+573935806
3493+574439460+575631161+576118466+574490409+572487596+572669750+574666593
3480+576289969+577181269+577635738+576754615+575166245+574797188+575962974
3466+577451549+577499920+575561285+574025288+575502602+578664349+579763447
3453+578213068+576665335+576444851+577010919+577988581+579444186+580641721
3439+580532158+579271258+577886887+577791298+579261964+580954131+582281244
3426+583088624+583188283+583289706+583765816+584475234+585456491+586514274
3412+587427893+588403792+589836059+591788601+593637685+594240524+593450307
3399+593379006+595406378+597389788+597998461+598316501+598690443+599983228
3385+602294922+604472766+607391437+610392129+611647533+613535762+617520425
3372+620558090+621550881+622616804+625234803+629581738+634428258+638714068
3358+642198672+644400668+646444864+649616923+653293518+656829885+659892651
3345+662326799+664315908+667156834+672142496+677056992+679965894+683330691
3331+688011134+691165012+691985757+692496059+693977919+695798035+696675291
3318+696934920+697395631+698686449+701943648+705216316+706209446+707184326
3304+708684774+708647393+707598769+706081972+703419537+700185336+697301331
3291+695269822+694136735+692904872+691800889+692509221+693716254+692451623
3277+689146053+686164628+685168920+685888039+685565453+683466238+681914434
3264+681273740+680055852+677546129+675336739+675300172+675844938+676405105
3250+678559543+680286038+679152680+676776265+675955723+677273271+678821139
3237+678591496+676639768+674785595+673870755+672096296+669102931+667690745
3223+668900085+671278061+672429193+671096450+670284999+671121347+670729021
3210+669823067+670424277+671141768+670768572+669840570+668801173+668516307
3196+669350009+669755022+669393563+669192482+669357336+670449311+672457890
3183+673968446+673763701+673166425+674919311+677287721+676626674+674664702
3169+674003791+673843618+673937850+674637566+675007776+674724674+674748011
3156+676101243+678466736+679891744+679608438+678824260+678602961+679854363
3142+682607637+684606922+684078167+682611233+681749648+681100473+681688251
3129+683864263+685312948+684724966+682887754+682587556+685081269+686594675
3115+685232556+684040786+684285490+684958205+685660295+686295358+687171530
3102+688041527+688612413+689818496+690978719+690959520+690619364+690596026
3088+691073019+691216503+689808184+688573946+690155193+694021948+697113750
3075+697529686+695739284+693015792+690944188+690776756+692134736+693685861
3061+695078916+696497479+697607567+698571322+699298106+698836446+697440678
3047+696367834+696493205+697899082+699465200+699897214+699008356+697783955
3034+697876151+699818518+701884084+701980215+699784733+697049029+696119738
3020+697507773+699584668+700744077+701737479+703796735+705359461+705325880
3007+705396028+705825735+705487207+705594260+707125915+708773782+710412286
2993+712345901+713168546+712849081+713257079+714501493+715142526+715443945
2980+716182127+717059384+718334462+719908721+721183732+722696255+723714554
2966+722022116+719160092+719113756+721488543+722935600+722514372+721853733
2953+722430385+723108256+723131118+723923980+724426074+723562657+723266869
2939+723625411+723416188+723295023+724438625+726891837+728956182+729259161
2926+728694314+727740057+725868178+724229063+724015702+724718335+725618522
2912+726029166+725811870+725592268+725817094+726710361+728028994+729150276
2899+729265742+728290183+727945413+728820838+729138132+728791734+729156517
2885+730052023+730858589+731203902+731315908+732648855+734961500+736198994
2872+735917792+734657570+733203594+733087111+734489324+736139090+737267360
2858+737924879+738701527+739287201+738481381+736830936+735652939+735048337
2845+735564949+737181948+737933155+737357250+736599258+736283592+736915738
2831+737765655+737382080+736379181+737011123+739388556+740977401+741290285
2818+741696791+742495759+743721516+744693208+744384598+743483258+743703471
2804+745232276+745982805+744807792+743977482+745444484+747332373+747986635
2791+748700055+749790944+750036327+749576973+749714691+750467255+750768606
2777+750858496+751187120+751170295+751197092+751977879+752676916+752923791
2764+753401530+753916989+754258027+754982234+756230718+757135112+757255327
2750+757578794+758265349+758748244+759281884+759408273+759126663+760027325
2737+762048387+763614912+764276637+764220057+763891909+763501889+762735552
2723+762148589+762102932+762194721+762617305+763316139+764139055+765620032
2710+767309010+767940885+767692382+767713549+768159741+768445964+768809865
2696+769588616+769966764+769738274+769662970+770065744+771263687+772440192
2683+771847937+770560240+770888050+772167606+772891948+773299946+773905973
2669+774772172+775208188+774466343+773881075+774598023+774946863+774037857
2656+773804482+775321958+777297702+778137103+777472462+776667252+776877357
2642+777117244+777229318+778542659+780151449+780427767+780121124+780669350
2629+781602915+781095258+779552681+779244478+780573898+781928486+782030248
2615+781892598+783165981+785202171+786462596+786601874+786026376+785591988
2602+786259479+787663592+788265548+787874104+787980208+789100472+790512251
2588+791706802+792037596+791151995+789685197+788796814+789557384+791073774
2575+791646219+791970976+792855627+793388386+793100670+792035832+790780224
2561+790678259+791614402+792618454+794148820+796382904+797798482+797553167
2548+796525235+795566569+795224716+795694042+796340774+796837984+797317419
2534+797635188+797705946+797726570+798191012+799307681+800145318+800140569
2521+800544158+801860484+802708094+802389850+801769712+801791625+802130289
2507+802031851+801509337+800870678+800594496+800826174+801313343+802068689
2494+802970708+804132627+805566929+806005795+804946927+804133170+804795980
2480+805916109+805979879+805345495+805670116+806867855+807815938+808689328
2467+809377375+809650097+810108230+810380817+810203751+809976821+809576422
2453+809710069+810772533+811348167+811046883+810810660+810649536+810640649
2440+810933724+810962624+811365602+812240552+811739883+810302053+810584070
2426+812678740+813942828+813761488+813860943+814093639+813654706+813410273
2413+813588221+813326828+812972425+813270384+813769357+814392684+815606027
2399+816712248+816995350+817158780+817365425+816974930+816749086+817403755
2386+818506449+819671964+819592521+817134629+813812572+810881486+807193019
2372+802682450+799119353+797113013+795260265+791914328+788120571+787030903
2359+790235662+795831218+800302982+802769694+805478464+808804319+810002940
2345+807709292+804405213+802370922+802115839+803579991+805559331+806880948
2332+807393083+808221765+809964814+811827738+812966455+812757843+812489869
2318+814839080+818936020+821144935+820949891+820795688+822032775+824242233
2305+826226661+827064977+827308799+828345347+829987447+830657652+830327468
2291+830513693+831773303+833009984+833061407+832224720+831611909+831637960
2278+831913396+832444458+833106251+832975181+832403414+832725593+834013765
2264+834829557+833710378+831564555+830675291+831622356+833402853+835412721
2251+837528422+839091759+839666104+839450504+838938709+838975343+839478658
2237+838989929+837623739+837634798+839242842+840649464+841287105+841594970
2224+842056969+842206356+841327675+840998983+842565373+843854155+843090872
2210+841710503+841330660+842349162+843728445+844391255+845116547+846021212
2197+845780104+844493967+844056119+844942263+845480652+845276856+845072925
2183+844955560+845540691+847135303+848346203+848642942+848763563+848576186
2170+848579646+849273595+849725893+849605407+849044969+848964577+850382598
2156+851550080+850932181+849909540+849409345+849433565+850865289+853004124
2143+853552418+852882009+852534458+852274286+852421841+853241908+853106157
2129+851995323+851503541+851874158+852869798+853550247+852937368+852158481
2116+852289483+852954600+853934568+854720578+854467055+853825683+853486069
2102+853095642+852964912+853388988+854360001+855807261+856772441+856992993
2089+857170669+857084782+856696051+856748764+857074131+857261441+857539252
2075+857735245+857520256+857324262+857836600+858858495+859613366+859540301
2062+858876541+859122466+860764362+862181501+862390588+862211080+862329463
2048+861804031+860427191+860244426+861997040+863508546+863524421+863606576
2035+864038658+863349729+862434074+862841597+863584935+863659086+863868580
2021+864512734+865022697+865675060+866373419+865908977+864260703+863280802
2008+864641768+867271774+868295093+867480997+866966556+867071981+867002648
1994+866666697+866217180+866301303+867048508+867810367+868397466+868708587
1981+868701531+868941215+869735841+870648782+871848014+873102129+872670183
1967+871187442+871522782+872907696+872969160+872556481+873289779+874728016
1954+875474067+874689685+873272479+872846299+873388216+873476953+872934290
1940+873174448+874213371+874931336+874832220+874550950+874844703+875145376
1927+875080451+874550678+873611821+873625390+874418591+875155077+876498404
1913+878019882+878539004+878181820+878394163+879582676+880443990+880070930
1900+879103919+878717020+878833165+878912539+878446604+877224917+877385430
1886+879384783+881006870+882018927+882487372+882127677+881738064+881701633
1873+881482302+880287548+878760099+879460290+882067366+884485436+885816823
1859+885682633+884827221+884371191+884608772+885625103+886450393+885789211
1846+883773984+882204609+883433556+885469000+885587858+885166088+886461587
1832+887417811+885768859+884617116+885485350+886224821+887518827+889824416
1819+892151646+893363904+892510188+890254395+888420778+888670774+890178073
1805+891217131+891270251+890187299+889425305+889464518+888174921+885628224
1792+885158355+888692483+892404220+893206919+892488004+892367178+892353474
1778+892736642+893187313+891413261+887515842+886011731+887587415+890306632
1765+893149254+894526773+894710351+895042367+895306066+895684079+894844813
1751+890794887+886813277+887682053+890711238+892857264+893196471+891927091
1738+891194472+888879725+882876714+883436948+890167626+894961907+897111325
1724+897904187+897769522+895875595+889769193+883115922+885314525+891941542
1711+897031815+898054456+894364632+890774806+890899634+888165695+880948391
1697+878571840+881423959+886510976+890293200+891392773+890950854+886962460
1684+879825412+881540985+887544539+890216268+888505512+885851286+884819487
1670+883234305+882898830+885212085+886088053+885637518+887048008+888231772
1657+886933492+881188888+871155014+871072587+874093088+873457482+874564518
1643+878273541+879405271+876380699+869368140+863699112+868408524+875494555
1630+878408138+877362296+875442114+874985202+877622060+881911263+883946301
1616+884945672+889742599+894755941+896926118+897483639+898370258+900490911
1603+903592754+906610949+908223266+908430929+909421684+912368374+915826452
1589+918525046+920740542+922577957+923073878+922469208+921201320+917839916
1576+915179585+918594312+921490392+919283309+918417111+921746358+923463084
1562+921483540+913548475+905238314+912347682+919689408+923415459+925731903
1549+926740093+926036985+922943419+917164216+910088904+912386623+921650973
1535+926346003+928069309+932009468+934482896+931698754+927631868+926375514
1522+927101755+930330530+934401080+937578498+940334689+941519064+938107525
1508+927466742+922005105+934315939+944452050+947297995+946222438+945744631
1495+948444039+950616456+947547719+941795043+940830406+943006689+944779791
1481+945401558+944932570+941778828+935456759+929859304+930879570+937078304
1468+940923213+939252009+937922318+940773691+939725881+929883998+924880833
1454+931952956+938209558+940242900+939664824+940587534+943907351+947242772
1441+949136632+947706536+943915425+945351355+951731768+955813444+955595944
1427+955105790+954338437+950787484+946081803+942302428+942904859+947153493
1414+950268836+950745829+949217906+946871544+943018087+939380840+938395105
1400+936825662+933165892+929526067+927866260+928579205+927967954+923854732
1387+919665663+919570957+921545751+923335813+924460148+923114311+920264092
1373+920618224+923460845+924887956+925156947+924457909+922021048+920670733
1360+921948593+922741184+922487118+923726376+926695182+928781169+928929470
1346+928486601+929020581+929314605+926783037+923660570+923393953+923841706
1333+923574615+924598070+927236692+929956995+932296640+932918339+931911912
1319+932537477+935129967+937227962+939134711+942487567+946327457+948586642
1306+949862331+952284946+956198986+960003259+962414680+964341172+966543438
1292+968282619+970169627+972489802+974483049+977011633+979568167+980554512
1279+981279533+983455613+985717851+986024290+985833181+987544141+989757669
1265+989436440+986702704+984656405+985728570+988779057+990048098+989411542
1252+990062141+991926218+993321512+994721215+996191948+996759509+997081755
1238+997793275+998640478+999791272+1000496754+1001038264+1002414019+1003065635
1225+1001673870+998973987+996972734+998249916+1002969911+1007985763+1010515160
1211+1010406750+1009283025+1008900875+1009020276+1008822247+1008804879
1200+1009496454+1011009588+1012422656+1012196676+1010923090+1011219286
1188+1013324471+1014607487+1014927020+1016091042+1017794132+1018448869
1177+1017382810+1016378418+1018131032+1021942292+1024015592+1023202514
1165+1021136608+1018639503+1018341815+1021849825+1025047528+1026055786
1153+1026379254+1024558527+1022235367+1023361737+1025659660+1026520160
1142+1027122999+1026786641+1025161094+1024395301+1025281241+1026912012
1130+1027862198+1028151134+1028779278+1029415223+1030276401+1031319259
1119+1031839059+1032349837+1032724660+1033969482+1038441788+1044364136
1107+1045821911+1041348452+1037875041+1040335173+1045347225+1046349107
1096+1041918048+1039627180+1044026625+1047615094+1044900829+1041745256
1084+1042621495+1045904881+1049260383+1050052499+1048421593+1048403411
1072+1051651859+1056940094+1061690686+1062354921+1059013869+1056085225
1061+1056910515+1060143292+1061646657+1060525578+1058681039+1056713775
1049+1056173758+1057412609+1055674988+1051257294+1051754300+1056089092
1038+1057383573+1057842520+1060322597+1062581375+1063435837+1061777184
1026+1059720301+1061033710+1064203055+1066236668+1066462783+1065639461
1015+1063794447+1059675526+1054734232+1053778144+1058454856+1062438569
1003+1060294850+1056867232+1056588201+1056093027+1053711048+1052894781
991+1054520260+1054743865+1052671922+1053271436+1056781413+1057238325
980+1053521907+1050230922+1051781165+1056965467+1058981576+1056292887
968+1054185531+1054637965+1055800427+1057437371+1060016497+1062301055
957+1062328666+1060391456+1059928167+1062831031+1066633472+1066979192
945+1064267301+1063004909+1061539060+1058255470+1058483349+1063076685
934+1066407221+1065817815+1064467637+1065061723+1066688492+1067488884
922+1065553845+1062158791+1060210116+1059115631+1058374803+1059972468
910+1064993068+1070948726+1073741823+1071408012+1065637222+1061768500
899+1062087694+1063933521+1066861962+1070502940+1072485129+1073381246
887+1073518286+1071931476+1069326842+1064870546+1059212441+1058155744
876+1062539449+1061902690+1052103004+1045208829+1045913701+1046682750
864+1046583499+1048657274+1049470827+1046165935+1042522446+1041043505
853+1038728282+1033902319+1028353912+1025959044+1028312258+1029685299
841+1025494602+1020181470+1018142226+1015918793+1009790004+1003184765
829+1000860723+1003397379+1006631310+1005915041+1001622514+996541738+992759039
816+992554836+994457040+992538894+987784978+986333240+987120878+985040658
802+978673543+973146845+972036418+970737052+968024754+966374445+963338408
789+958594465+956023684+956359227+956052856+953297207+950315444+948230543
775+946271080+943594738+940152603+938346598+938967686+937603599+931442992
762+925184355+923044977+922447770+920815032+919022120+917407427+915395320
748+911662824+906129343+902621130+903399270+905461241+906012859+904322388
735+899643776+895097454+896412016+902557427+905013013+900439894+895201252
721+894375351+898357639+904489481+907755025+906520177+902465230+896383998
708+890039134+886792178+887004861+886734242+884041075+881630332+881835281
694+882475839+881012365+878737373+876804979+875195035+873894381+874389691
681+877202190+877765884+874367642+871393341+871611722+869119705+860370136
667+861272359+872661296+874743823+869090737+866225050+865626757+860304127
654+854896355+854761080+855039433+854265431+857541897+865755452+868486542
640+860692654+854676889+850390739+836622740+823970868+823083231+823415043
627+820745282+819460366+814712827+806374784+805225280+806706325+793969922
613+779196718+778405009+782839256+791980474+811801551+831148416+837004890
600+831054049
##END=
