##TITLE=Sample description
##JCAMP-DX=4.24
##DATA TYPE=INFRARED SPECTRUM
##DATE=25/8/2023
##SAMPLING PROCEDURE=Instrument type and / or accessory
##ORIGIN=Default
##XUNITS=1/CM
##YUNITS=ABSORBANCE
##RESOLUTION=4
##FIRSTX=4397.6552
##LASTX=599.8556
##DELTAX=-1.9287962
##MAXY=1.9516903
##MINY=0.57298565
##XFACTOR=1
##YFACTOR=1.8176533e-009
##NPOINTS=1970
##FIRSTY=0.62275481
##XYDATA=(X++(Y..Y))
4398+342614749+341923328+341644398+341608228+341339628+341494407+342515717
4384+343449865+343505185+343251899+343425828+343718465+343830286+344051665
4371+344270749+343958667+343352341+343450160+344472453+345542131+345764265
4357+344977451+343888557+343221665+343232158+344125447+345350822+345647919
4344+344855662+344015660+343917841+344228907+344101739+343668555+343940008
4330+345029197+345840736+346006664+346029946+345979807+345899467+345812207
4317+345442902+344987060+345238050+346248506+346919137+346985868+347178489
4303+347766091+348591107+348935293+348080567+346655193+346077134+346699823
4290+347345368+347211806+347110675+348085682+349779886+350730594+350352009
4276+349778148+350000675+350500656+350417233+349814186+349290726+348885973
4263+348425343+348258398+348363235+348554675+349146441+349865899+349902331
4249+349272067+349029078+349763260+350686160+351055071+351225000+351756953
4236+352259984+351926915+351054252+350579225+350857368+351445330+351552626
4222+351406209+351543018+351309112+350865008+351254874+351943212+352118584
4209+352144851+352133144+351923111+352150229+352864276+353062472+352993281
4195+353367504+353349632+352513106+352049491+352363082+352491004+352460081
4182+353097855+353924576+353873748+353405084+353697884+354410063+354364383
4168+353657255+353413577+353847023+354395470+355049082+355624649+355706072
4155+355315846+354456365+353496541+353309987+353909885+354262531+353981929
4141+353764419+354178321+354811274+354914208+354658233+354588878+354903780
4128+355454261+355718369+355677280+355908235+356315611+356159521+355639372
4114+355647341+356218087+356932856+357565252+357872678+357860118+357911897
4101+358023324+357897173+357825293+358021291+358169282+357992598+357518326
4087+357388240+358000534+358654867+358995610+359391082+359387246+358646407
4074+358236276+358562787+358632765+358307665+358338555+358799021+359437188
4060+359891719+359793704+359682178+359972355+360086209+359991407+360144677
4047+360235020+360206359+360318344+360158024+359997998+360515589+361085450
4033+361018488+360821178+360981138+361262330+361811302+362808116+363205196
4020+362572013+362173524+362516070+362975684+363161386+362782670+362396838
4006+362938006+363608079+363345349+362551846+362098528+362512102+363346267
3993+363741117+363677500+363409851+363224609+363426969+363619130+363441332
3979+363463237+364123276+364835290+365025353+364931929+364811942+364850342
3966+365089167+364991840+364404435+363939804+364149706+365104153+366002033
3952+365821906+364906285+364777740+365398855+365250143+364728028+365201512
3939+366230987+366794880+366057681+364101469+363042022+363903733+364775346
3925+364614993+364644998+365305201+365712085+365876111+366466992+367567265
3912+368780703+369296096+367957196+364772330+362453503+363198113+365097857
3898+366725426+367836291+367711550+366279552+365834957+367381399+368634221
3885+368368113+367657377+367250821+367924830+368736663+368211006+366987107
3871+366034989+366099721+366784780+366663712+366953364+368262490+369040548
3858+369051500+367411273+363411819+363922260+368335715+370991710+370896613
3844+369331676+367769625+366069322+364806761+366223576+368929710+370785251
3831+371750486+371888967+371393052+371012795+369989452+368464030+369200409
3817+370825355+372489587+374566933+375608573+374888623+372853021+371142488
3804+370013817+368832548+369241137+371128912+373750705+376465595+377883164
3790+377898215+377393283+377020240+377234044+377416139+376655723+376605354
3777+378251780+379286927+378624626+377455325+377497889+378177571+378074670
3763+377650242+377094940+376224474+375945217+375767123+374037832+371271230
3750+371190004+372825968+373345231+374018288+375915606+377061886+376304717
3736+374024224+373061973+374941025+377251982+378221152+378093787+378369634
3723+379337165+380003861+380555063+381055897+380540798+378392228+376510225
3709+377625746+379997958+381733971+382387944+382806732+383904578+384602853
3696+384060504+382320687+379462890+377376264+379122213+382209916+383730124
3682+383542488+382350725+380278921+377119731+376024967+376956787+376623095
3669+377017617+379230853+380622221+380310172+379180845+377848404+375942495
3655+374408744+373557232+370923142+366279487+365333566+367405829+368705609
3642+368608610+367832684+366722114+365216925+363829262+362482196+359377408
3628+355754538+355660261+356444746+355431143+352145080+349022651+348603207
3615+348667545+347698014+346444865+345046085+344391752+344917475+344884748
3601+343573589+341710310+339706222+338080587+337677375+337759028+336424193
3588+333705598+332651857+333189057+333219291+332666416+332205819+331658879
3574+330766705+329794157+328313234+325304330+322727069+323277943+324587331
3561+324797627+324302237+324059379+323879285+322670404+321134292+320436640
3547+319995521+319734070+320286157+320926685+320677760+319957023+319704098
3534+319842743+319553582+318482396+317248724+316446499+315960586+315961799
3520+316407312+316662074+316820821+316992454+316800293+316432825+316073751
3507+315602529+315233749+315339766+315674442+315682771+315468344+315390462
3493+315448832+315403776+315383576+315719662+316354091+317096602+317785859
3480+318187267+318200908+318170904+318295153+318498529+319036811+319523708
3466+319048485+317869052+317137035+317261546+317795565+318416844+318815039
3453+318907873+318932074+318710891+318275215+318162542+318458785+319145911
3439+320186305+321052803+321458442+321474969+321568787+322423972+323398553
3426+323525425+323423901+324030325+325212840+326443560+327732093+329305359
3412+330898169+332129872+333460214+335293981+336999071+338269076+339330293
3399+339909041+340114090+340912413+342589728+344528495+346435683+348293519
3385+349968866+351466415+353127531+355328438+357793911+359855976+361499483
3372+363138136+364787644+366744413+369428904+372302836+374952994+377637912
3358+380516368+383563147+386598546+389685102+393055341+396338354+399116467
3345+401900777+404981397+407869659+410590058+413127706+414977901+416328378
3331+417985329+420296909+422643347+424497477+426034016+427009876+427167540
3318+427258571+428021839+429045576+429202551+428186784+427258899+427736253
3304+429399206+430709741+430562013+429948899+430031142+430071673+429698105
3291+429556542+429279613+428195933+426723109+425516458+424180148+421994719
3277+419667957+418445271+418186968+418168735+418085476+417568804+416465481
3264+414998429+413546330+412341253+411343620+410965199+411237373+411507187
3250+411596742+411341849+410828817+410604486+410519555+410073025+409371700
3237+408699463+408084217+407783612+407772824+407384565+406771189+406872484
3223+407483106+407600928+407322556+407146823+407091863+407239034+407420669
3210+407437689+407043331+406131088+405857340+406975550+408410892+409098378
3196+408972194+408371509+407797155+407878381+408962455+410615963+411819039
3183+411913874+411351785+410966806+410991957+411422255+412280686+413070025
3169+413035101+412568142+412867960+413770923+414300089+414532126+415008168
3156+415911098+417025111+417793856+418137353+418620709+419435494+420165773
3142+420376102+420258116+420598990+421645418+422651676+422882598+422912045
3129+423567592+424206087+424350536+424543222+424887670+425100032+425222248
3115+425606669+426239688+426820436+427279230+427601478+427965240+428346481
3102+428193834+427578392+427530352+428275290+428946445+429231080+429245279
3088+429282990+429507288+429228064+428748545+429189795+430006121+430292265
3075+430504037+431089933+431530035+431297146+430871701+430998443+431508524
3061+431796865+431582798+431153910+431144335+431509540+431665139+431540070
3047+431320986+430967225+430926235+431739413+432557477+432525078+432498287
3034+433180297+433855224+434093360+434466534+435157890+435728898+436037242
3020+436504169+437390867+438247626+438854181+439462409+440072866+440724051
3007+441414948+441877841+442358212+443756860+446306872+449213759+452367308
2993+456182471+459514639+461066754+461748731+462763941+463980331+465121791
2980+465891454+465987961+465758744+465473191+465182391+465195540+465383177
2966+465151599+464521565+464014796+463898318+464133241+464063295+463262086
2953+462618410+462604441+462946101+463790039+464782754+465601408+466771364
2939+467985262+468314822+467882065+467450947+467495053+467745978+467381986
2926+466350543+465485849+465038401+464514908+463606206+462553908+462051369
2912+462432020+462971220+463077467+463120326+463204175+463061595+462941576
2899+463188829+463688088+464158818+464728909+465522248+466033509+466095913
2885+466168055+466579498+467347587+467811857+467459211+466901057+466654919
2872+466553756+466452920+466532146+466982611+467560407+467979392+468193295
2858+468229235+468191885+467907413+467165918+466358872+466116178+466554969
2845+467126634+467289446+467127814+467049507+467124076+467446356+468311051
2831+469167088+469321769+469225917+469517603+470227453+471000691+471584029
2818+472279353+473341193+474328235+474744563+474692293+474638875+475028805
2804+475661037+475974004+476249458+476865588+477439876+477703951+477783242
2791+478114278+478998451+479943323+480572570+481084618+481480419+481772269
2777+482164429+482573937+482863753+483169211+483537467+483875225+484296243
2764+484867087+485398483+485900268+486625891+487440446+487859464+487956102
2750+488221882+488763181+489441256+490043450+490377831+490559892+490863317
2737+491371168+491755525+491728733+491662231+491963066+492315023+492530434
2723+493117085+494114259+494947506+495380231+495551733+495892246+496664926
2710+497512635+498116993+498464622+498690658+499083671+499643169+500119901
2696+500446969+500541509+500546067+501182135+502450434+503152906+503086765
2683+503246003+503632064+503680203+503721816+504297744+504980442+505004840
2669+504772245+505105839+505779028+506258907+506683401+507157804+507257164
2656+507009125+507006764+507468575+508149207+508743105+509264860+509653872
2642+509623212+509495716+509686500+510088531+510659933+511287935+511690031
2629+512073568+512942361+514004366+514537631+514789769+515091423+515043252
2615+514779407+514912280+515606522+516443212+516948833+517358668+517971454
2602+518497570+518760891+518914358+519059561+519344065+519991971+520861486
2588+521683256+522548672+523335387+523677572+523686230+523665964+523807790
2575+524147581+524442841+524647005+524981779+525604632+526334420+526732713
2561+526852306+527011610+527302213+527648498+527796751+527786487+527872369
2548+528179205+528732309+529207433+529455604+529756471+530108790+530443236
2534+530762729+531026083+531435164+531877365+532037194+532120289+532460343
2521+533091951+533624921+533868632+534202685+534785630+535453408+535848126
2507+535732665+535570574+535852324+536485965+537201685+537896812+538592496
2494+539267751+539970813+540539133+540544740+540432099+540835147+541346212
2480+541799595+542411266+542798868+542702263+542661437+543217328+543914521
2467+544086548+544119242+544499466+544653130+544312682+544295794+545111530
2453+546426034+547374348+547526340+547353165+547106240+546915259+547201698
2440+547941553+548541484+548706035+548758797+548865700+548882555+548863929
2426+549217133+550129015+551157867+551905854+552077160+551689295+551605807
2413+552100836+552527133+552895388+553439278+553958180+554484558+555006608
2399+555280160+555335316+555427200+555827394+556752721+557884311+558398360
2386+558262141+558104018+557993115+557622040+556832078+556025262+555465501
2372+554418122+552910473+552035055+551660569+550950162+550385351+551045324
2359+552849348+554328534+554740665+555650645+557666243+559287091+559665577
2345+559187272+558916934+559156841+559228852+559204127+559685908+560828647
2332+562249134+563278544+563605743+563908676+564988323+566460426+567562174
2318+568403094+569300679+570169735+570875749+571318770+571678827+572382742
2305+573176048+573622545+574192931+575334292+576498739+576896048+576676538
2291+576715823+577205934+577527886+577575041+577974187+578904564+579671899
2278+579840581+579874357+580123380+580517410+581086680+581762788+582296774
2264+582387608+582119106+582095758+582614857+583543398+584444656+584904860
2251+585188839+585487444+585649699+585875112+586337153+586848972+587138263
2237+587159709+587154463+587372661+587882578+588435256+588892640+589525724
2224+590264071+590614028+590521882+590522472+590908566+591416188+591851142
2210+592254944+592680651+593168072+593757543+594347342+594766293+595060569
2197+595091656+594721368+594523238+595084311+596104801+596866233+597329257
2183+597801660+598055864+597995068+598074359+598561125+599229296+599780335
2170+600173315+600547407+600857227+600983083+601211381+601749237+602336019
2156+602658824+602743952+603020193+603723386+604554076+604885931+604621955
2143+604712199+605514556+606156494+606318618+606401188+606362297+606275463
2129+606541801+607050013+607532450+607834071+607916183+608173076+608884533
2116+609754638+610336632+610565718+610762995+611291341+612037033+612354395
2102+612030475+611697832+612062611+613108613+614198622+614673845+614335562
2089+613861585+614066470+614757334+615266267+615573070+615985791+616363687
2075+616687869+617222315+617771648+618191715+618709436+619133241+619285331
2062+619494282+619847715+620282538+620817508+621324212+621701124+621886071
2048+621962149+622152540+622449964+622758669+623105871+623498393+623883175
2035+624161711+624308226+624509701+624997057+625804726+626621773+627174058
2021+627519424+627545330+627270663+627254792+627724047+628506007+629509117
2008+630373254+630782302+630932752+631090482+631524781+632281491+632879422
1994+632990062+632944219+633408030+634330209+635008415+635297969+635548107
1981+635829005+636002671+636252809+636826081+637430964+637739996+638002398
1967+638473949+639053975+639767531+640654098+641306529+641469178+641568079
1954+641701543+641592673+641521317+641691246+641903739+642085407+642571451
1940+643578365+644677162+645605113+646165202+646315783+646479022+646833898
1927+647207859+647337060+647529025+648197393+648675108+648722919+649100618
1913+649894121+650580460+651046304+651581405+652143790+652524506+652852295
1900+653440258+653980212+653979687+654055306+654495638+654869533+655558167
1886+656270477+656223388+656116682+656960882+658360579+659153689+659086137
1873+658716898+658286469+657946809+658580548+660302199+661768989+662446342
1859+662992658+663638269+664031708+664106737+664172911+664123789+663502510
1846+662449884+662280611+664008229+665904989+666698033+667196604+667966431
1832+667789419+666517349+666288788+667246120+668457919+669995343+671305059
1819+672170836+672686458+672740172+672419137+672271639+673352531+675311662
1805+676283816+675433780+673782698+673040679+673667926+674461494+673961808
1792+672985588+674249526+676569042+678040095+678786902+679278389+679698587
1778+680352396+680679727+679462025+677232032+677435015+679779715+681768752
1765+682889848+683254233+683632916+684295907+684585920+684664162+683953033
1751+681625385+679879337+680794105+682219053+683264596+684812776+686656544
1738+687484085+686180796+683213571+682775731+684809824+687145211+689122771
1724+690319157+690929615+690485741+687668376+684926302+686805354+690042327
1711+691954171+692272648+690932763+689234658+688972911+688510936+686931210
1697+686847853+688413675+690524370+691830807+691752696+690740142+688337925
1684+685771616+687402039+690544177+692796009+692955379+691455010+690292793
1670+689488665+690930664+694276638+695642363+694785899+695085487+696406484
1657+696337489+692980432+686658183+686340690+687771212+687508154+689721948
1643+693743242+696140015+696449835+694745630+693104845+696068135+700510742
1630+703687967+706359735+708855213+710786405+714544575+719810525+723076092
1616+724903070+728984505+733345590+735676648+736983413+738583011+740526533
1603+743194366+746429436+748943671+750131991+750700016+751435017+752961817
1589+755627814+758364510+760100982+761362428+762606757+762692279+760270911
1576+758237474+760450546+762408627+762441157+763863547+766550989+768253292
1562+768485526+765472064+761153608+765278984+771149883+775009380+777053836
1549+778907179+780945207+781476177+779107276+774827778+778426578+787924675
1535+793387509+795274563+798073892+801156283+803326201+806189147+807685909
1522+807232197+810224738+814888166+819512769+825440004+829345542+828998995
1508+826458198+828276782+835542853+840694031+842970654+843312479+844018624
1495+847200965+850259417+850413868+849132484+850747429+854615846+858092266
1481+859863367+860613715+860938160+859574862+856305819+856249154+860871461
1468+864496954+865297409+865682323+866196896+864372869+860466020+861690739
1454+868109724+873939043+878322033+880269686+882092336+886976980+892527697
1441+895278297+895029208+892896673+892452472+895798314+900297782+904263526
1427+906841508+907923188+908606903+907717779+903962298+901335848+900095323
1414+896881896+893325462+891550820+891054086+889902821+887471091+885782561
1400+884532723+881457350+876237834+872022870+872005162+873331995+872369744
1387+870002812+870075217+873125799+876343490+876883903+873618795+868531496
1373+866910190+869916634+872720030+873577871+873723533+872618374+871306231
1360+872201718+873713499+874066801+873272773+871963188+870799463+870172675
1346+870087940+869782777+868777371+867954552+868075883+868980158+871112627
1333+874133565+876615467+878745576+880680506+881073092+880389115+880800590
1319+883277049+887101459+890547382+892667850+894429441+896720165+899205149
1306+901430420+903225000+905028434+907674427+911422825+915150499+917607544
1292+919327620+921798767+925591565+927673797+925369694+923157474+924564058
1279+926124305+925892728+925957459+927086556+928877332+930571044+931034265
1265+930605738+930333760+930459354+931211407+932829238+934308292+934757806
1252+935259787+936586490+938429995+940443233+941790201+941969245+940902191
1238+940260253+942599181+945811166+946591421+946422542+946819392+947093009
1225+947284384+947495237+948022861+950004422+953088518+955491259+956144937
1211+954611317+951516990+949680895+951406218+954795870+956670791+957552373
1198+958799784+960306187+962353463+963776049+963695315+963521124+963143293
1184+962975332+964812345+967374259+968499225+968344249+967333728+966467755
1171+967943924+970942694+973015154+975109126+978105667+980209673+980906964
1157+981757656+982529319+981631734+980405442+981537752+984263168+985749896
1144+986226037+986983469+987884858+990157415+993777399+996113639+996473171
1130+996785352+998462011+999906568+999536936+999347529+1000804547+1002511965
1117+1003838274+1005038858+1005261582+1003464116+1000179267+998085230+998923855
1103+1000776805+1000212912+998266898+1000445473+1007093807+1012475841
1092+1014056092+1014849988+1016835615+1018800976+1021441132+1024920438
1080+1026836545+1027748362+1029438270+1031595792+1032417037+1031542341
1069+1031422453+1032837694+1034491858+1037288302+1042425117+1046181647
1057+1045474256+1043735882+1042970449+1041941434+1041685459+1042798750
1045+1043418848+1043728602+1044802215+1045896028+1048575863+1054604164
1034+1060180917+1061652364+1060532449+1057645040+1053199744+1050838583
1022+1052362956+1055249315+1057969091+1058865102+1055139855+1050162410
1011+1049153922+1050484100+1050017272+1046907533+1043903450+1043713125
999+1046059464+1049580154+1051916393+1049769430+1044659439+1042197212
988+1042726542+1042466238+1041306776+1041570883+1043268464+1044030355
976+1044355194+1046322260+1048264142+1048555860+1047021846+1045576961
964+1048461550+1052706420+1051401164+1048151402+1048399179+1048398852
953+1046155545+1046331901+1050629369+1055835048+1058815193+1060126351
941+1060931660+1058218114+1053302974+1053146949+1056632289+1058635885
930+1059696644+1059690282+1058039725+1058821554+1063006284+1064613883
918+1062712729+1062521223+1063377884+1061229543+1057216710+1054998390
907+1054565010+1055432623+1059736913+1067367500+1073741823+1073677944
895+1069640385+1067438462+1066072213+1064191455+1063600411+1064308261
883+1065867065+1066998655+1063982439+1058395651+1056646652+1057806770
872+1055772284+1049457642+1044190184+1044444978+1047134979+1047380395
860+1044841304+1040880085+1035580949+1030985860+1032081050+1034692152
849+1029786587+1021168368+1014715934+1010397413+1007668980+1003561115+996749739
835+992716378+996533443+1001711773+996642968+984910025+978139836+979444633
822+984224015+984703632+976471899+965594239+962101948+965111933+965629458
808+964093805+966121864+968127297+964584833+958996930+957205827+957647274
795+955002920+949660761+945859633+944714730+943610161+940652577+936013743
781+929870670+924371699+921533151+920268885+919326506+916831421+911553338
768+906268303+903183945+901180938+899832593+898444898+895765259+894304044
754+895222091+894935488+891351182+885980953+881734181+880873389+882278923
741+880996818+877603165+878625163+882648228+883877865+882412452+881532706
727+883429270+884747118+881380223+877357683+876884494+878119181+879189056
714+878691993+874967927+871151059+871570142+873429978+872266712+871017268
700+871350304+869137953+864991918+863040264+864195726+866338558+865403787
687+860853819+856181275+853983549+855036175+856572878+855612856+853292488
673+851112470+849641680+849961665+852361062+855068246+855270442+849996621
660+844406161+848242769+857736144+863272367+866319473+867035193+861479886
646+856028988+856954315+861776195+863228819+856859415+850397603+851447868
633+852974995+847248907+843185705+843410658+840093673+840246747+842604760
619+839459343+839309614+839548865+834065700+830221550+836457031+856994715
606+882830355+893820492+873743077+847857265
##END=
