##TITLE=Sample description
##JCAMP-DX=4.24
##DATA TYPE=INFRARED SPECTRUM
##DATE=25/8/2023
##SAMPLING PROCEDURE=Instrument type and / or accessory
##ORIGIN=Default
##XUNITS=1/CM
##YUNITS=ABSORBANCE
##RESOLUTION=4
##FIRSTX=4397.6552
##LASTX=599.8556
##DELTAX=-1.9287962
##MAXY=1.8117836
##MINY=0.65126747
##XFACTOR=1
##YFACTOR=1.6873549e-009
##NPOINTS=1970
##FIRSTY=0.73198593
##XYDATA=(X++(Y..Y))
4398+433806733+432983888+432633295+433338403+433822240+433977632+434004231
4384+433872683+434307667+435104972+435418581+435686763+435613500+433796347
4371+431275852+430256004+430441704+430761460+431650890+433221091+434189154
4357+434205050+434599340+435521940+435522576+434708986+434347195+434518412
4344+435276542+436300841+436201721+435320662+434803549+434397249+434149626
4330+434400888+434753566+434672320+433938422+433085976+433076085+434043441
4317+435128074+435638157+435762675+435932550+436050215+435945443+435660446
4303+435067740+434628729+435060604+435779277+435894717+435555993+435522823
4290+436222103+436762247+436245382+435367149+434927220+434940466+434861093
4276+434509369+435315611+437318252+437903893+436418612+434951558+434937640
4263+436049473+437027285+436839113+435875112+435837986+437263676+438766760
4249+439394226+439146108+437972811+436483114+436028985+436870799+437794565
4236+437967654+438005733+438409419+438221212+437162153+436926152+438191115
4222+439265787+439034095+438671526+439328169+440229928+440401569+440240384
4209+440068426+439517119+438830344+438654217+438676683+438139188+437348207
4195+437150002+437820210+438951400+439459929+439019859+438907845+439575828
4182+439783888+438934798+437889799+437679231+438134914+438310370+438276635
4168+438359012+438060698+437641398+438204327+439543365+440350525+440560387
4155+440887490+441148078+440912818+440371932+439852912+439492357+439608115
4141+439879794+439695048+439676255+439979620+440164932+440738104+441261186
4128+440728672+439979479+440003959+440587128+441389802+441931076+441712737
4114+440944857+440519482+441113213+442080639+442351188+442298343+442744454
4101+442869361+442093427+441601536+441569037+441121373+440675580+440945669
4087+441535409+442119602+443111650+444099247+444021039+443198795+442842514
4074+443103207+443319180+443121647+442551866+442314698+442949123+443881296
4060+444457153+444387211+444023229+444209424+444521161+444116203+443308406
4047+442383404+441964776+442794579+443798884+443943855+443620426+443283044
4033+443175940+443241008+443008008+442171670+441682711+442816763+444602159
4020+445601343+446076137+446058051+445274239+444493820+444456305+444991398
4006+445292043+444977162+444763061+444777297+444634022+444963597+445794178
3993+446269961+446180061+445922087+446068330+446436656+446523978+446239971
3979+445575132+444997509+445107721+445884785+446696643+447274090+447659902
3966+447262927+446454213+446418959+446935294+447251659+447265011+446985843
3952+446497450+446285892+446989976+448127843+448159246+447349684+447502391
3939+448021199+447615570+446595015+445799123+445975392+446781351+447294507
3925+447575230+447988524+447843306+446983795+447056563+448395425+449283407
3912+449383481+449372566+448843125+446942147+444834169+444624661+446041554
3898+448060868+449338124+448696176+446816887+446589646+447811902+447572792
3885+446490208+446717838+447167022+447961042+449053234+448673109+447289279
3871+446772308+447484481+448241976+447793392+447246007+448278537+449587938
3858+449198311+445778812+440696633+442246098+447849311+451724034+452878221
3844+451831561+449844180+447422487+445594490+446444958+448717017+450780981
3831+452024785+452051914+451457406+450662362+448575225+446354775+447689292
3817+449598677+450699700+453256155+455628077+455568591+454025837+453673865
3804+452991400+450506123+450132003+452061028+454243505+456491191+458013492
3790+458552965+458663353+458287891+457665795+457553110+457338232+457262426
3777+458444201+459513079+458961632+457101171+455675164+455286561+455486532
3763+456088140+455937659+455224390+455682335+456364341+455158935+452661188
3750+454126052+458616831+462116516+466073969+472306978+478380534+481462827
3736+480804170+481003611+485670305+491390300+494313492+493285061+489877077
3723+486387460+482941397+479076917+475448369+473312697+473838252+477954558
3709+483777558+489035511+493268599+496703747+501544343+509221587+517704613
3696+525052882+529920289+529949643+524125407+519315684+518090920+515697451
3682+511171700+505596465+499191320+490716100+484680978+484239530+482959094
3669+480546515+480491126+480903537+480468554+479609149+478259654+475615206
3655+473078921+471198007+466763782+460837564+462072220+467665965+472072990
3642+474479106+475464689+476078696+476466698+475886744+474086370+469752042
3628+464622493+463630693+462850414+458836760+451664442+444870200+441288386
3615+438487910+436775105+437588306+438526696+438639451+439389316+440120034
3601+439655096+438286738+436791107+435438504+433869080+431460528+427524022
3588+422727652+420308608+419711380+418257290+415697091+413210436+411552419
3574+410446344+409157749+407001624+403183419+399844106+400928810+403578839
3561+403852638+402236551+400926584+399986181+398703202+397288322+396108490
3547+395098921+394084160+393373117+393148348+392863811+392271175+391735235
3534+391453735+390960043+389805221+388660113+388588016+389080896+389155395
3520+389452331+390136245+389996360+388990536+387981391+387097577+386526913
3507+386554077+386503493+386250147+386623030+387170840+387139154+387003049
3493+386968467+386455982+385969460+386429065+387162609+387221000+386997857
3480+387118171+387225380+387193023+387453540+387733874+387578624+387260599
3466+387350429+388036215+388962665+389475150+389344132+389176907+389393834
3453+389703734+389728885+389328166+388994598+389289980+389678477+389732064
3439+389740083+389824790+390118300+390603267+391238504+392077033+392688991
3426+393005038+393404273+393958017+394681141+395524509+396377979+397257272
3412+398135328+398936484+399871165+401249731+403123474+405346044+407150586
3399+407650496+407476170+407994555+409234685+410619786+412285504+414345053
3385+416492311+418551083+420589896+422651175+424793488+427262340+430241097
3372+433830718+437574671+440543961+443276367+446807809+450549042+454190837
3358+458123774+461731305+464999792+469342527+474939734+480224604+483954109
3345+486400318+489167447+493326673+497944690+502033726+506027457+509769855
3331+512370607+514203833+516385992+519383578+522548212+524747468+525603552
3318+525597971+525877775+527408519+529326946+529780334+529110232+528894436
3304+529001362+529393038+529932052+529024888+526957356+525372284+523489675
3291+520322568+518098691+517953932+517132889+514399106+511449138+509181917
3277+506957793+504470538+502594817+501648585+500670137+498768135+496637726
3264+495658607+495449911+494810470+493797192+493262064+493329604+493274075
3250+492844955+491927229+489892620+487662596+487162651+487779944+487854478
3237+487394697+486756387+485753565+484527917+483826836+483835384+483682889
3223+483067328+482541031+482154089+482176308+482778092+482710482+482113289
3210+482220675+482232756+481483245+480844404+480780185+480784777+480755564
3196+481077262+481512811+481748954+481703986+481527895+481686642+482332123
3183+483025221+483496765+483900275+483742587+483086933+482942704+483082588
3169+482988343+483045639+483517925+484170259+484728206+485269163+485870665
3156+486488346+487271097+487958614+488200409+488602470+489256182+489591869
3142+489961714+490442302+490671980+490895760+491330319+491926452+492418131
3129+492450382+492404708+492891089+493491849+493815632+493946226+494084202
3115+495156436+497046110+498360386+498618395+498163595+497502253+496849248
3102+496657861+497497449+498593774+499366175+500205128+500642019+500304884
3088+500137376+500854812+501908466+502191025+501705386+501537207+501756607
3075+501715560+501491992+501704115+502567123+503130228+502835093+502726718
3061+503103593+503181589+503277353+503909871+504443903+504357112+504222349
3047+505001321+506383985+507164052+506998628+506293555+505861821+506208211
3034+506672090+506622247+506445979+506655205+507050413+507376845+507968492
3020+508927724+509769219+510468287+511411658+512315325+512742360+512855328
3007+512928343+513123086+513629954+514362227+514972278+515765379+517177151
2993+518644416+519884935+521431045+523036005+523674986+523514049+524043348
2980+525497827+526564162+526998968+527553525+528038422+528121328+528389369
2966+529041420+529355135+528978931+528532609+528378559+527972860+527470760
2953+527760243+528668042+529541718+530308927+531021100+531885521+533082309
2939+534113143+534408454+534229854+534352924+535021295+535655649+535664021
2926+535145072+534758377+534560808+533726660+532408250+531763617+531846594
2912+532035756+532369641+532842775+533335160+534143062+535297496+536201198
2899+536416429+536413850+536742649+537071412+537200982+537677118+538667647
2885+539571455+540144097+540554813+540585686+540242687+540065147+540361730
2872+540787777+541095240+541749446+542805395+543551868+543482774+543141223
2858+543538163+544455570+544991405+544809979+544143056+543455398+543017624
2845+543049910+543682109+544889141+546286147+547177555+547395365+547356579
2831+547709857+548583569+549424146+550019891+550495780+550822424+551005580
2818+551382278+552129847+552773067+553045806+553487537+554491701+555624693
2804+556381516+556770224+556897816+556823564+556976448+557633657+558473775
2791+559224204+559581545+559697409+560194916+560813833+561146412+561554902
2777+562447441+563590501+564491376+564947519+564900997+565033816+565955216
2764+566867713+566980680+566447707+565948080+566305103+567399909+568191562
2750+568495599+569002644+569695141+570020549+570122389+570501843+570982889
2737+571413316+571976809+572534333+573127039+573875173+574471659+574670500
2723+574956732+575978276+577119428+577478570+577365532+577250976+577225083
2710+577736897+579201160+581113936+582437008+582869413+582980084+583096866
2696+583321317+583799714+584465400+585207705+585539436+585204032+584818467
2683+584839909+585390191+586138218+586347515+586233135+586628767+587472947
2669+588109456+588434439+588959818+589877720+590656480+590990895+591174864
2656+591600663+592433858+593118089+593268571+593365784+593665687+594179090
2642+594743290+595117092+595613540+596311831+596896307+597347681+597709190
2629+597827879+597610988+597591842+598408611+599696253+600443291+600350247
2615+600195668+600575757+601597972+602935986+603438934+603003032+602787412
2602+603004727+603449460+604118644+604774758+605460403+606095534+606282329
2588+606290312+606668282+607571878+608881350+609846834+609879474+609570033
2575+609667104+610246281+610738702+610863679+611299723+611935772+611957461
2561+611928778+612533601+613176715+613465809+613606188+613650767+614009097
2548+615191684+616510623+616951895+616821195+616647894+616330752+616334496
2534+617104072+617947122+618186055+618102478+618297751+619058566+620256484
2521+621181415+621369199+621484145+622243688+623565099+624700281+624950095
2507+624712645+624794809+625172779+625569683+626137910+626744146+627047935
2494+627256419+627572784+628004023+628648974+629328331+629715485+629895286
2480+630232775+630702305+630983769+631238952+631725368+632072959+632136613
2467+632431289+633059143+633614582+633902758+633963304+633881634+633732142
2453+633755032+634262713+635113605+635853013+636189089+636250906+636436359
2440+636783597+637298201+638217552+639227827+639750344+639721873+639581635
2426+639776696+640256471+640994608+642037734+642592609+642261125+642105628
2413+642558556+642933347+643029429+642969872+643078954+643962203+645293223
2399+646254044+646780023+647126978+648412712+652678122+661381961+675833347
2386+697145703+724681708+756530528+791354643+828358763+864483803+895862668
2372+923171184+947605997+966756081+979616248+988766586+994628726+995680331
2359+994901995+991048961+978811207+958793134+937848504+927264211+933785078
2345+952068940+964433861+960624064+947870576+937331074+934847634+939123429
2332+944454291+945750693+943282796+938231490+930183129+919911951+909568358
2318+899275208+887262470+876955544+872414392+868685417+858262909+840359702
2305+820654814+805413788+794802437+785173101+774944807+764076294+752278258
2291+739910158+728417465+718561913+709893398+702627188+698031637+696442114
2278+695969051+694778551+693078039+691559800+690735543+690788529+691003513
2264+690607880+689510707+688432892+687686702+686633896+685513691+684948856
2251+684667533+684320083+683860443+683517232+683182287+682661183+682584247
2237+682891780+682899834+682898492+683052647+683309737+683958080+684451913
2224+684472613+684832285+685486562+685800595+685789080+685437673+685083512
2210+685527821+686603729+687216040+687122148+687384325+688219392+688595243
2197+688675711+689332673+690145485+690510597+690699582+690844765+690795453
2183+691148978+692172111+692800107+692868212+693370736+694435199+695165140
2170+694850259+694225302+694275462+694761878+695140130+695411916+696161639
2156+697360616+698163679+698533101+698749498+698653062+698575843+698945336
2143+699552278+700397447+701397973+701616560+700970196+700667678+701098140
2129+701690458+702092096+702316122+702740226+703598819+704378214+704688715
2116+704779569+704960500+705307385+705624738+705992606+706798636+707628545
2102+707641191+707050215+706709689+706918032+707492758+708157138+708606322
2089+708817137+709351665+710431176+711327636+711808400+712215336+712336993
2075+712273833+712661906+713476413+714107588+714334724+714656104+715465101
2062+716086950+715901851+715849712+716879557+718040243+718056351+717613808
2048+717777431+718051900+718265047+718957121+719678726+719901128+719925714
2035+720260800+721140729+722107202+722463553+722355885+722511100+723141568
2021+723783623+723840636+723717213+724489402+725668952+726225521+726369927
2008+726360036+726181578+726123575+726502605+727510478+728932282+729981202
1994+730136134+729989750+730181067+730356982+730636256+731700295+733208431
1981+733937807+733576580+733219240+733510524+734134351+734557960+734278404
1967+733865957+734648179+736499950+738036062+738436004+738174463+738028503
1954+738229074+739091835+740372977+740718166+739826298+738810936+738758374
1940+739875894+741136971+742194228+743354843+744288606+745133493+746224661
1927+746673845+745791585+744757642+745006043+745935637+746748662+747630286
1913+748170960+747921358+747514493+747920934+749442493+751287906+752247243
1900+752178997+751700918+751288754+751420725+751951932+752399915+753176343
1886+754440247+755415975+755582353+755113458+754834325+755125397+755252706
1873+754858981+754215796+753621076+754263060+756276970+758079004+759128701
1859+760059214+761068076+761590099+761588898+761690844+761645558+760914981
1846+759938970+760297724+762579038+764543494+765335677+765838624+766132946
1832+764965337+762459925+761695295+762749301+763642441+764935664+766372233
1819+767153183+767847094+768836386+769407651+769485011+769992551+770885691
1805+771635484+771346602+769597837+769064228+770911548+772330172+771490725
1792+769708190+770535415+773201976+774959784+775274453+775348846+776305782
1778+777519101+777435029+775733245+773458007+773685425+776133116+777810668
1765+778119756+777923776+778640789+780126176+781085090+781384852+780216465
1751+776979487+774484884+775595763+777870295+779128688+779590589+779814828
1738+780123774+778973332+775549064+775859706+780101661+783790791+785445452
1724+785557006+785338278+783689975+777891207+772380403+775542423+781628166
1711+785483461+786618925+785328882+783185403+781716547+778280410+773908109
1697+774812270+779257975+783229487+784160989+782020478+779546646+777216654
1684+775039052+777637014+782166084+784627200+783708768+781446740+779585714
1670+777173983+777331176+780039985+780641275+779434526+779965945+781155527
1657+780168071+774468918+765322465+765373191+767019233+765238323+766712265
1643+771623757+774690613+774610074+771021053+767551288+771713975+777300020
1630+779386768+779681443+780608000+781962404+784188825+786521218+786983331
1616+788121904+793578591+799436421+802980297+804770603+806211270+807462598
1603+808476689+810132975+812303936+813523190+813877987+815111512+817676622
1589+820775200+823842692+826332632+827913394+828781101+828771846+827481731
1576+827116761+829678833+830969654+829914587+830704085+832699697+832822908
1562+831892819+828181082+821966123+825826646+833247012+838490623+841125039
1549+843075647+844416982+842135243+835188082+828821370+834715019+845333012
1535+849773489+849183856+849849719+852411862+853855213+854825925+855306053
1522+853752348+853527615+857007413+863155962+869855711+873807795+872823236
1508+866146942+863645910+873954038+882793098+886194899+885295754+884781362
1495+888113645+890528627+888181468+885686936+889503303+894255553+896534254
1481+898006005+899661444+899934430+896857895+892201515+892881226+898824187
1468+903630200+905383205+906622735+908258603+906559999+900506543+900421058
1454+909593368+918498696+924518170+926820114+927292965+928702193+931195453
1441+934519824+936249726+934605591+935619611+940067648+942526856+943581639
1427+945637373+946431039+944851972+942678609+938659974+934326388+933729337
1414+933619478+931940867+930312134+929115205+925961733+921654217+918763770
1400+914437602+907947467+903652525+902872141+903789160+903650759+900295233
1387+894855501+892610571+895269785+899620609+901328751+898427001+893985887
1373+893537410+896431036+898395915+899642581+899624919+896310297+893905136
1360+896061190+899036910+901019169+902002386+901535610+901420806+902157459
1346+901668147+901074275+901883979+902129765+901517666+902289148+903844548
1333+904781066+905512915+906967147+908840395+909660201+909414132+909715095
1319+911310411+913816247+916504992+919469620+922923278+925934322+928362091
1306+930817625+933362105+936085963+938698760+941522939+945206063+948898796
1292+952019557+954116690+955357704+957521318+960666806+963444568+965194040
1279+966581155+968562495+969963034+969576868+968222958+967067995+966197533
1265+965402312+964617265+963912121+964994104+968083639+970218075+970514658
1252+970962711+972483352+974441167+976310035+977687329+978526423+979142620
1238+979968361+981545026+983190009+983345082+982062457+981907878+984070856
1225+985749820+984157683+980373460+978610636+981081359+985592274+988944268
1211+989755455+989181930+988037140+986356550+985776172+986855188+987789587
1198+987477532+987360820+988570395+989245090+988953593+990329616+992646043
1184+992126917+989781383+989600381+991936802+994239382+994601880+994710255
1171+996764928+998694201+998281966+997068788+998514894+1002903374+1005209275
1157+1004207195+1004687535+1007888977+1011105608+1011833925+1009971839
1146+1009286830+1011047323+1011621202+1010744240+1011105467+1013052189
1134+1015206407+1015266246+1013980512+1014816003+1016067048+1014389780
1123+1012418754+1012687289+1014088958+1015814126+1016706277+1016007704
1111+1013553441+1010407388+1010658756+1014024809+1016553535+1018712768
1099+1022770825+1028279509+1030902057+1028439811+1025538273+1026744174
1088+1031269712+1035202509+1036430805+1036185090+1037474851+1041287545
1076+1044867663+1045952614+1045384246+1046827385+1050636264+1051471331
1065+1050452224+1054160217+1059836056+1060931887+1059845028+1060234161
1053+1062022701+1066121593+1071150432+1073558419+1072765318+1070039624
1042+1066187578+1062358989+1061277570+1063829469+1065905267+1063277067
1030+1059720051+1062020441+1067021585+1068309934+1068579175+1070390747
1018+1070406007+1067622099+1064869487+1063776836+1062791923+1060061354
1007+1057774035+1058285178+1059247906+1058739307+1057389494+1055914351
995+1055505508+1055609785+1055093061+1055752425+1058180547+1060229710
984+1061239915+1061271353+1059171182+1056300022+1056740658+1060455927
972+1062796939+1061577898+1058617862+1056367350+1056470921+1058956551
961+1060393332+1057454350+1053960423+1054775566+1058009507+1060320423
949+1062098790+1064834869+1067441026+1068199722+1067643576+1066870397
937+1065438067+1062270183+1059995792+1062382091+1067432336+1070493612
926+1069892251+1066802645+1064571138+1065940662+1068512907+1069701782
914+1070829758+1070855898+1069127197+1067821540+1067241797+1067386062
903+1067840332+1069394955+1072989274+1073741823+1069596445+1066163629
891+1065293520+1064528042+1063477780+1062018250+1060547770+1061354012
880+1062944030+1061559953+1057660291+1052234406+1045141709+1039123295
868+1037127966+1037772211+1037214864+1034850961+1033877988+1034485355
856+1032139114+1025916596+1020638579+1018100457+1016147305+1014462760
845+1011081588+1004563546+1000265708+1000091913+999622241+996484736+990802256
831+984603052+979104399+973910878+970786938+970072751+969782809+970411864
818+971263745+967466735+959303570+953973698+954199773+956579430+957881979
804+957349076+956177228+953950595+948702463+942971942+939765413+936494524
791+932309794+930781099+931080649+928451320+923874632+921182496+918389332
777+914930517+914617332+915385636+912585478+907744917+904684772+903462057
764+900760666+895671846+891792813+891272698+891027335+888674100+886534154
750+885550089+883530104+880079908+877444786+876852326+877541362+878827308
737+878346403+873377050+867562599+866125323+868224647+870501016+871789152
723+874430916+879274302+880667775+876664260+873745412+875822552+878845182
710+876795172+872944893+873627570+875785815+874807331+872229999+870578659
696+870915229+872688862+874767627+877897855+882361364+884052268+879379357
683+871359538+865247726+864306969+867058309+867519856+867186677+872224559
669+875484852+864018016+851625048+847737396+848168988+849656919+848325616
656+846649266+847066799+846661983+846969799+845857578+840684474+838109332
642+838714367+835772488+829457561+820398572+801944659+785405323+790174670
629+804462364+806066582+797862794+791718272+794130569+801693362+805842696
615+805694052+800807145+790050470+783158556+790424413+801127325+798995786
602+791212640+785593673
##END=
