##TITLE=Sample description
##JCAMP-DX=4.24
##DATA TYPE=INFRARED SPECTRUM
##DATE=25/8/2023
##SAMPLING PROCEDURE=Instrument type and / or accessory
##ORIGIN=Default
##XUNITS=1/CM
##YUNITS=ABSORBANCE
##RESOLUTION=4
##FIRSTX=4397.6552
##LASTX=599.8556
##DELTAX=-1.9287962
##MAXY=2.0629966
##MINY=1.2862022
##XFACTOR=1
##YFACTOR=1.9213153e-009
##NPOINTS=1970
##FIRSTY=1.3682642
##XYDATA=(X++(Y..Y))
4398+712149732+713268664+713764222+713643854+713974247+715526195+716410470
4384+713843331+708931113+706237215+706892789+706971463+705539883+706138686
4371+710327141+716042539+717984320+714659541+712653853+713435691+713836692
4357+715913546+718528957+717300701+714761669+714674619+714367244+711844405
4344+710564155+710936988+710220174+709016178+709106765+709520733+708952829
4330+709012765+710008971+710668516+712227599+715559017+717541687+716289047
4317+714810685+712873867+710157322+710754511+713252966+714021402+712860465
4303+710309582+709219750+711102153+713259357+714120489+714822784+715425557
4290+715363077+714759869+713953214+715321134+719554386+721954374+719689149
4276+716451420+716487841+719650867+721874398+720918336+720550033+723164575
4263+726496179+728173770+725748033+721027040+718355105+716402652+713987959
4249+713015952+713694421+715812784+718621405+721179114+723826665+724636733
4236+720744918+714777490+713085505+717426468+723174813+725751383+724300631
4222+720929380+718269172+716512349+715336336+715369964+715759921+715761472
4209+717654796+722017847+724535350+722515764+718645231+716975830+718460645
4195+720791887+722226879+723098124+724536405+725130182+723123439+722139519
4182+723128092+722005314+720486684+721136551+720694847+718913392+719108712
4168+720125951+719107905+717119032+715703087+715103168+716029944+718001197
4155+721007744+725336174+727987757+727606797+725349079+721231667+717565450
4141+716943629+718121938+719412239+721314249+723701270+724905204+725011737
4128+723924635+720200964+715963617+714674308+716792920+720261831+721916961
4114+722391238+724570158+726544947+725309928+721771092+718855256+719125526
4101+722070896+724719564+725905318+725869456+724598823+723457927+722154906
4087+720166653+720606867+722696565+722977383+723282710+726417692+731102387
4074+732419245+728094786+722987311+721739945+722346379+721695954+721357123
4060+721581666+721380390+722990723+725316753+724592060+723841059+727329453
4047+730576675+729647417+727945070+727037093+726890914+727553003+727817194
4033+728233024+728569125+727840895+727392491+727188981+725267861+722014559
4020+720051124+720821234+723272721+725762365+727537988+728490327+729047683
4006+729626011+729536417+727740319+725520325+725822612+728856583+731543718
3993+731295908+728932092+727485559+728315048+729521898+728309340+725538815
3979+724972338+726872300+729039679+731483534+733416257+733073951+731873615
3966+730809594+729134485+728125685+729009463+730912218+732311223+731876966
3952+730320984+729000342+727975100+728124444+729714984+732570760+736487641
3939+737676498+734581722+730267439+725948999+723200872+724049222+726303465
3925+727285338+726871928+726425199+726929630+728854535+730676072+730919229
3912+731714530+735009155+738174849+737475904+733742927+729673228+726953208
3898+729402336+734042483+733656435+728114951+725724579+728665854+731661109
3885+734052287+736051398+734633034+734497030+738083269+738676488+736756175
3871+736564267+734565715+731774590+731071551+731811818+733395099+734970376
3858+735508871+732348575+721520489+716770645+724509291+732754664+736384521
3844+735489637+731892663+729490007+730077641+731208858+732062606+733766070
3831+736517857+737274442+734869056+733116948+732024510+731309434+735311814
3817+737236222+732347396+730212218+733028781+735079701+733664253+733325732
3804+735264907+733826378+731417083+731687664+731314894+732028977+735118355
3790+736858798+736490123+736538643+737397727+738373767+738103993+736909552
3777+738107840+741624402+744214498+743262159+741265840+741069279+740363758
3763+739187744+738442948+738027056+738659736+739074449+737046176+730640644
3750+726335605+731075149+735602249+731270469+728466998+731481487+734146348
3736+732874288+731359443+735621484+742614899+746858450+747230290+746926204
3723+747304745+746267775+744608798+743212337+741210185+737567050+732446359
3709+731471249+735456752+739543700+741222160+742387501+745614869+748912534
3696+749754121+748390482+744754916+738731274+737937834+742668941+745093189
3682+745183962+745351051+743100965+735571537+731290014+734551506+737460703
3669+738806164+740291785+740377904+739251713+737775027+735341658+732104239
3655+731872374+733648493+728850998+716577125+715544871+723879652+728755448
3642+728402532+725887511+724384951+725341075+726898421+727376731+724942680
3628+718753935+717090615+719025323+719414287+715359292+708296448+705888022
3615+707077809+706511953+704879221+702857525+700699080+700815478+701815840
3601+702314005+702358678+699703806+694659865+692022925+693838195+696768674
3588+696141330+693989214+694570396+695348200+693786387+690634032+687206816
3574+684625158+683702229+682962582+681023593+679474065+679867248+680887713
3561+680538396+679061151+679608704+682386550+683984288+683744854+683248799
3547+681356282+677305072+674749721+676217722+679242324+680577485+679372496
3534+676590989+673636808+671049318+670146678+671953075+673776039+673676828
3520+673258330+673941639+674969549+675029485+674686683+673877421+672009164
3507+670640189+670268783+671060052+673238165+674782482+675196202+676315258
3493+678021700+678189843+676595952+675028307+675010934+676463299+677613563
3480+677802616+677051988+675099287+674146948+675509285+677075255+676923243
3466+674662361+672172407+671977769+672605237+671286829+669438364+670358253
3453+674513824+678375794+678296872+675340024+673596851+673479026+673415926
3439+674642569+677003530+678673862+679355681+678313749+676462988+676802751
3426+679223896+680127468+678100560+676276727+677033374+679068162+680397614
3412+681593669+683815710+686348042+687693130+686679986+685368341+685858626
3399+686346677+686869226+689151575+691846529+692724041+692511348+693533426
3385+695937200+698386825+700727125+702771902+703136420+702754902+704249644
3372+707565860+712207745+717250258+720188927+721080709+722124938+724667818
3358+727457391+727641604+726467018+729174008+736959126+744250050+746738268
3345+746255738+746178988+748458546+752878555+757181918+759458250+760709028
3331+763221505+766050912+765317718+761444021+760155519+763465903+768604215
3318+773536846+778080326+781519021+781198679+777428474+774575242+774713728
3304+775895822+776524841+776953700+776747771+776691371+776272439+773405557
3291+772540082+776134449+778646678+777455836+775114853+773545842+772070520
3277+769615001+766861104+765080145+764439958+764771406+766683467+769069992
3264+768933057+765854041+762419689+761012928+762680777+765013136+762876780
3250+757360113+754234129+754528721+756902278+760665906+763589809+762580760
3237+757290932+752194253+750401940+750303598+750392509+750604209+751184770
3223+751332997+750686916+751250539+753685025+757343733+759827794+757623125
3210+753367413+751579381+751151514+749990764+749098299+749279906+750140728
3196+751307248+752958346+756473791+760422067+761499366+760653001+759489521
3183+756875971+753095653+751351921+753792488+758365005+760172892+757332131
3169+753609143+752245193+753662626+756459769+757561079+755918731+753473449
3156+752815330+755202910+759468673+763360674+765529728+765752286+763730218
3142+760340105+758474764+759957531+763963944+767345060+766618133+763765274
3129+762905631+762432843+761450970+762433525+763696527+763230874+763122543
3115+764598671+765813897+764960335+763177391+762499108+763013404+762692256
3102+760414001+759526066+762714841+766642890+767538147+766832998+767009269
3088+767292011+766843049+766943004+768360686+771077169+773967815+774952728
3075+773675828+771225148+769356271+769502760+771275467+772924703+772848821
3061+771989861+771982291+771955364+770966480+770111118+770487301+771589418
3047+772742599+772841872+770291113+767585425+767959375+770129608+771651588
3034+771091750+770257732+771219626+772506888+774682891+776469620+773964154
3020+769882170+768353861+769910711+774020367+777502681+776832649+774834407
3007+775365580+776889918+777852246+778061836+778378455+781097855+784612804
2993+785864761+785569858+784990289+784125559+783833076+784637932+785385644
2980+785431000+785071879+785862465+788375129+790744094+792674087+793757652
2966+792972713+791634263+790413329+789406514+789981677+791869292+792383713
2953+791266457+791455758+792860410+792610862+791311068+791512344+793678234
2939+797164518+800047408+801039952+801325176+800617918+798754810+797458428
2926+796472460+795198415+795018420+795968526+794975795+790895734+788481227
2912+791335948+795784374+797011389+795341988+793438365+793782781+796575084
2899+798194042+796724056+794642610+794415398+796239913+797988484+797205468
2885+794290438+792606271+793853513+795917524+797036021+797207702+797081625
2872+797133743+797482378+798711626+799509099+798844218+799179265+801363706
2858+802950338+802635705+801474148+800551280+799362051+797053518+795935579
2845+798056362+800074087+799562211+799244040+802004824+806492711+808493498
2831+806978405+804568861+803567879+803971796+803946109+802951393+802502617
2818+803297980+804584435+806138493+807416633+807980256+809397814+811857924
2804+812145134+808825008+806461316+808300970+810358405+809644631+808848709
2791+809741857+810767720+810779633+810868420+812066832+812570084+810767037
2777+809016295+808678704+808049437+807039644+807540104+809890332+811959431
2764+812749458+812968107+813480667+815388012+817324582+816879094+814945813
2750+813386109+812479684+812892660+815187977+817204027+817318377+816658211
2737+815612680+814189973+813598491+814635957+816948213+819513181+821284895
2723+821576199+820324117+818048965+815809054+815501680+817362430+818759574
2710+818649753+818740898+819747961+820601834+820571369+820250966+820831961
2696+823035079+825329155+825436929+824165054+823028006+822065553+821943695
2683+822955971+824374086+825781034+826599230+826742680+826371026+825377799
2669+825151146+826435119+827589479+827372257+825900286+824734758+825907793
2656+828590213+830019187+829515190+828078150+827092121+828173080+830422360
2642+831216917+831697895+833678392+834103467+832293843+831860082+831483279
2629+828862594+827007677+827929675+829869533+830630213+829860785+829194662
2615+829635745+830234982+830651681+832162306+834063013+833744781+831704534
2602+830996717+832854240+835159981+835208376+834258023+834837840+835923018
2588+835864820+835321672+835058040+835204778+835991579+836890621+837511263
2575+838691124+840144481+840207768+839016926+838358125+838517582+838642170
2561+838691496+838908346+839533642+840395828+840823509+841187965+841331787
2548+840158690+839119115+839894499+841275140+841987486+841884924+841033596
2534+839364940+837578955+837644910+839258966+840359780+841874190+844676731
2521+846033856+844521927+842407597+841959751+843245462+844985594+846688562
2507+847706979+847606838+847573519+846961997+845223726+844417815+844987580
2494+845920499+846258585+845432944+845074444+846067113+846560314+846566828
2480+847705242+848710444+848074414+847273094+847376772+847376400+847489509
2467+848893913+850347023+850308306+849166169+847312369+845840149+846778652
2453+849956259+852506584+851836367+849019183+847559931+847958513+848459407
2440+849234047+850321646+850258545+849511950+849318367+848615452+847738437
2426+848569414+850185766+851031696+851097961+850962578+850804609+850638885
2413+851851816+853883626+854075285+853312805+853613603+854455873+855061687
2399+854779007+853478405+852932093+853961059+854523068+853290717+851879302
2386+851742740+851669030+849969413+847254046+844984540+843004911+840726470
2372+838769736+837044184+833704017+828223834+822081189+817902475+818233675
2359+820588308+822508187+826461302+832773518+839273298+842451587+839772331
2345+834402527+832805162+835167985+836698527+837553827+839655562+839921675
2332+835926741+831643356+832823465+837593474+840157387+841500800+843461691
2318+844628211+846340113+849738789+852382369+852593572+852560502+854420693
2305+856825893+857972001+857975165+858187795+860095948+862404171+862584041
2291+861770002+861626614+861268301+860841302+861970596+864962003+867353864
2278+866194665+862816154+860914454+861430736+862675372+863180548+863532471
2264+864678331+865110975+863741069+863444801+865425112+866941818+867436384
2251+867462133+866719323+865957960+865518801+865335332+865033418+864602821
2237+865157695+866311372+866995922+867131306+866345373+865368092+866253360
2224+868313400+869039024+868500344+867848492+867620970+867812381+867402135
2210+866546277+866199938+865873268+865876308+866922770+867756230+868073780
2197+868801017+869502877+869593154+869436613+869720410+870131524+870186497
2183+870580859+871459736+872203043+872137771+870999667+869937507+870131214
2170+871142993+872067783+873157243+874438982+874712294+873680971+872347051
2156+871761774+872469405+873746056+874401197+873915255+872612234+872159983
2143+873468464+875105105+875669162+875085746+874893405+876304385+877572723
2129+877643827+877506520+876660962+875156851+874853199+876034363+876966475
2116+876186375+874588016+873971965+874276485+874718436+874733823+874254210
2102+874598812+876094981+877165703+877143305+876370154+875768249+876423265
2089+877343340+876981490+875650858+875113729+876466945+877804836+877334343
2075+875914056+875036730+875948553+877920241+878477287+877014994+875474649
2062+875259909+875512000+875993413+877839209+880099409+881127753+881410433
2048+881341004+880582620+879131806+877544740+877219559+878724849+880532611
2035+880526221+878977561+878078085+878559001+879873252+881310974+882223170
2021+882068986+881077807+880768633+881442077+882041128+882132707+881728976
2008+881175529+880860088+881569146+883491569+884565021+883276829+880993983
1994+879533986+879749781+881510761+882896241+882847163+882942651+883555538
1981+883440133+883440630+884373362+885365286+886802946+888687584+888846545
1967+886522128+884094839+883377095+884097011+885608753+886501032+886418946
1954+886989952+888547546+889863845+889765813+887923801+884999837+883199893
1940+884622351+887542717+889740126+891077583+892030108+892011246+890065059
1927+887926718+887422348+888045101+888749567+888169254+887234350+888163174
1913+888882035+887748150+887388471+888970884+890355805+890788698+891065298
1900+891587784+891939087+891661122+891671298+892616687+892907992+891911414
1886+891387873+891715908+892533981+893819070+894328838+893284919+892525356
1873+893601166+894277153+891930586+890312622+892120880+893818636+894068990
1859+894139660+894672446+895987132+897277930+896627195+894260773+892381162
1846+891271289+891008774+893602345+897011072+898433158+898804874+899368435
1832+898350079+895227135+893663584+893974371+894191220+895704390+897535730
1819+897593556+897760273+899444503+899558294+896433737+893907610+895185006
1805+898400833+899685116+898240072+897246969+897213341+895932222+892889750
1792+890225758+891285622+894780406+898597703+901533332+901777234+899875844
1778+898403625+898011186+897734028+895986698+894306315+895773385+899256504
1765+902075797+902057494+900228884+899163622+899692996+902151121+902756749
1751+897877229+891881756+892082288+895846040+897778887+896929854+895572419
1738+895823083+894671206+889635765+889766620+895219193+899054856+900332128
1724+900561387+901298924+901348870+896958457+890689549+892891550+899626731
1711+903767038+903372800+899762797+897965706+899755351+897371743+889430642
1697+887375752+890416300+894989438+899215368+900293536+898245656+894009675
1684+890190516+892854570+896226690+896823694+895013884+892858231+891550681
1670+889807446+890589407+893549792+894134200+893455235+895158884+897300515
1657+897359830+893207486+883234204+880679598+880628410+875919764+876077671
1643+881980757+884869293+884093536+880516852+875292669+877752655+885115987
1630+888743611+887502015+886164434+885310748+885287543+887499595+888236884
1616+888666612+894475017+900670029+903354807+904045995+904870831+905820377
1603+906177512+906631252+908469913+911587212+914730011+916905518+918305392
1589+919535386+920806019+921981784+923258560+924910402+925447655+921715050
1576+915862531+916296478+918379785+917328297+917968795+921555096+923238209
1562+921264102+913300851+903933445+909380310+917704542+924193650+928687680
1549+930577033+930048217+926807386+921612426+915514392+914987004+922015847
1535+926643275+926020399+926048505+928847944+930286162+929591375+927773065
1522+924422413+923418762+926418918+931557974+937360795+940800793+938862735
1508+929956017+925555367+935335749+942314832+942261596+937869384+936284799
1495+940706794+943801011+940280664+932991167+931562132+936314395+941896830
1481+944979507+945347748+942740961+935607571+926618953+924250918+928841801
1468+932351477+930933547+928432176+929331031+928390357+920670015+916631525
1454+923237775+928664475+929988591+930076882+933172527+938505724+940949269
1441+940153409+938481154+935662854+935146882+938343537+940557388+940693082
1427+941341025+942424466+943137991+942859344+938424196+934689605+938173532
1414+941723226+941521578+940802717+940597470+938057941+933811411+930538254
1400+926844489+923582563+923089610+923929398+925526205+926480964+923729425
1387+918211952+916044572+918225540+920888105+921399610+919452865+916999269
1373+917597265+920655000+922339788+922259128+921343769+919505914+918420115
1360+919387283+920710158+921091305+920408741+919235643+918863741+919660532
1346+920364812+920692165+920398441+918599365+917191797+917648453+918326488
1333+919719289+922976004+925419735+923958994+921148945+920858075+921424800
1319+920610203+921077096+924326552+928011444+930623070+932717732+935775032
1306+940460287+944670706+947536409+950983108+953403695+952696375+953141366
1292+957756509+962269897+963670454+964731000+966358396+966972276+967788611
1279+970263302+972550677+973319485+974274927+976383921+978600006+979229397
1265+977504465+975603634+976211868+979543534+983342156+985272645+985869338
1252+986744430+988021578+988438587+987573360+987557477+989894551+993217344
1238+994936692+993339636+990352200+990202111+993392189+996003505+995575576
1225+993149528+990704185+990640588+994354021+999533407+1002260004+1001874328
1211+1000971005+1001807877+1003830380+1005374324+1006175892+1004999196
1200+1001999722+1001298668+1002459108+1000836738+998204823+998633621+1000401116
1186+1002398738+1006906480+1012525521+1015547393+1013967773+1009266200
1175+1007035597+1008610254+1010053250+1011141345+1013009291+1014250825
1163+1015762320+1018175400+1018907476+1018552389+1018944207+1018237321
1151+1016185967+1016171821+1019051112+1021072126+1020940899+1022594602
1140+1026913415+1028437008+1025128299+1023971209+1029008573+1034213088
1128+1033066670+1026570054+1022190375+1024684052+1027913219+1026554543
1117+1025108569+1025403534+1024482714+1022126654+1019943763+1017589689
1105+1015095018+1016770686+1025848649+1038143929+1045311754+1044755701
1094+1043655507+1047021236+1048415403+1043092257+1037752669+1035874050
1082+1035748035+1038758491+1041880257+1039188840+1035485706+1036970707
1070+1041169461+1047083406+1053648086+1054722220+1050712581+1047663657
1059+1049701113+1056717237+1062075997+1061638823+1060582806+1062154919
1047+1062964491+1062004148+1059322038+1054234541+1051696874+1053904831
1036+1056368788+1057145476+1059609682+1067250233+1073741823+1069920058
1024+1061234409+1055552019+1053637786+1055347517+1058456625+1058734093
1013+1055002667+1052259752+1054514119+1056884140+1055080844+1050619761
1001+1045311010+1041944164+1042878075+1046820084+1049959223+1051162288
989+1053033586+1054038849+1050810241+1047702374+1048297516+1049638943
978+1050895864+1051024795+1049393739+1051158193+1055258543+1054806975
966+1052283578+1052871895+1055480418+1057613176+1057384600+1055758383
955+1054118888+1051935625+1053471504+1058857068+1059936910+1055380525
943+1051743656+1055004032+1061587077+1061504929+1056997311+1056051983
932+1057712449+1058566446+1059687859+1061739958+1061674685+1058905215
920+1056989617+1056834751+1058545102+1062539106+1064795334+1064241391
908+1064841372+1068446101+1070772690+1066679537+1064022369+1066683384
897+1065814248+1061412729+1059997715+1062908029+1064062079+1060548557
885+1060393691+1064238040+1065024035+1061630261+1056318779+1051988985
874+1051004444+1051660639+1051315541+1050747823+1051572286+1053866238
862+1055897365+1055012718+1050600403+1046099114+1045228241+1048056903
851+1053457978+1054905627+1047161956+1037033063+1029656702+1024868886
839+1020422135+1015814748+1016696851+1019939296+1014252624+1005300924
827+1006220503+1012453983+1013950958+1011424769+1006683425+1003396370
816+1005726805+1008735214+1005234225+997190066+992292243+993664569+997958254
802+998991996+995382242+991634249+987905615+978671855+962152755+949353850
789+951701534+964408735+974408635+976986260+975943334+971360890+960695302
775+950703033+948192728+949982807+949982807+947627926+945775367+942184598
762+935398539+931170499+932478856+936493769+939451486+937857037+933471029
748+931887065+931848720+927774988+921369083+918673696+918741698+917544526
735+916966757+918392567+919711161+919344037+916773051+913642661+911465851
721+909811527+908257841+909158062+914741241+922475234+927553795+923785886
708+911624129+903529093+906407764+912118075+910888329+904498743+899244778
694+898941498+904040225+910948079+916374842+916001637+908928741+903081185
681+901679884+901492196+901333731+902295811+905366265+904203095+891670553
667+882470546+887550224+890534683+889272426+889093052+890319881+894540848
654+897460034+894579316+889780208+884704934+879388551+876019782+879428323
640+889825129+900106592+913051490+940172643+969600964+973528083+949305207
627+919013458+908888412+931355271+932674859+887443072+862443384+862221136
613+861580266+874923807+902127543+918454116+914466751+892574496+877979184
600+899116777
##END=
