##TITLE=Sample description
##JCAMP-DX=4.24
##DATA TYPE=INFRARED SPECTRUM
##DATE=25/8/2023
##SAMPLING PROCEDURE=Instrument type and / or accessory
##ORIGIN=Default
##XUNITS=1/CM
##YUNITS=ABSORBANCE
##RESOLUTION=4
##FIRSTX=4397.6552
##LASTX=599.8556
##DELTAX=-1.9287962
##MAXY=1.8772849
##MINY=0.65965295
##XFACTOR=1
##YFACTOR=1.7483578e-009
##NPOINTS=1970
##FIRSTY=0.76153249
##XYDATA=(X++(Y..Y))
4398+435570161+436252167+436965674+436445809+435580695+435465397+435979637
4384+436859206+437096178+436432070+436402103+437087177+436624688+434808721
4371+433329478+433231601+434295980+435085989+434328572+433279261+433480266
4357+434183171+434543248+434743401+434741151+434374801+434131965+434464769
4344+434738151+434408313+434278355+434825869+435072489+434470121+433652907
4330+433104472+433293375+434701877+436358499+436569391+435400043+434787618
4317+436050889+437783127+438065748+437533268+437458710+437717057+437285148
4303+435972001+435374951+436170211+436832955+436321305+435499114+435322655
4290+435668754+436260622+436988584+437811730+438345744+438278719+437809037
4276+436506799+435155809+435813542+437860004+439307201+439890272+439791918
4263+439019670+438449349+438254071+437345764+436452150+436755294+436626563
4249+435037681+434104350+435180696+436560732+436774624+436756453+437125156
4236+437348798+437550178+437795468+437581133+437110019+437006823+437360491
4222+437720944+437538757+437297694+438109692+439216721+438883031+437636737
4209+436964276+436765283+436447036+436287350+436908230+438066464+438691980
4195+438589500+438425928+438511157+438853609+439031330+438928918+439304644
4182+439832521+439637516+439337201+439309655+439098900+439258654+440180700
4168+440472151+439184743+437958018+438688639+440423400+440887935+439722404
4155+438210604+437668647+438540715+440048254+440702475+439798327+438618444
4141+438727231+440162086+441482632+440966346+439228755+438600000+439491671
4128+440292146+440530312+441152146+441846050+441782162+441533565+441746502
4114+441798049+441184090+440822785+441155214+441287320+440933481+440602177
4101+440206508+439690563+439872783+440570472+440621473+440307556+440229793
4087+439878579+439594492+440395410+441634102+442158808+441899847+440961743
4074+439835862+439525252+440222395+441257183+441815402+441374833+440462435
4060+440101880+440491686+441119247+441307775+441087235+441166839+441502541
4047+441571270+441448949+441496814+441498518+441163737+441072746+441565270
4033+442181445+442675197+442890725+442534057+441758537+441175294+441010835
4020+441077758+441454506+442190957+442968761+443170891+442672196+442650821
4006+443579515+443967003+443191653+442426156+442239810+442523420+443057366
3993+442852985+442086431+442233026+442754324+442339188+441822118+442204900
3979+442667083+442448725+442324153+442886702+443197619+442747812+442469248
3966+442929419+443431489+443135163+442729096+443181903+443464967+442590922
3952+441651216+441401834+441243648+441462722+442361791+443217154+443784441
3939+444150996+444126620+443191994+441401493+440796262+442143740+443471751
3925+443939388+444251192+444183622+443093264+442050533+442746551+444847287
3912+446731165+447424421+446542637+443358771+439145946+437569201+438711378
3898+441099270+443534651+443862000+441875437+441606078+443678211+444193440
3885+442404815+440669236+440256861+442257913+444341535+443589947+440895196
3871+438612410+438711992+441059348+442427929+442645230+443567549+444296022
3858+443715167+440749692+435818383+436837114+441885938+445333811+446274642
3844+445129737+442633843+439311121+437424788+439484887+442559080+444385718
3831+445949440+447209950+447178961+446010021+443181664+440053777+441031120
3817+443341180+445194852+448009914+449970533+449096726+446478477+445037280
3804+443746361+441887574+442776517+444939198+446644810+449032565+451372251
3790+452171362+451428570+450250222+449859768+449846302+448906426+448389901
3777+449859598+451698645+452062575+450468034+449071225+449839654+451630155
3763+452764116+451837501+449663161+449584000+450510615+448666828+444836207
3750+446136638+451379478+455741079+459987893+464665048+468064443+468914181
3736+467817414+468478487+472320564+476838851+479394167+478449142+475019849
3723+471568738+468724051+466594541+465308974+464020679+462728430+465388715
3709+472525967+478755423+483019590+486817279+492383616+500247603+508420939
3696+515146737+519163295+519624148+517318964+516531580+517107356+515203739
3682+510576835+505034465+498565616+488442980+479580581+476733950+474403095
3669+473937878+476413965+477592791+476183470+473779249+471560828+468720471
3655+466213190+464310596+459157145+451800034+452949337+459389582+464019384
3642+466289045+467427028+467750628+467014313+465575469+463332877+458515299
3628+453608842+453508578+453624422+450192981+443089548+436359215+433068471
3615+430473882+428973161+429913379+430629306+430682558+431510749+431484124
3601+429573177+427368052+425958186+424914159+423605545+421328112+417132162
3588+412402745+410944128+411022539+410098617+408829278+407611724+406025569
3574+404601964+403261270+400455584+395606402+392199917+393278820+395055615
3561+394873906+393930245+393346901+392405899+390736663+389190907+388127073
3547+387425839+387199163+387114751+386998328+386784982+386425211+386214285
3534+385854685+384507684+382235603+380631107+380615356+380726530+380135719
3520+379731220+379679503+379683287+379617149+379221889+378641646+378446846
3507+378776991+378643351+377636348+377298600+378292921+379571261+380295371
3493+380417999+379978590+378981166+377889377+377374625+377537754+377663110
3480+377405614+377380523+377738316+378022914+378381117+379104067+379619672
3466+379480543+379107886+379041407+379298868+379498373+379560966+379762448
3453+380054683+379863189+379293140+379315607+379651684+379790199+380813839
3439+382550645+383196037+382680807+382272217+382600555+383446032+383933476
3426+383823462+383688118+383675742+384019353+385293841+387233016+388836284
3412+389665772+390117727+390695105+391583026+392429423+392984403+393815220
3399+395015592+395907399+396582348+397498156+398937852+401055088+403269043
3385+405068681+406501252+407879583+409920658+412786141+415553883+417623016
3372+419660239+422509972+426374890+430772117+434371050+436432717+438020611
3358+440570676+444322853+448781377+453323221+457419418+461410135+465601481
3345+469631267+473545073+477576836+481659703+485503075+488943584+492264874
3331+495448604+498136026+500458154+502020989+502232120+502326452+503540870
3318+505517273+507354548+508534158+509541809+510491742+510661383+510557130
3304+511338241+512318482+512166979+511150532+509688403+507550916+504733059
3291+501724459+499350750+498138446+497625535+496130678+493268468+490903657
3277+489569509+488235259+486694480+485171123+483524558+482138522+481906118
3264+482157613+481203759+479247095+477538346+476149447+474641669+473178927
3250+472201209+471812358+471741958+471743526+471598738+470901698+469889819
3237+469151834+468428850+467596362+466672543+465529411+464813893+464508874
3223+463846470+463006039+462318203+461727256+461801338+462973482+463983246
3210+463701137+463046847+462964107+462975255+462670747+462316738+462085766
3196+462326590+462727134+462094391+460973862+460913247+461559763+461767826
3183+461572514+461535967+461842418+461921034+461401850+461578957+463152430
3169+464701254+465083593+464749493+464827598+465409851+465579185+465109571
3156+464422485+463984849+464451361+465967934+467229296+467268263+467238092
3142+467894870+468346041+468391281+468805769+469768418+470384253+469883887
3129+469328634+470190679+471626489+471770834+471117362+471596727+473112618
3115+474221522+474734297+475238105+475568489+475331346+475216286+475651809
3102+475715186+475261867+475325551+476092582+476397055+475756403+475691185
3088+477043061+478477132+479027817+478919302+478545418+478594135+479286641
3075+479956647+480225018+480301929+480321225+479934488+479070909+478507542
3061+478892131+479917510+480520491+480307077+480146879+480652768+481368661
3047+481415162+480722178+480184994+480155812+480204597+480459740+481187975
3034+481856617+482166204+482387494+482737003+483219675+483708585+484547550
3020+486166092+487995184+488918901+488676645+487821418+486794267+485835947
3007+484983413+484864399+486258583+488074005+488923401+489223955+489862221
2993+491055366+492614178+494095399+494984035+495285713+495436876+495890638
2980+496748592+497532396+497963453+498120855+498244301+498910591+500318514
2966+501796188+502337770+501807029+501137126+500770298+500775685+501659310
2953+502732417+502717485+502382669+502652642+502759452+502397567+502412090
2939+503266192+504244592+504401755+503990745+503921948+504591101+505524978
2926+505685039+504844437+503865355+503396661+503365672+503300727+503085744
2912+503059903+503364240+503902311+504469462+504919712+505226436+505634446
2899+506418489+507044517+507114610+507095143+507488835+508358619+509015568
2885+509023341+508743038+508426393+508341607+508536169+508747845+509084672
2872+509476386+509615515+509905329+510658962+511271524+511682705+512460986
2858+513302951+513508900+512980511+512166876+511531269+511173544+511108394
2845+511366878+511762173+512142160+512633661+513255086+513858545+514482254
2831+515314571+516437350+517466786+517938752+518103791+518404446+518575996
2818+518126564+517540526+517811420+518858174+520050807+521178972+521894389
2804+522086803+522233022+522600771+523295527+524225347+524825260+524945706
2791+525101574+525313761+525253759+525298965+525866866+526585726+526940348
2777+527061136+527416508+528019217+528640335+529236737+529775558+530251411
2764+530708718+531160230+531789871+532592256+532793056+532062981+531491329
2750+531960160+533091871+534190138+534885951+535198948+535399851+535416419
2737+535141742+535090945+535584083+536208815+536774841+537503757+538111580
2723+538345381+538632639+539210426+539900137+540532131+541244513+542123297
2710+542642651+542528683+542393304+542882623+543760419+544330604+544703500
2696+545431735+546081661+546106241+546309496+547128619+547559676+547320283
2683+547307976+547686361+548016131+548439449+549047203+549568228+549840348
2669+549771688+549629627+549966590+550651358+550891194+550776168+550969196
2656+551324944+551747204+552376914+552852392+553027726+553215879+553403690
2642+553570570+554073765+554747452+555119428+555261897+555572474+556304936
2629+557198754+557705972+557569162+557241574+557436749+558158438+558970845
2615+559669420+560253856+560726948+561134072+561469637+561512559+561380214
2602+561696859+562553449+563282400+563745230+564391951+565050400+565283417
2588+565211075+565033525+564817315+564869134+565340112+565772771+565872217
2575+566296830+567434303+568307393+568349769+568425794+568995911+569387285
2561+569447218+569853081+570418664+570533348+570383208+570136622+569908957
2548+570186362+570936211+571676753+572242267+572439591+572152061+571863269
2534+572199380+573166973+574278365+575214526+575500829+574958701+574390868
2521+574312662+574646148+575123705+575447782+575733608+576212256+577047096
2507+578016803+578545157+578566908+578527157+578919622+579852100+580856240
2494+581455846+581721967+582073521+582742402+583339281+583254120+582772062
2480+582384438+582105295+582381097+583272052+583893068+583926410+583821612
2467+583920069+584506379+585571952+586198150+585761639+585095758+585071485
2453+585617567+586538932+587419455+587565163+587424705+587948355+588696124
2440+588778217+588576121+588933539+589506349+589556328+589297230+589175182
2426+589355186+590026113+590929409+591169620+590839543+591114186+591922162
2413+592538064+593107601+593534976+593505316+593538863+594159742+594890329
2399+595409615+596445324+598310554+601030329+606337125+616923852+634118660
2386+657321054+684632463+713621325+742507843+771239857+801314406+833129205
2372+863419145+889093058+911109058+929188343+940057214+944350188+945815999
2359+943093088+932763071+916404195+896610229+876571962+864784999+867992763
2345+882672074+893874909+894111165+889433021+883797035+878765019+877256184
2332+878938819+878923341+876850492+876521097+876994223+873855256+865154145
2318+851366675+836809959+829222286+829445041+828876663+820743794+804976001
2305+785827938+769685135+758675601+750130972+741656162+731266962+717996120
2291+703949553+691594211+681006392+671391485+663478440+658060778+654032901
2278+650493901+647757898+645508317+643215235+641111908+639392796+637885530
2264+636356922+634876384+633654534+632536187+631549093+631086809+630871144
2251+630312584+629565020+628742794+627854634+627391600+627365485+627509421
2237+627796951+627874067+627641697+627460602+627266006+626974725+627022045
2224+627335212+627445942+627459102+627387850+627270642+627677084+628601517
2210+629278989+629534269+629858209+630283674+630700549+631317269+632008923
2197+632438344+632596939+632755602+633034404+633413982+633934632+634220935
2183+634019180+633974792+634537034+635250166+635673927+636008095+636347035
2170+636335990+636317716+637023485+637964691+638182128+637871688+637821028
2156+638261358+638831168+639028696+639021468+639413660+639912764+640085882
2143+640493483+641412257+642143390+642334031+642414624+642676244+643187894
2129+643731453+643825751+643554176+643270055+643331079+643972073+644566429
2116+644602839+644536156+644753866+645053056+645264561+645674549+646319293
2102+646757713+646920058+647057312+647350160+647595008+647434162+647617713
2089+648742742+649684493+649917408+650262895+650842250+651070256+650880842
2075+651045847+652223922+653721575+654247747+653608526+652853871+653068581
2062+653987491+654854786+655698558+656325165+656629809+657091139+657573060
2048+657766429+657745497+657740997+658136870+658735181+659145510+659690365
2035+660453885+660967034+661183108+661475548+661934423+662344752+662807650
2021+663406370+663661922+663588420+663843018+664395168+664824725+665164006
2008+665598131+666173942+666537769+666374742+666450358+667390132+668395840
1994+668466273+667687276+667289629+667935192+668949559+669565870+669724192
1981+670064496+670828016+671557308+672077480+672410693+672317486+671841974
1967+671609059+671962659+672564788+673255556+674011166+674498406+674832642
1954+675401634+676018355+676635825+677476733+678146910+677937791+677515121
1940+678187411+679367396+680404672+681464109+682144240+682200969+682274130
1927+682454816+681877710+681280968+682016259+682952625+683542958+684600076
1913+685458985+685399597+685233570+685630807+685910428+686165367+687212666
1900+688435266+688786343+688279535+687594631+687341192+687741225+688941597
1886+690267291+690960854+691299590+691340909+691163632+691626462+692722581
1873+693013248+691271021+688967643+689605160+692125839+693821291+694715860
1859+695196077+695453197+696128555+696896780+697067443+696858188+696385267
1846+695319694+694568038+695727636+697515137+698568027+699350434+699961427
1832+699088132+696839915+696167420+697374201+698708963+700185751+701370032
1819+701949319+702492538+702924140+702778909+702396263+702765068+703944984
1805+704794484+704255902+702637087+701906295+702830728+703617976+702653587
1792+701816975+704385519+707912587+709667291+709556220+708451442+707680694
1778+707800425+707301048+705063877+702709975+703782571+707187114+710207578
1765+711928463+712025761+711356403+710779774+710265738+710666931+710869163
1751+708353325+705078127+705523434+707891859+709474127+709982504+710384651
1738+711168216+710025869+706918266+707899700+711573227+714554963+716568697
1724+717312648+716895841+714964405+710364332+706458367+708594695+712700233
1711+715241776+715296664+713065424+711190103+711281606+709831068+706197702
1697+705604641+708271437+711986146+714296820+714234636+712114945+707379800
1684+703665705+707338140+711643592+713401092+712638800+710346468+708216072
1670+706474663+707496735+710674840+712025557+711427859+711887008+712885352
1657+711869280+706706897+698785329+698798011+699897948+698376023+701051751
1643+706520824+708995751+707965429+704181445+701079570+704792506+710275489
1630+713247065+714262387+714686421+715093409+717811615+721663578+723204459
1616+724962913+730151206+734692301+736549280+737468940+739721112+742478047
1603+744320299+745762109+747406970+748860984+749883193+750912287+752199866
1589+753660904+755339720+757092651+758819605+760483898+760882977+758786877
1576+757253769+759564715+761080300+760530127+761840819+764618550+766005950
1562+765460549+760271983+753399352+758946154+766686763+771839668+775262552
1549+778201810+779563231+777102281+771252744+765761512+770064304+779403954
1535+784584270+787629144+792186125+795585281+796451554+797146003+797017204
1522+796284913+799269854+803527918+807698844+812868114+816799920+816520299
1508+810405323+808511524+819436306+828829275+833211434+833373779+833604376
1495+838208063+842585517+842752089+842154869+846287135+852004669+855800040
1481+858147668+861109836+863568808+861794126+857100914+859758574+869129247
1468+875810965+878356940+880527223+884243365+886135800+882799577+880480995
1454+886590175+893906137+898650827+901531515+906361572+913346161+918324517
1441+919385249+917165396+915063228+919661597+926702983+929351438+929509078
1427+930574310+930438284+928829220+927777488+924577428+919968082+919661256
1414+920872673+919572549+915528036+911622889+909781865+909315693+907765131
1400+902383810+894283465+888654365+887688885+888751935+887579792+882524320
1387+876865697+875760373+878239801+880936597+882540139+883234929+882308519
1373+880677977+881028236+881349994+879608859+876501051+873027098+873156988
1360+878232641+882305724+881420224+878750905+878486011+879327465+879900275
1346+880732660+880959030+880154259+879330465+879958709+882281928+884622738
1333+886227643+887508062+889178424+891814196+894399854+895264558+893835908
1319+892265435+893806520+897193199+900220004+903822347+907448486+909744704
1306+912117016+915728904+919833419+923876296+927615688+931146643+933895737
1292+934444683+933732164+934744759+938954072+943652875+945588948+945966003
1279+946863912+948632322+950657783+951788539+952125366+952422442+952764383
1265+952672676+951704401+950732512+951309004+953223326+954837095+956326225
1252+958948020+961311194+961054006+959394145+959225390+960985140+963077899
1238+963398021+962557317+963649823+965651011+966200025+966799018+967576720
1225+967703268+968990915+971282702+971674007+969659319+967941570+968871594
1211+971572755+972782740+971780237+971118311+970801735+969546748+969411608
1198+970767916+970829826+970077148+971044468+972782195+972446459+970455226
1184+969039053+968750500+970380565+973561056+975433922+976363265+978474092
1171+980342049+980427074+979539256+979015742+979418639+980233910+981276846
1157+982908888+985332473+987877766+989560537+991553611+994762194+995858245
1144+992693504+989420283+989381964+991200693+993321816+995844472+998924733
1130+1000438409+1000668801+1003720221+1007266994+1007148218+1005826343
1119+1003937385+1000177470+998107485+1001415547+1007506523+1009425209
1107+1005563632+1002927859+1004673086+1006250922+1005935982+1006414631
1096+1010176796+1016928402+1022295814+1023852717+1023641894+1022927603
1084+1022845850+1024447483+1025665173+1026933115+1031431799+1036993943
1072+1039642466+1039598283+1038051129+1035946848+1035751502+1037481387
1061+1039435051+1043431018+1048318076+1050173147+1050185283+1050123986
1049+1050088122+1049874093+1049877707+1052852693+1057593020+1059784781
1038+1061322730+1063675813+1063378124+1060837808+1057206283+1052541708
1026+1050853823+1053060448+1055362258+1056454354+1056387875+1056200848
1015+1057429038+1057894528+1056506105+1056104027+1056296782+1054423165
1003+1050979145+1047401484+1045766851+1048155322+1052152993+1053554097
991+1051476271+1048254188+1047150841+1048938819+1051388792+1053173497
980+1054076316+1052506934+1049897617+1051638616+1057068893+1058373449
968+1054165636+1050981258+1050642659+1052614801+1059348474+1066725869
957+1066302858+1060385342+1056432876+1055043909+1054560419+1055121229
945+1055685380+1057587088+1062995682+1068147906+1069371324+1068970268
934+1067968242+1064215691+1060216519+1060572370+1063450262+1064484811
922+1064793001+1066317313+1066797121+1066664436+1068389208+1070879545
910+1073137853+1073741823+1070489603+1066268357+1066315336+1069775312
899+1071538266+1070959797+1069871996+1067566300+1063307826+1058833484
887+1056977186+1057904755+1058598182+1056678133+1054650217+1055042545
876+1052941332+1048113662+1048297144+1052128174+1052497116+1047457804
864+1039106066+1031692806+1027087346+1025210730+1027385513+1032770107
853+1035578384+1031628032+1024898517+1020000413+1016024834+1011856976
841+1009115451+1008137766+1006384017+1002233546+996479534+991434494+987984064
827+984829688+980802765+975093959+970763893+970859691+972127837+971468570
814+969097759+967067388+967588856+968372490+966215434+961315558+955338381
800+952334963+953743704+953612109+949283543+946168781+945783203+943415528
787+938230167+933976875+931429400+928688421+925203285+921887859+920151496
773+919995492+918747732+915829475+913885834+912498503+910044712+907083022
760+903484088+899382642+896603752+896861963+899062997+899742310+897260973
746+893532900+892405484+893809043+893054865+890371705+889076421+886104299
733+879508356+874926351+875895240+879516743+881804779+884092474+888951168
719+892502237+892784517+892379302+891152475+889152037+887153576+884977634
706+882618823+881443610+882372475+882370566+880240579+878744223+878100842
692+878580514+880920779+882809737+882608459+880864459+880366583+880151191
679+874727801+869566372+870355324+872018117+873355129+872166417+863852316
665+859353700+861737534+864734679+863834724+859516931+858292899+862413301
652+867366156+870935362+872414468+870307937+863835542+854779809+850709113
638+854413458+854589577+843426425+831544959+827213461+824085335+818362824
625+817912198+825546645+829100919+820940845+806957620+797459375+802518596
611+812273553+808074944+799588339+800810666+805326396+804322461+802419798
##END=
