##TITLE=Sample description
##JCAMP-DX=4.24
##DATA TYPE=INFRARED SPECTRUM
##DATE=25/8/2023
##SAMPLING PROCEDURE=Instrument type and / or accessory
##ORIGIN=Default
##XUNITS=1/CM
##YUNITS=ABSORBANCE
##RESOLUTION=4
##FIRSTX=4397.6552
##LASTX=599.8556
##DELTAX=-1.9287962
##MAXY=2.0062463
##MINY=1.0746335
##XFACTOR=1
##YFACTOR=1.8684625e-009
##NPOINTS=1970
##FIRSTY=1.1437149
##XYDATA=(X++(Y..Y))
4398+612115526+613154457+612011595+612603155+615577163+616652014+615581246
4384+615071095+615300714+615730285+616278780+615746107+614763703+615655255
4371+617937854+619643822+618864879+615750765+613722412+614596801+617716465
4357+621876274+624832417+624534595+622089113+620856227+620850549+619257445
4344+616755754+617617447+622428916+625660040+623942205+618522269+612382022
4330+610307987+612749323+616000481+619429771+622511346+622664851+620491032
4317+619151217+619626085+620472275+620251014+618958219+617301378+615340079
4303+613433522+612686989+613621734+615806080+618344520+619901705+619367692
4290+618616566+620324640+623069220+624175078+623579115+623003378+623452216
4276+623817603+623836551+624471369+624104259+621463355+618964089+618553978
4263+620406943+623444049+624508947+622875840+621862110+623052696+625210628
4249+626865364+626044248+623254880+622752513+625191360+626432476+624382877
4236+621814770+621630513+622267053+621640721+620537032+620427295+622112017
4222+624636102+625541180+624348552+623550022+623857925+623548874+622394208
4209+622056128+623930402+625891127+625251907+623359705+621721366+620997419
4195+622069845+623856712+624537084+624074082+623283271+623072474+623881467
4182+624157852+623187443+622993552+624127929+625138406+626310425+628183041
4168+628964217+628363724+628165559+628485329+628863858+628888422+628229232
4155+627412902+625954736+624007665+623509636+624354039+625057251+625229449
4141+625075753+625694238+627614321+629135649+628971937+628473525+629567134
4128+631690742+632151574+630379254+629171825+630114927+631520585+631487472
4114+630703872+630276088+629513988+629173994+630224920+630838364+630173496
4101+629063874+628813711+630116203+630976875+631244455+633023922+634868082
4087+634855641+634675404+635253885+634465308+632274901+631649718+631903389
4074+630335103+629071530+630930811+633967471+634986177+634046073+633088297
4060+632604432+632186920+631998835+632397781+633704229+635120861+634483045
4047+631886418+631017070+633236251+634721596+632912781+629932138+628722157
4033+630346141+633549448+635279150+634028528+631988882+631388198+631889353
4020+632958973+634705326+636144288+635843532+634169528+633197460+633687832
4006+633216983+631237884+630789365+631717474+632174415+632926562+633678198
3993+633332462+632809296+633341905+635218859+637752131+638904372+637127394
3979+634502823+634483746+636647038+638046954+638334313+638206583+638209263
3966+639668195+640707891+638855501+637426875+638691533+639146751+637632951
3952+636370462+635330893+635266837+637183220+638168686+637040497+636442748
3939+637401035+639035227+639739013+637700325+635024649+634791521+634594760
3925+633672775+635839066+640258543+641632045+638872663+636518862+637374622
3912+639695182+640125455+637606410+633603679+629940496+629477175+632741157
3898+636547381+638916239+639151217+637328175+637809934+641132230+641515226
3885+639283731+638801781+638252775+638798399+641291860+641418249+639114851
3871+638367872+640092342+642497757+642612726+640286807+638841146+638988908
3858+639931692+638611973+631843034+631294539+637477022+641377863+641594020
3844+638720626+634361121+630800019+629608732+631305321+634121677+637361734
3831+640937319+643257497+644174951+644950641+643375911+638410810+636835697
3817+637829330+639144773+643187890+648090020+650349395+647959356+644670236
3804+643852439+642778544+642287279+643173790+644365396+647062254+649763067
3790+650553685+650901591+651387880+651088399+650650280+650099169+650065865
3777+651416335+652131031+650845893+648103673+646054330+645675608+645774563
3763+646316168+646290265+644256999+642111954+640828921+638028260+633425484
3750+633528458+638869792+643064882+644008623+645604790+648254945+647924648
3736+641514014+635658318+638673477+645476359+649742459+649387727+646841503
3723+646632620+649803453+654142286+655500476+652306419+646826063+643564378
3709+645862034+650732710+654769128+655894190+655377659+657185645+659581618
3696+658956689+656345708+654358506+652993426+652929816+655212607+657659046
3682+658206648+656516247+653443157+648653317+645504686+645213436+642641756
3669+641998836+646523584+649896665+649382687+647522321+646160494+643917005
3655+642300167+641446513+635363814+624549333+623693765+631053564+637165547
3642+638792466+637250019+636430626+636481986+634263379+629475580+622718443
3628+617366136+618403408+621275845+622325367+620191870+616677598+616138546
3615+617138112+616694441+614798539+612493801+611400128+612024801+612098938
3601+609714385+605638539+602421323+601271314+601338433+601459144+599543016
3588+594178778+591698970+595221920+599231541+599518517+597234067+595711208
3574+595767097+596118511+594465115+589067318+584357802+585041044+586717472
3561+587065633+587485825+588267192+588059266+586199602+584537784+584913762
3547+586041185+585766459+585276660+585997673+586517202+585946632+584880522
3534+584098324+583244288+581811961+581201516+581790014+582059189+582035072
3520+582725652+583459807+582713657+580294652+577134920+575143189+575383143
3507+576109068+576293963+576891138+578262471+579587612+580287124+580166668
3493+578973977+577613362+578518758+582016953+584190134+583030236+581477263
3480+581772341+583019582+583462742+582495459+581158450+580436800+580457216
3466+580964879+581875315+583200138+584007089+583070941+581277439+580457790
3453+580896229+582054276+582921456+583080639+583130850+582983662+583298327
3439+584857617+587146596+589533829+590162968+587968031+585500665+584362077
3426+583678005+583601062+583995988+583943097+584282453+585985933+588484753
3412+590638156+591685126+591442874+591063324+592351843+594016787+593980293
3399+594513349+597497373+600287954+600851123+600610020+601321781+602850319
3385+604357356+605969601+607490866+608847397+610625906+612032394+612991638
3372+615174963+618901245+621828551+622931985+625675927+630534672+633387076
3358+633835340+634792478+638204159+643601255+648882935+652365052+653443923
3345+654657285+658448644+662151703+663765734+665648621+669668196+674699777
3331+677415966+677823589+679636615+681939120+682497185+682752260+682967587
3318+683657784+686374738+689649694+691155264+690821586+690817439+692547077
3304+692856766+689365207+685830901+685092088+685561024+685433231+684041545
3291+682550586+682269097+681924573+680994613+680440568+678783918+675355776
3277+673999564+675746046+676320699+674237796+671533474+669740609+669384410
3264+668857288+666505848+664953704+666661075+667954125+666110603+664497401
3250+664646950+663985336+661862622+660821521+661300665+661205666+660509153
3237+660229897+660328023+660959841+662266927+662470707+659799816+656310235
3223+654621621+654333879+655029563+656960301+658488073+658742638+659420776
3210+660774628+661492514+661558611+661258301+660517830+660676247+661698718
3196+661235269+660586416+661304238+660986765+659468244+658784746+659538361
3183+662110998+665162460+665846787+665692772+667288747+667852235+666007883
3169+664853983+665238574+665574485+665490396+665163353+665094895+666520586
3156+668321362+668239825+666624454+665131006+665554388+667868058+670009274
3142+671519438+671931144+670574421+670557578+672957124+673792531+673077133
3129+673711312+674948983+675515725+675379127+674988476+675057827+674940051
3115+674636295+675728692+677010002+676522692+676116026+677410352+679113066
3102+679494211+678816329+678682794+678912859+679143754+679611413+678884851
3088+677303804+677247724+678262730+679156705+680650408+682538719+683776517
3075+684811110+686184867+687043944+686557400+684600950+682726867+683182915
3061+684266124+683470146+682633335+683120518+683877195+685241254+686905816
3047+686502404+685073522+685494799+686672050+687006812+687161784+687291172
3034+686781596+685849084+685967881+687778929+689712091+690264542+689635084
3020+688948524+689364058+690933110+692080758+691613034+690786304+691234824
3007+692252445+692400527+691309024+689898007+689747756+690988489+692937219
2993+694585957+694976801+696025812+698971429+701230549+701569842+701669435
2980+702558689+703663335+704466969+705217138+705848702+706297987+707051091
2966+708239571+709251004+709133292+707683803+705867332+705326684+707331686
2953+710234811+710678418+708619121+707115976+707774272+708929512+708907628
2939+708795594+709539447+710141088+710588842+712425920+714555270+714277800
2926+713190189+713516147+713421339+711742870+710061082+709488534+709666411
2912+710152955+710493396+710279281+710487462+711723602+713034388+714004733
2899+714920721+715686329+716230614+716401919+715303142+713138766+711757544
2885+712341320+714720003+716937398+717471666+717440914+717408630+717545738
2872+718683943+719796501+719207237+717058556+715500924+716109073+717429429
2858+718147379+719063749+720642945+721479819+719721216+716964131+716388648
2845+717722785+719418673+721322359+722838392+722931414+722481236+723214051
2831+724462249+724275185+722799665+722057344+722810511+724029425+725250060
2818+725914417+725490525+725666998+727236943+728771287+729708328+729884737
2804+728836555+727230052+726694764+727718894+729000395+729816215+730614490
2791+731318850+731822366+732836798+733952609+733676288+732652796+732736056
2777+733967985+735240491+735829563+735401396+734227016+734126849+736415828
2764+739028787+739658245+739204431+739001544+738936467+739072810+740122651
2750+741969427+743041216+742558244+741799972+741636579+741578137+741394519
2737+741225638+741116475+741389287+742134352+743018758+744035231+745075502
2723+745717082+746358982+747696054+748921794+748833430+748215711+748400669
2710+748875219+748700086+748389887+748714760+749168447+749173041+749795353
2696+751439307+752140669+751385906+751340161+752541337+752755644+751009864
2683+749511823+750399929+752678445+754005756+754659713+755779863+756393690
2669+755932346+754706543+753102401+752763428+754149562+755407522+755936621
2656+756421379+756790913+757318290+758252205+758636987+758274472+758562468
2642+760179626+761929552+761998074+760592991+760564089+762265974+762950428
2629+762403081+761372444+760281515+760772462+762208744+762423625+761446708
2615+760577359+760903764+762562647+764083146+764027640+763531972+764192883
2602+765165271+765369369+765128968+764790888+764722430+765144790+765226966
2588+764938714+765472662+767071381+768819713+769472714+769218276+769212534
2575+769301855+769470672+770163101+770850491+771251861+771449197+771147674
2561+771139189+772008091+772387259+772345151+772803304+772735803+772394405
2548+773388994+775306143+776262580+775221352+773777413+774247370+775350676
2534+774412358+772360718+771217536+771111946+772013259+773759039+775106383
2521+775466538+775472471+775267097+774904772+775177393+776366128+777553269
2507+778133345+778323918+777683550+776831555+777678701+779512717+780172608
2494+779990074+780703366+782069404+782348086+781761821+782162170+783336359
2480+783590860+783324237+783644644+784188546+784058839+783253929+783475572
2467+784986438+785548012+784857879+784401513+784181591+783878155+784397493
2453+785758490+786478546+786327146+786204968+785914228+785405800+785304421
2440+785481595+786206691+787411759+788000257+788519404+789667881+789958174
2426+788460771+786770689+786421380+787206767+788704809+790310290+790804363
2413+790167377+790012915+791084385+792233500+792160831+791029133+790296510
2399+790393487+790662024+790882966+790937005+791305646+792267761+793070247
2386+793652301+794264852+793926453+791536923+788534142+787196495+785883285
2372+781830853+777092946+774350216+771824856+768672206+768080007+769665711
2359+768958288+767526153+769932781+774727343+778939340+782141499+783960330
2345+783626716+781535009+778876305+776724816+776893250+779828786+782607755
2332+782416608+781209179+782576684+785867717+788253993+788801531+789190396
2318+791182000+793721397+795262695+796094912+796373402+796448879+798008998
2305+800644224+801863265+801862627+802104304+802246005+802105771+802247217
2291+802804389+803507856+803963840+804580028+805878054+806826133+806354964
2278+805086414+804678345+805737947+806658018+806159543+805540739+806462150
2264+807662943+807394916+807173273+808528719+810377729+811067670+810341362
2251+809060881+808247932+808771736+810145239+811386992+811998076+811707400
2237+811409323+811499856+811470316+811276617+810864911+810650541+811384440
2224+813179666+814896735+815306591+814962960+814596297+814478968+815120420
2210+815671021+815444911+815950277+817054859+816898419+816187041+816221302
2197+816691960+817045863+817254619+817930141+818524381+817975057+817296217
2183+817483026+817719854+817288242+817194965+818442333+819524713+819251518
2170+819241055+820171653+820420603+819583601+819392135+820572959+821756527
2156+822117192+822149986+822304894+822773255+823258907+823189172+822937287
2143+823295082+823659639+823173924+822705754+822936904+823203974+823466068
2129+824269191+825149578+824986758+823967605+823953314+825522365+826246950
2116+824620542+823299420+824430990+825907786+825680591+824996009+825259698
2102+825840986+826155141+826421892+826036344+824842441+824244500+824810221
2089+825511073+825681165+826045659+827345216+829296626+830884052+830870335
2075+829606825+828724524+828617722+828900870+828914778+828135644+827962935
2062+829480499+831196867+831570293+830651243+829667372+829681153+830237623
2048+830942940+831968154+832363527+831847060+831783579+832420119+832814726
2035+832616625+832279183+832529983+833323537+833673612+833146809+833091366
2021+834282909+834588578+833096662+832336922+833298527+834512974+835182946
2008+835659984+836402178+836942443+836615655+835898280+835703943+836493285
1994+837717047+837984372+836949843+835748922+835643779+836945888+838394228
1981+838974688+839103565+839547682+840456332+840880671+840156532+838856975
1967+838065017+839152628+841423488+842244858+841462151+840692267+840621193
1954+841657955+843051810+843823990+844118941+843112867+840729718+840085777
1940+842518372+844904073+845487403+845136435+844744954+845016043+846300799
1927+847614009+847412654+846063460+845174843+844582517+844478012+846111821
1913+848237662+847909726+845322415+844356471+845524854+846719970+847815301
1900+849000463+849807032+849930487+849841995+849737234+849178148+849417018
1886+850710706+850964824+849982484+849413765+849997924+850966037+851502409
1873+851573802+850506097+848031968+847120319+849137699+851904099+853868141
1859+854376441+853758276+853343507+853961609+855033908+855269715+854256879
1846+852150370+850567537+852051989+853914396+853872798+854087871+855651882
1832+856324342+854901968+853612555+854004228+855132033+856703509+858236195
1819+859110137+859255794+858778948+857854411+857139460+857750990+859136551
1805+859500534+858264203+856471083+855931074+857128103+858709022+858446929
1792+856400711+857014155+859585963+860598289+860023764+859439604+859446558
1778+860137584+860588464+858870119+855230031+855142816+858666275+861406900
1765+861990741+860414352+859319148+860486702+861712442+862267763+860853173
1751+855889731+851946590+854162900+858276708+860314568+860251213+858754257
1738+857109984+854578115+851366960+854068667+859711651+863343699+865333899
1724+865835947+864936676+862581663+857244093+852643103+855619599+861522571
1711+866003042+867644316+865175227+860727358+859503660+858872607+854764095
1697+853221712+856352988+860555096+862517543+861894976+861001574+857706521
1684+850370967+850717150+856198080+859322785+857892755+854839379+853653643
1670+852720110+853768548+857163130+858158613+856447158+856675820+858187897
1657+857697908+852740782+842074064+839288077+840458246+839496450+841593261
1643+845782035+847613052+846953799+843351482+838758594+840384748+844958559
1630+848156571+849290438+848830753+848524446+851151952+854841740+855116275
1616+853674761+856555619+861355987+865386535+869103630+872663392+875300851
1603+877095119+878951019+880891327+882447427+884039766+885756070+886914946
1589+887597614+888009448+888438827+889851694+892004076+892562907+889220577
1576+886249951+890699351+895040991+893592651+891624143+892578538+893285578
1562+893443293+890378880+883173990+885388769+891275153+895724233+898502564
1549+900438470+900964698+897361297+890119530+884680708+889929659+898679292
1535+900952066+899651807+902403852+905766725+904695638+902136846+899728751
1522+897870363+902103223+907943989+911268390+914575374+915953406+911682585
1508+902039550+899693915+910609903+919172473+922677621+921327087+918652369
1495+919545197+919595854+914359472+910291729+916517851+925044693+927359575
1481+924553937+922346113+922737977+923201362+919444455+915645313+918638078
1468+921887003+920581321+918240280+919688812+921215436+915572261+908473535
1454+913384980+920818085+924073901+924282976+925694567+928500460+931397907
1441+933732886+931649281+925668919+927206326+935172167+940820574+943466072
1427+944398073+942243458+938164294+935392598+932702057+931005277+932866089
1414+934143444+932196054+929838616+929690854+928989811+926782944+925750712
1400+923193514+917872341+915173378+916190745+917821428+917485964+912495789
1387+905681615+904430163+907087783+909233530+911134792+912749461+911918520
1373+910248599+910230289+909714013+908908146+909072752+907915661+905486895
1360+905797030+909088319+912242883+913260824+912364040+910747330+909880405
1346+910615198+912215768+911823967+908836625+908060106+910748478+911899762
1333+910326883+909190592+910190285+913217758+917255260+919908988+920353935
1319+920205726+921468789+924004422+926229919+928704495+931660510+934788150
1306+939352328+943488083+945007179+945938733+947152734+949151994+953153002
1292+957061116+959659784+962550340+965064791+966745494+969337272+972276189
1279+974459769+976359053+976692093+974843594+973581105+974163351+975341113
1265+976699622+976855678+975545147+976316498+978843773+979951482+980280438
1252+981480147+983541358+985873211+988177375+989207310+988651223+988743606
1238+989298673+989228939+990140970+992468932+994738707+995886418+995996985
1225+996504009+998062343+998740289+997424463+996335065+995576283+993155236
1211+992029919+994834535+997657335+998022977+998853791+1000223401+998599226
1198+995988436+996929050+1000241138+1001844195+999635796+995800223+994909310
1184+998637889+1003859724+1006581591+1006891280+1007137296+1008848687
1173+1010288606+1008507481+1005846416+1005376970+1006116995+1007948650
1161+1012122877+1015311128+1013951725+1012817348+1015301749+1017923513
1150+1019954673+1022716607+1024324577+1023434302+1021097344+1018943495
1138+1018476474+1019871349+1021486210+1021058426+1019414600+1019718993
1126+1021423175+1022941760+1024788345+1026253784+1025684235+1023463203
1115+1022870877+1024970241+1027687323+1032162051+1038790629+1040705290
1103+1035368996+1030265128+1028321247+1028018193+1029202144+1029378361
1092+1026855361+1024293251+1026876224+1034824520+1039836004+1037728985
1080+1034078243+1033816149+1035105945+1035194373+1036176266+1038631383
1069+1040031235+1040760732+1041868313+1042331634+1043106686+1045163366
1057+1045736169+1045455510+1048914020+1053618878+1052805865+1048639996
1045+1048017365+1053690654+1062756548+1066934667+1065021984+1063244942
1034+1060911111+1055941608+1049093428+1044109123+1047825325+1056890835
1022+1061045540+1059720271+1057696958+1058596867+1061834117+1061766424
1011+1058701756+1057481949+1056181818+1053365972+1055661906+1064186067
999+1068801221+1064674781+1057813777+1053531726+1052513849+1053927163
988+1056515496+1058105921+1057371574+1053555014+1048492744+1046661089
976+1047224832+1046432682+1044686201+1043442788+1043671833+1047842359
964+1054826180+1057288314+1053055582+1049068929+1049005383+1050060456
953+1052784046+1060141356+1064676057+1060272721+1055350686+1054141279
941+1054079392+1055447344+1057403538+1059105678+1060733554+1061323009
930+1062813777+1066073803+1066399123+1064408413+1065770240+1067137362
918+1063792353+1059953845+1057674564+1056780333+1059155698+1060336841
907+1056538081+1054680459+1058916764+1064144597+1065406703+1063758538
895+1061533105+1058404827+1058261467+1064836899+1072296226+1073741823
883+1067388609+1057914072+1052795594+1052282699+1053418927+1055694061
872+1058618240+1059963288+1057523675+1054623676+1056023401+1058737356
860+1056248043+1050489069+1046620384+1042778814+1036479001+1030542342
849+1029457666+1033186053+1035002205+1030365678+1024098404+1023138713
837+1026680164+1029216435+1030004566+1027690768+1018745841+1010589426
826+1010889354+1012728601+1009442353+1005887376+1006597924+1009066120
814+1008612624+1005470310+1003463267+1003989942+1003972141+998213486+988093541
800+980309723+975558099+972260111+973875099+982099270+987736448+981233494
787+968972331+961247210+958170994+953164996+946069078+943494016+944873771
773+945394896+944160926+942496428+941540119+940452444+939825219+939938975
760+937324931+932756543+930207959+929712801+931784858+934717650+930175484
746+920388387+918163911+922144311+918897172+909767542+905742544+906416536
733+907802032+911218498+915073211+913493952+906679395+902394090+903177563
719+903739137+901780455+901665422+905908235+910180779+910791097+909567909
706+908713681+909906053+913028079+912310703+903601009+892225656+885916784
692+886053253+888062339+889156968+889891059+890246812+890791096+892998155
679+895012536+892197201+886257607+882407169+879337269+874491921+873466962
665+877410550+878382746+877904113+876745874+872991200+871894466+871625099
652+867252962+863706406+861473125+857134037+854469782+859859987+874530521
638+886108250+889560635+905671662+920687549+904315641+878183432+846373787
625+813737539+818599921+871810312+914233594+895216188+876526910+876461259
611+869447771+863841855+868972009+875330965+876068565+874840911+881642644
##END=
