##TITLE=Sample description
##JCAMP-DX=4.24
##DATA TYPE=INFRARED SPECTRUM
##DATE=25/8/2023
##SAMPLING PROCEDURE=Instrument type and / or accessory
##ORIGIN=Default
##XUNITS=1/CM
##YUNITS=ABSORBANCE
##RESOLUTION=4
##FIRSTX=4397.6552
##LASTX=599.8556
##DELTAX=-1.9287962
##MAXY=1.8208983
##MINY=0.30666623
##XFACTOR=1
##YFACTOR=1.6958437e-009
##NPOINTS=1970
##FIRSTY=0.47478911
##XYDATA=(X++(Y..Y))
4398+279972214+280963356+281646395+281276959+280366182+280119605+280207720
4384+280042896+280043968+280002582+279558774+279238862+279165492+278939493
4371+278725375+278653814+278181836+277399366+277151365+277486004+277851432
4357+278048206+278182223+278214875+277804686+277004413+276463722+276424550
4344+276647789+277147024+277670124+277614169+277259092+277138975+276830995
4330+276273767+276255965+276978703+277854279+278065797+277443792+276682005
4317+276237407+276186883+276184633+275811332+275616667+276085025+276527831
4303+276379948+276083602+275996963+276006031+275837464+275320075+275024081
4290+275141579+274881962+274164110+273839171+274291379+274910133+275077241
4276+274885881+274806658+274976948+274884615+274491526+274479629+274805604
4263+274690021+274113427+273820490+273827467+273724819+273614789+273275792
4249+272473551+272008743+272390620+272982064+273091496+272680060+272442094
4236+272897271+273475026+273289517+272334859+271720147+272193003+272960730
4222+273172810+273018108+272820281+272640976+272542246+272658532+272844111
4209+272405505+271430900+271179719+271838629+272275547+272043398+271484272
4195+270972349+270869999+271175378+271469686+271527064+271306408+270552547
4182+269533323+269124803+269260965+269402469+269668025+270057987+270323298
4168+270386686+270292122+270167085+270163552+270242757+270197452+270034614
4155+269689553+269261756+269204254+269334405+269309873+269195960+268819864
4141+268239737+268026269+268246169+268394702+268213605+267819074+267660998
4128+267995128+268280789+268044545+267563622+267299173+267319382+267493081
4114+267818494+267957626+267619841+267306202+267242304+267087058+266914624
4101+266791414+266694970+266940036+267098656+266474665+265814349+265876561
4087+266066410+266069995+266315605+266409502+265760943+265144755+265053477
4074+265017398+265314095+265887193+265553520+264340984+263648649+263728293
4060+263782051+263757220+263894189+264110575+264333041+264538548+264539058
4047+264027521+263461875+263445918+263616419+263552011+263291762+263114759
4033+263202926+263334202+263080226+262331269+261724605+261779980+262118064
4020+262327965+262556828+262898303+262974889+262602765+262145883+261932485
4006+262008949+262184440+262181927+261967984+261629496+261411072+261567356
3993+261634206+261415940+261553086+261774989+261450385+261115886+261090668
3979+260730002+259909677+259399740+259549486+259767048+259710496+259755257
3966+260000867+260076118+259816747+259471458+259452338+259635544+259446082
3952+258929291+258336546+257688426+257222704+256964230+257084083+257803165
3939+258517046+258584388+257828436+256778844+256709410+257329359+257079918
3925+256387934+256561791+256808737+256175151+255760129+256852074+258502881
3912+259278059+258809947+256995124+253908173+251182099+250520272+251402948
3898+253405775+255152798+254833519+253213061+253192395+254093471+253912408
3885+253299981+252704969+252372228+253384353+254008976+252771574+250716535
3871+249496953+250162804+251101594+250558776+250489166+251983514+252549459
3858+250954484+247335048+244253404+247493968+252270177+254517894+254042753
3844+251626715+248887653+246692271+246010955+247646982+249440980+250607965
3831+251833909+252534486+252288559+250969914+247743620+244842424+245752199
3817+247913312+250872871+253919579+254858298+253451836+251140924+249677347
3804+248055185+246801457+248313695+250286892+251898914+253828968+255333211
3790+255885782+255365458+254231688+253738639+253817370+253542358+253900160
3777+255033842+254963758+253102733+251003462+250618281+251292163+251994059
3763+252229775+251083563+249600726+249531011+249187954+246166904+241438776
3750+240843571+243412343+245118595+246752936+248592713+248745956+246178239
3736+242170424+241898154+246458241+250543293+251548529+250590760+250139203
3723+251084442+252610335+254030082+254719588+253870601+251733001+252785545
3709+259819014+268313002+276357172+285698320+298315706+311669396+323025057
3696+331910623+336958505+337426916+334974254+332784952+331066345+328204461
3682+323867613+318342849+311660961+304030968+299354841+297158791+293154789
3669+290347138+290246967+289452300+287156730+283906167+280058554+276011514
3655+272922419+269761114+263844245+257592122+258733783+262934294+264610864
3642+263540905+261158256+258652170+256102378+252992687+248904788+243567185
3628+240619225+241962632+242626902+240651613+236480959+232860065+231444289
3615+230370446+229075472+227651313+226160128+225714335+225900388+224997063
3601+222933694+220894841+219256933+217848960+216747315+215273791+212397409
3588+209474843+209266699+210304253+210580987+209797620+208480608+207325837
3574+206503632+205490295+203084783+198722717+195621144+196677256+198604691
3561+199048217+198455596+197589843+196481801+195333655+194397660+193147587
3547+191691444+191115781+191436888+191778065+191702076+191228481+190639620
3534+190021060+188993769+187582351+186707724+186624354+186633826+186740569
3520+187115048+187302736+187185923+186823693+186029957+185154591+184724386
3507+184345426+183569123+183074756+183277821+183477318+183487880+183517211
3493+183395284+183121503+182926329+182692457+182285643+182060962+182456530
3480+183191569+183357764+182963638+182724406+182646010+182642073+182830622
3466+182909071+182530902+181873819+181462945+181517863+181933131+182431628
3453+182609105+182244608+181433509+180834016+181034779+181665852+182285168
3439+182880531+183443840+183773506+183702824+183605431+183924588+184365056
3426+184517297+184523571+184661226+185039308+185660645+186489440+187382397
3412+188028145+188463024+189081462+189849874+190609464+191640709+192898409
3399+193900288+194779520+195877352+197008240+198358922+200238311+202033557
3385+203405100+205001675+207112738+209456004+211767601+213913074+216177170
3372+219015329+222387485+225812607+229026546+232274526+235835335+239529002
3358+243163288+247054167+251398080+255920683+260274772+264282745+268306025
3345+272945037+277966488+282509090+286453112+290410421+294354882+297604180
3331+300326810+303349494+306476530+308807617+310456772+312346020+314530015
3318+316222577+317271027+318175196+319102597+320204577+321747868+323083613
3304+323516103+323152221+321999629+320461153+319034200+317083304+314186202
3291+311087670+308237033+305113616+301472161+297944056+295044775+292606242
3277+290219675+287680533+285347829+283707531+282358852+280709784+279006748
3264+277508815+275953275+274409615+273352993+272627725+271796874+271100830
3250+270701889+270017760+268612740+267003582+265941003+265427674+264971829
3237+264221641+263249110+262454250+261861979+260832931+259431917+258382905
3223+257539383+256861652+256751675+256614284+255903918+255307465+255232987
3210+255196715+255021470+254737285+254220072+253622776+253166544+252814050
3196+252321580+251671124+251187969+251065919+251110521+250840870+250248476
3183+249878654+249709648+249311866+248915613+248961446+249255876+249334747
3169+248986611+248610586+248722144+248998491+248891836+248489942+248356997
3156+248695994+248894437+248698419+248633625+248906053+249208901+249327700
3142+249348402+249394427+249402793+249261693+249066396+248954539+248896458
3129+248975610+249160222+249159080+249193858+249569321+249872222+249861415
3115+249764724+249699666+249713004+249745674+249735850+249731140+249622183
3102+249350001+249194315+249366731+249633342+249621427+249233100+248790769
3088+248787026+249159484+249322973+249097923+248794723+248679440+248805760
3075+248861961+248592502+248207075+247667930+246883491+246378650+246282662
3061+245979234+245472688+245388545+245684101+245791476+245564107+245351535
3047+245384064+245409071+245235056+244934510+244520490+244069319+243623438
3034+243168964+243003402+243143886+243038356+242744540+242815099+243195623
3020+243469545+243484817+243367319+243203356+243001012+242919136+243083397
3007+243357987+243541738+243644896+243805397+244093870+244570681+245247744
2993+245930203+246456185+246921837+247390370+247852244+248409894+249095375
2980+249683287+249981654+250109890+250140573+250091226+250044357+249814387
2966+249331461+248930305+248772809+248679545+248504862+248289057+248172226
2953+248221925+248284962+248317456+248488308+248704271+248820785+248983167
2939+249118168+248907846+248383076+247856655+247558340+247473635+247347684
2926+246951659+246381567+245877095+245338724+244726718+244339744+244074574
2912+243705859+243589504+243977075+244540067+244922964+245007968+244880049
2899+244795976+244887026+245059196+245129684+245077490+245043696+244981151
2885+244875216+244930064+245183442+245387965+245324436+245051288+244674911
2872+244323858+244291188+244558010+244810861+244957883+244937744+244774765
2858+244731867+244789931+244627725+243977057+242984703+242355159+242455874
2845+242891123+243311223+243714752+244054540+244234267+244357951+244590557
2831+244923052+245258763+245614192+245946371+246063307+246020146+246057683
2818+246249571+246520347+246772003+246979145+247142264+247297810+247545845
2804+247825479+248013149+248214509+248482280+248661637+248731194+248819696
2791+248984977+249178622+249354394+249503420+249558584+249479203+249404427
2777+249530905+249858585+250159202+250247844+250271428+250434600+250550288
2764+250478481+250453896+250549374+250702424+251061262+251544557+251714408
2750+251470308+251246313+251433228+251874838+252139499+252206156+252339383
2737+252554099+252701314+252801115+253022826+253352948+253529072+253506420
2723+253608084+253945640+254309347+254627941+254867577+254940666+254942001
2710+254996919+255190916+255600718+255977429+256033384+256013332+256176627
2696+256399111+256663139+256997919+257190474+257180369+257168507+257209173
2683+257244566+257309044+257443554+257655704+257818191+257756015+257668427
2669+257815871+257956057+257866923+257791443+257897360+258105838+258344595
2656+258441443+258357546+258364822+258521334+258667284+258763236+258815483
2642+258932489+259220646+259532088+259689566+259674769+259577305+259599606
2629+259792776+259946143+260017633+260146307+260337650+260505884+260638829
2615+260881031+261268496+261544000+261568990+261526286+261614049+261858131
2602+262202365+262597124+262967948+263250375+263402529+263360967+263247177
2588+263231255+263205580+263133580+263102949+263115391+263217214+263363216
2575+263475302+263575050+263632429+263617878+263519957+263365237+263260006
2561+263293220+263483544+263721809+263822084+263751122+263665432+263678876
2548+263794441+263945505+264019684+264061948+264181362+264259442+264272798
2534+264418889+264631795+264752948+264793086+264716254+264610249+264668875
2521+264908950+265173540+265341124+265515930+265689014+265727377+265787637
2507+266013618+266312214+266585802+266768955+266881726+267045337+267259860
2494+267402137+267464524+267570019+267725266+267808214+267887946+268079201
2480+268283548+268400326+268373948+268272494+268305814+268486507+268644900
2467+268697445+268730519+268813397+268825523+268765086+268869158+269160847
2453+269319644+269200933+269124347+269297870+269496453+269596781+269648448
2440+269641489+269711889+269921597+270038339+270018200+270038603+270115418
2426+270242353+270495450+270844904+271139967+271294423+271407457+271558820
2413+271723714+271928325+272184832+272440283+272635194+272766399+272875128
2399+272981221+273166817+273445888+273670832+273860558+274130350+274329760
2386+274209555+273703062+272808805+271469106+269703999+267643073+265377326
2372+262997436+260761178+259008179+257643262+256219771+255032752+254743664
2359+255225132+256360818+258452058+261523316+264761840+266510094+265816845
2345+263612746+262093056+261989266+262457395+263075745+263865333+264655220
2332+265244644+265926769+266986395+268085809+269015266+270121006+271503216
2318+272910785+274282012+275571187+276637386+277509061+278374761+279324253
2305+280185384+280768287+281233869+281841077+282496366+282995144+283339678
2291+283647499+284042592+284487753+284855044+285174007+285513093+285838365
2278+286093712+286279747+286400127+286488066+286631820+286798454+286978690
2264+287249818+287516816+287731286+287988618+288230345+288393956+288582839
2251+288839978+289061003+289200960+289395730+289685838+289917688+290097626
2237+290315839+290505828+290660952+290851399+291062705+291246702+291363884
2224+291485969+291688910+291878180+292069927+292273940+292341177+292402510
2210+292651618+292979122+293227843+293355815+293432208+293513856+293623692
2197+293837547+294128919+294369767+294557191+294797811+295114508+295336183
2183+295335058+295382085+295716443+296075475+296263866+296421678+296608592
2170+296774172+296860178+296911212+297083856+297301982+297455436+297675916
2156+297975513+298287096+298604372+298856485+299029656+299131127+299196396
2143+299401622+299765012+300056877+300212475+300421673+300715330+300900874
2129+301007406+301224793+301474516+301602382+301670779+301813197+302066118
2116+302386206+302744992+303059738+303248339+303414622+303662306+303939620
2102+304210994+304512348+304843930+305219621+305666627+306139396+306703970
2089+307509515+308451995+309391171+310440323+311492112+312142481+312419303
2075+312755594+313334016+314013874+314600732+315024610+315467433+316106520
2062+316765711+317275983+317726890+318202716+318712039+319175282+319463492
2048+319638632+319905261+320222994+320445302+320693021+321060277+321459166
2035+321781609+321976291+322137899+322317292+322465755+322563606+322616714
2021+322607013+322470184+322398026+322709222+323208773+323572268+323832430
2008+323993019+324088690+324321121+324620015+324888999+325288907+325630892
1994+325500705+325278925+325747441+326771814+327865569+328866675+329693625
1981+330389967+331067540+331799100+332630338+333567687+334386236+334884065
1967+335591163+337041734+338774822+340357865+341850122+343222069+344468926
1954+345660918+346786727+347808710+348515069+348574082+348194630+348484210
1940+349752261+350758252+350968821+350924078+351100589+351397831+351487809
1927+351056654+350019522+349266452+349254537+349206702+349397131+350089431
1913+350283234+349726884+349314745+349623586+350079203+350176140+350122399
1900+350064722+349829304+349555365+349560777+349503241+349411471+350032878
1886+351031348+351751591+352237188+352606624+352985513+353440252+353764136
1873+353321910+351751555+350455668+351415264+353431113+354794484+355474588
1859+355909960+356340939+356772163+357133514+357229819+356816027+355818577
1846+354534006+354510739+356259537+357540909+357740512+357833301+357752321
1832+356449861+354750093+354831670+355923773+356972293+358145551+358838730
1819+358998018+359207462+359228094+358527042+357847219+358272715+359212172
1805+359502631+358895107+358270571+358622011+359289672+358950253+357639919
1792+357779912+360395026+362435267+362866245+362605908+362364585+362720102
1778+363428992+363043951+361056185+359384289+360901606+364001369+366212392
1765+366777844+366371293+366532058+366979872+367226045+367544411+366672964
1751+364228738+362898546+364315939+366212357+367104154+367279821+367716599
1738+368013419+366663404+365162747+366924585+369922947+372418137+373640391
1724+373619057+372885458+370668706+366772713+365492009+369243898+372959831
1711+374502419+373786429+371609359+370080021+369390217+367822322+366303424
1697+367089568+370823707+374569269+375339280+374133757+371972643+368566008
1684+367168474+370631274+373453723+374134003+373582152+373035855+372225459
1670+371613084+373964978+376705885+376949141+376758114+378242252+379119498
1657+377213731+372529309+370595248+374216670+374511873+374072284+378594887
1643+383436699+385274350+384643312+382454573+383498734+390109133+395141269
1630+397656880+399690127+401772862+404092913+407843817+410882669+411799667
1616+413989426+418520148+421739447+423198560+424168279+425565145+426985069
1603+428107609+429312043+430423090+430873295+431071280+431721544+432616751
1589+433709591+435129866+436473871+437519474+438182250+437654370+435926871
1576+436603179+439924230+441152986+441429210+443792211+446601971+447991703
1562+447125423+443087398+442318301+450187085+456706979+461185999+464555308
1549+467742130+469438664+468491193+466408389+467267253+476994355+486043427
1535+490643179+496094378+503631054+508914038+512126975+515492347+518816842
1522+524143057+532672720+540967562+550517310+560115210+566086593+567864458
1508+568432723+579318567+595769735+605372872+611480170+617622756+627184841
1495+638156691+645177402+649180631+655945538+667666170+678734114+686909701
1481+693896529+700539686+705852158+709718382+715451148+727398271+740808724
1468+751752738+762190909+773771163+783448602+788489806+790952239+798921510
1454+810349645+818880503+825105966+830077930+835526212+841688902+847609567
1441+853375512+858778806+864611812+871067562+875485531+877618773+880044512
1427+882451763+881913515+880436055+878622655+872068703+865058537+863637876
1414+862364201+858685595+855060904+852010805+847209096+842200931+839961825
1400+837041139+831197940+826022753+823699926+823935063+824191358+821399523
1387+816840121+815828084+818622028+821842171+823532976+822728168+819685802
1373+818119841+819878621+821364305+820922150+819716169+817513828+815698882
1360+817057684+819491085+819954118+819312114+819770788+820556546+820773898
1346+821585945+822739767+822620195+822443403+825447108+829991959+832072690
1333+831913191+831818433+833110033+835303658+836924590+836956223+836433791
1319+837614324+840267257+842525764+844660763+847718032+851222518+854311490
1306+857423519+862114935+868550440+874607336+879524259+884017795+887796712
1292+891101911+894245151+896478493+897811285+899465959+901877217+904134670
1279+906168444+908238983+908987905+907975306+907873800+909948556+910953775
1265+908941159+906212379+905175387+906268193+907925959+908615483+909462115
1252+911732291+914014488+914896549+914864987+914908921+916079403+918377557
1238+920303077+921238281+921807178+922262479+922500849+921964639+920884275
1225+921163417+922445878+922436107+921379152+919790064+917113653+914501843
1211+912518541+909642844+905552801+901752936+899434396+897855290+895553270
1198+892388942+888967756+886243263+884663665+883634757+882663351+881535328
1184+880201410+878938842+878475879+878834173+878871640+878178461+876702618
1171+874651762+873894967+875473230+877623131+878861588+880065741+882350398
1157+884728196+885647513+886311098+888082672+889703322+890637683+891905594
1144+894004813+896799108+899951205+903299355+906453490+908514609+909757495
1130+911126068+912077651+912938553+915218922+918529815+922016024+924831830
1117+926031063+927311204+929981078+931699087+931146076+930733656+933108150
1103+937375969+939829123+939891826+940604265+943178186+946414988+949282180
1090+952552372+957170541+962004164+965973511+969402078+973522418+979343474
1076+984994839+988812137+992153890+994655969+994815047+995279978+999640024
1063+1005901900+1009616568+1011551788+1015251694+1019334356+1019493082
1051+1017690086+1018590354+1020136773+1019510585+1019589738+1022173429
1040+1024995562+1026623312+1028289514+1031053934+1033274974+1032918719
1028+1032304482+1035707251+1041673396+1043547249+1040839768+1039009427
1016+1038631522+1037490142+1036756966+1037909030+1038408616+1036461375
1005+1035106088+1036048181+1038018268+1039682080+1040042412+1039936688
993+1041048193+1042574015+1041904174+1038770214+1036186733+1036999272
982+1038870173+1037463430+1035945621+1037979606+1040856006+1043144178
970+1044968403+1045713319+1045782489+1045304342+1044956242+1046245170
959+1049084244+1052392747+1055094534+1054096416+1048574957+1044844824
947+1046384284+1048939717+1050972648+1054842386+1059098185+1061311352
935+1062202270+1062253234+1060723475+1058398117+1057870905+1059875647
924+1060358152+1057204016+1055388086+1056713428+1058758941+1063569859
912+1070703112+1073741823+1071581377+1069359564+1068630254+1065815924
901+1060766074+1057839694+1058795846+1060703863+1061042122+1062683158
889+1065808543+1064492973+1059052352+1055460068+1056087662+1058559444
878+1058080032+1053577569+1048298416+1043679193+1038201176+1030902238
866+1025774079+1025963102+1025003927+1017596805+1008316111+1000425992+994588908
853+992492993+992226716+990371420+986399262+980375545+973756992+969341765
839+966936693+963749378+957264456+948527212+942591223+939677356+934890690
826+929485076+927892966+928288726+927288218+926741815+928047193+927152408
812+922790535+920791064+924074402+926743854+924380747+921438832+921309490
799+922035988+920027661+912468491+903213946+898678163+897654457+896148739
785+894477265+893208441+891319545+888276475+884309589+880645674+877736868
772+874748629+871970853+869273002+865208406+861525722+860199537+858688969
758+856719585+855702838+853531708+851250144+850806653+849272605+846980989
745+847214368+848679808+849242168+848563540+846719492+846036436+848782649
731+852081311+851254080+849115004+850160220+851606047+852506947+855584743
718+858614597+858496431+855910349+851748465+846298706+841859086+841029746
704+842987532+844035559+841763766+839032385+839529933+840599682+837817828
691+832257988+827876713+826413734+826639310+827717917+829981415+831605932
677+829998567+825679151+821811592+818681568+813943968+812515855+816500666
664+816956599+812802448+809299649+807888688+806355695+806237670+808344200
650+808781716+806843402+804524933+801877484+799935515+799009027+797780412
637+800990502+812995407+821591217+816856991+809052843+802831387+796127003
623+794031862+795649279+793948914+786677039+776088015+770625322+776136237
609+784201672+784893937+782676974+786231791+795728150+799500530
##END=
