##TITLE=Sample description
##JCAMP-DX=4.24
##DATA TYPE=INFRARED SPECTRUM
##DATE=25/8/2023
##SAMPLING PROCEDURE=Instrument type and / or accessory
##ORIGIN=Default
##XUNITS=1/CM
##YUNITS=ABSORBANCE
##RESOLUTION=4
##FIRSTX=4397.6552
##LASTX=599.8556
##DELTAX=-1.9287962
##MAXY=1.8037894
##MINY=0.29748836
##XFACTOR=1
##YFACTOR=1.6799098e-009
##NPOINTS=1970
##FIRSTY=0.43412659
##XYDATA=(X++(Y..Y))
4398+258422562+258478746+258989226+259374779+259224837+258969056+259012591
4384+258889561+258347236+258161564+258645133+258840970+257942559+256742756
4371+256350249+256526252+256558929+256589212+257085998+257227478+256398982
4357+255849898+255915520+255631921+255215092+255298507+255358470+254777843
4344+254213645+254529548+255355472+255596884+254973822+254445991+254627617
4330+255072086+255294675+254996760+254142328+253495139+253643130+254074524
4317+254370115+254596448+254503346+254066381+253910532+254469018+255151404
4303+255010829+254339318+253945853+253810476+253727025+253494252+252965463
4290+252596924+252725010+252843303+252561319+252497737+252998336+253301946
4276+252957161+252374068+251970296+251778575+251685243+251706567+251931161
4263+252202625+252068454+251467869+251045363+251134243+251184785+250805868
4249+250390848+250343197+250675777+251194986+251534414+251467444+251141162
4236+250780126+250421911+249953937+249510177+249464975+249632374+249575870
4222+249451811+249327061+248980643+248749024+248920379+249153737+249384185
4209+249572109+249397331+249159538+249010288+248650458+248645686+249332276
4195+249697073+249353742+249097358+249027318+248780318+248443286+247933639
4182+247422466+247334775+247333072+247277952+247399581+247180167+246262366
4168+245201169+244755636+245080374+245693643+246257008+246631278+246802172
4155+246849166+246596933+246035679+245505027+245282917+245300693+245192015
4141+244887145+244755849+244807260+244596699+244356228+244499074+244438809
4128+243920398+243583082+243476107+243178440+242937845+243132901+243417848
4114+243486485+243481979+243388150+243058941+242605833+242425714+242521636
4101+242390127+242095015+242101987+242251609+242059516+241583256+241321124
4087+241342803+241180584+240790366+240748179+241114448+241328663+241285678
4074+241173364+241078648+241203363+241302035+240854462+240238798+240034872
4060+240025380+240004873+239944218+239717141+239559925+239648201+239603478
4047+239220976+238972025+239176040+239419225+239328661+238999877+238727313
4033+238557963+238157420+237586657+237375936+237522614+237479629+237091646
4020+236672333+236470979+236482457+236413819+236174341+236071855+236175068
4006+236258466+236100559+235766329+235533894+235344994+235103209+235013035
3993+235199469+235554366+235883327+235993832+235770782+235435718+235270661
3979+235088556+234629788+234086470+233903850+234018488+233976355+233861060
3966+233666376+233127067+232827520+233126287+233459629+233497044+233015924
3952+231903457+230792444+230755864+231260100+230777560+230272898+231255062
3939+232377694+231997463+229994906+227873771+227963733+229630038+230120490
3925+229409152+229324388+229415237+228538328+227938701+228960497+230462401
3912+231294126+230988299+228601874+224216244+220698122+220458679+222465069
3898+225483975+227513037+226982989+225350514+225434959+225530491+223800888
3885+222452579+222150194+222494287+224437556+225161774+223148324+220397421
3871+218645714+219186176+220254877+219486699+219953680+222937248+224295828
3858+222171305+216771632+211581492+215366910+222072810+225326547+224712373
3844+221535807+217661687+214400588+214015585+217080564+219669035+220843380
3831+221640831+221597739+221060789+220195269+217127257+214023338+215319809
3817+217998152+221282651+224665148+225629482+223526798+220418284+218856488
3804+216921592+215185673+217034084+219533551+221774008+224348446+226009358
3790+226498302+226005402+224828573+224080512+223613194+222630427+222923020
3777+224863681+225626076+224018971+221483686+220578445+221195688+222024219
3763+222057358+220055918+217671161+217537487+217076661+213050559+207831928
3750+208537624+211779404+213217355+214963936+216856236+216397433+212735223
3736+207943143+208520576+214759566+219854139+221052842+219681932+218579861
3723+219142889+221083231+223608847+225015735+223993921+221555712+223708655
3709+233739059+246283371+258644033+271989148+288060789+303499913+315041270
3696+322922953+326630738+326048568+324559720+326647201+330198480+331413203
3682+328278930+320295417+309323955+298333261+293144611+291888660+288776172
3669+286751812+286615654+284399750+279787947+274165544+267977451+261485252
3655+256622600+252003187+243363988+234015668+234750228+239644405+241734848
3642+241399998+240139097+238102584+235079615+231501388+227405583+222345480
3628+220462227+223101578+224301203+222321815+218203711+215174923+214386023
3615+213522295+212804925+212541675+212080353+212743260+214158644+214028802
3601+212333065+210623030+209213624+208110577+208118400+208111073+205957740
3588+203409842+204282476+206294897+206835803+206301869+205553808+204825102
3574+204166897+202975396+199741777+194474218+191994354+194681497+197594493
3561+198541389+198595923+198473443+197736381+196641797+196035180+195251461
3547+193944843+193713543+195229410+196794932+196987540+196459230+196423642
3534+196487543+195657682+194166084+193242943+193206185+193527020+194265271
3520+195322707+196170149+196574915+196333929+195369311+194407655+194227696
3507+194195285+193541461+193268347+194128261+194963091+195188465+195268918
3493+195190842+194763440+194436821+194538775+194652065+194631593+195162475
3480+196268183+196841696+196621076+196440709+196849253+197655059+198339006
3466+198625425+198479084+198140863+198045313+198180300+198434680+198898220
3453+199264506+198918639+198105488+198076784+198924600+199508952+199814584
3439+200372875+201016587+201455006+201673178+201932312+202484696+203207370
3426+203687018+203473920+202905676+203087463+204172574+205382329+206417625
3412+207376442+208279838+209105283+209874738+210673714+211505031+212292741
3399+213199863+214319674+215242425+215947022+217059222+218791079+220929936
3385+223269863+225488677+227396358+229297050+231484445+233765031+236034972
3372+238599706+241665927+245010033+248202069+251261868+254731860+258703127
3358+262686314+266625719+270797647+274987724+279018669+283270288+287753188
3345+292124519+296776361+302092529+307256166+311335542+314626073+317633217
3331+320193268+322661884+325671584+328633313+330761810+332314275+333751427
3318+335163353+336454111+337535568+338360533+339166197+340288457+341280005
3304+341528797+341332020+341087202+340277103+338374655+335687689+332596100
3291+329379547+326305201+323138179+319423262+315373725+311657744+308397443
3277+305409280+302776884+300711863+299160781+297702908+296076129+294304037
3264+292630068+291208421+289679373+287947392+286660626+286152416+285727923
3250+284819116+283638668+282305386+280984894+280096897+279764317+279528511
3237+278570404+276941070+275603264+274799693+273926864+273001984+272504632
3223+272069157+271334331+270462264+269312897+268143289+267494858+267223749
3210+267082393+266959416+266616902+266032816+265415467+264829944+264217633
3196+263700695+263499039+263393040+262863382+262087877+261635496+261409234
3183+261055046+260573394+260157664+259847438+259567511+259435948+259370309
3169+259103156+258698248+258239090+257792688+257656104+257951606+258333664
3156+258303417+257775444+257307664+257395781+257538556+257067867+256356582
3142+256001667+256001561+256057709+255938316+255666533+255454499+255422584
3129+255361841+255041200+254537478+254129253+254029871+254123718+254234862
3115+254182102+253758656+253242516+253054804+253021452+252743087+252309227
3102+251936997+251591573+251321475+251187500+251144479+251028350+250706326
3088+250357496+250109325+249818630+249265289+248418733+247641471+247183023
3075+246841360+246515220+246273862+245916232+245295211+244551088+243818852
3061+243220272+242833691+242582256+242275594+241740046+241027307+240463959
3047+240229165+240181071+240155418+239842743+239091187+238275819+237645732
3034+237102857+236655036+236408816+236211490+235891062+235631165+235540209
3020+235394951+235098331+234748365+234268788+233724370+233389998+233154388
3007+232917003+232859896+232888654+232788030+232661150+232733354+233037088
2993+233484218+233965037+234339147+234514316+234494500+234505375+234867865
2980+235410775+235624973+235505367+235373432+235232945+234857575+234157325
2966+233396828+232858282+232491286+232163372+231756069+231292725+231020285
2953+230851839+230508598+230256329+230337119+230411362+230225265+229787981
2939+229108505+228288188+227569079+227215991+227185371+227125657+226742712
2926+226010600+225261493+224680103+223981680+223121234+222340761+221630115
2912+221085821+220959651+221111066+221246301+221324164+221389803+221349231
2899+221115732+220781928+220400047+220023985+219808262+219655055+219424927
2885+219249137+219115516+218842224+218499195+218323015+218279196+218090598
2872+217663213+217084130+216506697+216134094+215938666+215734544+215509560
2858+215307036+215036530+214610245+214062615+213413511+212720800+212213016
2845+212002330+212013063+212180232+212359942+212434878+212476160+212519588
2831+212512208+212483415+212496437+212535838+212582957+212619556+212575329
2818+212491807+212460246+212444724+212446267+212525709+212645510+212695343
2804+212603110+212427001+212295083+212161604+211928140+211746531+211706101
2791+211681477+211615358+211475333+211320069+211267699+211174118+210983409
2777+210971310+211085878+211010392+210831710+210697398+210531099+210318231
2764+210091207+209976249+210070469+210232332+210331200+210306115+210141980
2750+209945221+209750342+209562773+209465662+209409442+209296968+209249087
2737+209437277+209688464+209735636+209689191+209661339+209589738+209579751
2723+209713886+209839240+209851960+209836401+209840783+209867926+209879511
2710+209760898+209615427+209586989+209636520+209778337+209939739+209981642
2696+209939580+209849476+209684047+209484236+209307080+209172998+209074822
2683+208936057+208705147+208460099+208313864+208274037+208191828+207978801
2669+207764638+207640154+207521790+207397074+207382900+207443412+207399327
2656+207212166+206961866+206766171+206738142+206748679+206632639+206530845
2642+206508563+206418512+206250847+206111142+206088895+206140537+206053521
2629+205762063+205480398+205376191+205377876+205404930+205476939+205608183
2615+205795007+205919367+205852078+205704158+205632984+205659044+205744411
2602+205822469+205860327+205867264+205832138+205714270+205514389+205395705
2588+205463155+205465816+205234747+205043292+205033357+205011714+204908713
2575+204771916+204583868+204352746+204192656+204141847+204032531+203800291
2561+203580487+203491732+203541334+203591326+203545591+203456552+203325291
2548+203123068+202941760+202848073+202767780+202650445+202586260+202695985
2534+202879030+202909100+202818553+202716333+202591884+202578206+202699799
2521+202721495+202684382+202757384+202806046+202720892+202627577+202616543
2507+202626815+202680976+202843283+202979441+203051112+203171002+203288036
2494+203343102+203352398+203314664+203294369+203273577+203111022+202894819
2480+202884140+203071443+203200859+203144853+202993687+202868244+202822722
2467+202831752+202838830+202799464+202676346+202535966+202486878+202461261
2453+202332075+202185858+202184971+202278463+202309385+202226661+202101343
2440+202084064+202226857+202368070+202381571+202301029+202180111+202112218
2426+202121319+202081137+201987893+201969461+202098416+202338941+202486789
2413+202401547+202283129+202369188+202625555+202902394+203086026+203150459
2399+203178471+203241609+203313387+203349223+203375425+203439167+203448640
2386+203118615+202230547+200728926+198609530+196053613+193305886+190468588
2372+187632443+184881115+182362630+180204614+178419944+177269122+177085917
2359+177725796+178925298+181000236+184481689+188464310+190544446+189551603
2345+186930011+185252884+185001253+185286999+185849902+186575930+187158224
2332+187583071+188299377+189345424+190271421+191118083+192316981+193881669
2318+195497503+196923816+197994770+198811167+199736047+200846864+201869227
2305+202639144+203189435+203625760+204111387+204701824+205230524+205557143
2291+205807674+206164398+206570317+206887906+207053371+207008648+206821930
2278+206672786+206669380+206785420+206865571+206873643+206938963+207056050
2264+207154634+207288379+207463033+207529755+207428191+207327869+207374952
2251+207500838+207579020+207636925+207772196+207903138+207906030+207890187
2237+207953734+207975164+207938282+207988735+208094291+208119394+208062057
2224+207994785+207969381+207987884+208054109+208140221+208178576+208216416
2210+208284344+208308684+208299246+208316029+208353390+208347802+208272618
2197+208214376+208253387+208360947+208433648+208398468+208342959+208363218
2183+208391692+208397581+208448496+208548464+208636563+208684728+208713663
2170+208712705+208662446+208597197+208581905+208664043+208814162+208952750
2156+209029088+209061215+209101557+209185452+209325867+209449678+209458956
2143+209417408+209430376+209458690+209460641+209495874+209586013+209671291
2129+209716068+209705317+209670440+209717221+209812469+209830050+209836437
2116+209942329+210055052+210090888+210195272+210458079+210710987+210824029
2102+210887238+210962298+210992687+211070568+211312068+211555893+211683659
2089+211883487+212238775+212575133+212833842+213070145+213314324+213589176
2075+213851132+214103436+214418346+214706540+214784527+214825117+215185957
2062+215726756+216139399+216401549+216590059+216869914+217306914+217722785
2048+217996272+218162571+218294684+218583533+219203118+219878195+220251968
2035+220453055+220711214+220996321+221209685+221341762+221405184+221407278
2021+221307807+221014026+220819466+221133153+221581152+221658252+221530467
2008+221543613+221723430+221927356+222152323+222399039+222583167+222514032
1994+221970785+221521579+221950578+222817890+223565454+224226871+224774571
1981+225170218+225566327+226140123+226840764+227495173+227856137+227910263
1967+228401691+229749112+231150145+232059413+232665177+233076489+233426685
1954+233916020+234404928+234603302+234364746+233616703+232636775+232667519
1940+234132737+235465469+235953561+236170633+236515614+236987420+237464674
1927+237511331+236800525+236308441+236698092+237376149+238728768+240513934
1913+241353252+241250836+241291550+242064590+242996548+243523137+243761551
1900+243778262+243324391+242675002+242432739+242032728+241312112+241485968
1886+242263584+242685576+242868018+242949128+242976519+242953368+242687439
1873+241524358+238884990+236666514+237927521+240742733+242229115+242507125
1859+242611687+242947939+243289017+243371953+243075014+242167271+240507938
1846+238678704+238897923+241513590+243357849+243747003+243924621+243752450
1832+242059658+240021868+240168439+241393469+242749016+244652848+246029416
1819+246443815+246556307+246372676+245412777+244623274+245323808+246525811
1805+246707207+245614361+244361887+244449826+245128646+244520912+242793934
1792+243195187+246694647+249179868+249514222+249017951+248356180+248170828
1778+248579798+247771580+244889292+242591693+244421299+248084095+250822827
1765+251521286+250610953+250362144+250746206+250963012+251222431+249799098
1751+246317982+244345778+245872147+248042813+249090634+249397685+249971695
1738+249993640+247651495+245602901+248414067+252495200+255734017+257351909
1724+257224958+256096135+253036301+247753715+245994113+251017529+256026042
1711+258137367+257375326+254877704+253090214+251995683+249635460+247710890
1697+249235414+254859982+260335796+261515446+260047975+257332944+253017815
1684+251917252+257332004+261668085+263073393+262746029+262591527+262044732
1670+261674826+265625975+270214785+271487218+272522638+275801070+277825182
1657+275821542+270193905+268737362+273999139+274207997+273795993+280144761
1643+286397872+288150236+286149222+281917438+282031651+289299373+294245547
1630+295627863+296262456+297163298+298499631+301819753+304577573+304706582
1616+306490701+311358143+314255794+314739505+314913716+315855023+316741512
1603+317274116+317977133+318534822+318350676+317983626+318302919+319026693
1589+319828312+320722146+321502618+322159227+322371332+320912501+317826162
1576+317906136+321713020+322825877+322500446+324984674+328308096+329823199
1562+328192854+322061584+320154523+329955153+338017114+343415527+347384097
1549+351163518+352970061+351013363+347197184+347668937+361729612+374621086
1535+380192291+386477264+395900023+402643231+406838417+411267493+415400694
1522+422168030+433568775+444559007+456566582+468732757+476989188+480010632
1508+481169224+496822635+520140870+533652797+542582833+551370343+564237867
1495+579309037+589485125+596043691+606183696+621538819+635849314+647503358
1481+658298268+667945514+675003367+679936413+686748171+701616496+718305558
1468+730158578+740155594+752183677+762271525+766713728+769871170+782034080
1454+798168576+811156487+820658191+825852802+831211121+839270528+846299641
1441+850729994+853174058+856356975+862792494+868635482+871854731+874671770
1427+877762436+877928132+874605633+868880300+859651302+852583018+852193012
1414+851797330+848151671+842679955+836457179+829544798+823772630+820063531
1400+815396237+809640958+805584431+803556629+803627874+803145122+798755429
1387+793122843+792520591+795892053+798333136+798156796+796346421+793825506
1373+792345315+792633775+793527254+794513834+793851691+791055302+790926365
1360+794940385+798885857+801422100+802618373+802816356+803468210+805022698
1346+806416954+807048655+806851949+806448319+808742937+814625806+820970422
1333+825644813+827924529+828436234+829013933+830295005+831261291+831058766
1319+830401164+830793299+832777601+835540851+837517418+838436373+840434229
1306+844916029+850038188+853056049+853831376+855369401+859838073+865555246
1292+870171448+872703646+873234085+874126784+876290477+876875770+875031404
1279+872927885+871409801+869702178+867638966+866208023+865589876+865138843
1265+864425678+862743459+860287687+857721569+855540277+854821292+855011683
1252+854573423+854250618+855151051+856226334+856333061+855713494+855108545
1238+854847406+854561289+854202648+854016515+853489838+852092814+850108724
1225+848275570+846879895+844913475+841553083+837990023+835155387+832298610
1211+828929063+825467054+822792648+821051461+819333193+817508058+815992103
1198+814386239+812494825+810555370+808290485+805999699+804708976+804969335
1184+806435546+807724281+808026082+808093282+809009469+811244125+813775258
1171+814833936+814962661+816509556+819654721+823193795+826784458+829707584
1157+831785202+834280854+838010957+842143271+844486640+844821579+846146222
1144+849513356+852844583+855426454+857981360+860524628+862967485+865654096
1130+869200905+874286306+879979706+882987774+882206414+880853103+882053988
1117+886424095+892002822+895926721+897639595+898993900+901154826+902988335
1103+904567304+908142924+912073706+913769337+916674084+922151548+926321046
1090+930081166+937250215+945810683+950642183+951478183+953054881+957775610
1076+962870945+967077698+972120522+976833232+980018206+983861280+989534741
1063+995002909+998174827+998782544+997916314+998940008+1003515194+1008484856
1049+1010366690+1009897775+1009941416+1009836109+1009281188+1011183743
1038+1015235303+1018898418+1021534504+1022569055+1022270306+1024018164
1026+1028187875+1030678702+1030613346+1031286134+1035275532+1040032451
1015+1041168619+1039836880+1039498038+1040163233+1039692970+1037931913
1003+1036865500+1037472010+1037723995+1035153477+1031997597+1032726728
991+1036803408+1038496697+1035465070+1032443520+1033294848+1035931502
980+1036271905+1034050023+1033055565+1035847057+1040073892+1041932167
968+1041852619+1042946636+1045648858+1049114203+1053263547+1054971241
957+1051454236+1046339599+1048662744+1061256889+1069163940+1064384668
945+1059984261+1059861001+1058116691+1055363731+1054870050+1055929650
934+1056904664+1059317718+1062918386+1063777733+1061158465+1059979365
922+1062067342+1063952299+1064358696+1065570510+1069964602+1073741823
910+1072328336+1069117744+1067460079+1068365976+1070469565+1069466379
899+1065732161+1064153404+1065314409+1064531701+1061396896+1059531312
887+1058561479+1057629467+1058020183+1058668844+1056663394+1051118091
876+1044512832+1039235834+1033984312+1028945462+1025983165+1022839419
864+1017405312+1011206167+1006710529+1005425341+1005858917+1003970271+999057165
851+993735675+986745094+978256795+972380029+968155394+963243281+958579606
837+953481290+946867445+940554832+936548901+934037282+931914675+930352097
824+927576785+924620874+925281031+925678842+921985356+918814857+918012422
810+916303167+913416515+911659290+910842024+909663278+907984111+905806367
797+903729246+901793907+899166124+896237108+893307453+890397952+889012992
783+888414217+886210146+884270762+883505581+880637876+875898982+872463583
770+870439896+867754705+863603231+859382641+856930630+855741666+854279854
756+852842312+851565569+849951331+849052104+849216665+849002644+848859585
743+848789475+847031398+845375223+845300003+845731025+846522319+846966823
729+848676575+853633677+856356052+852177542+846483219+844429800+844713930
716+845735495+847460362+850159817+852612680+851031156+845324059+840491353
702+837358535+832526822+828364776+827793747+826820081+824894322+824396596
689+821916058+816337260+812546627+813889649+818877974+823728350+828097747
675+830531592+825890695+815674265+805832868+804555060+810979083+813262773
662+810352065+807771968+806075912+803126104+800828292+800690556+802568203
648+805211740+803984599+800788341+799824823+796646305+792270096+791224830
635+789779907+786267657+784261995+784813864+787211377+791027769+792548195
621+788193558+780100231+772779678+769723144+767830311+764933299+767160078
608+774379014+782436362+791998454+798437308+796172139
##END=
