##TITLE=Sample description
##JCAMP-DX=4.24
##DATA TYPE=INFRARED SPECTRUM
##DATE=25/8/2023
##SAMPLING PROCEDURE=Instrument type and / or accessory
##ORIGIN=Default
##XUNITS=1/CM
##YUNITS=ABSORBANCE
##RESOLUTION=4
##FIRSTX=4397.6552
##LASTX=599.8556
##DELTAX=-1.9287962
##MAXY=1.8087655
##MINY=0.092358559
##XFACTOR=1
##YFACTOR=1.6845442e-009
##NPOINTS=1970
##FIRSTY=0.093293339
##XYDATA=(X++(Y..Y))
4398+55381949+55406522+55537056+55589533+55674767+55942012+56166727+56086854
4382+55913569+55991708+56194644+56363051+56555067+56638536+56573077+56748242
4367+57334874+58015546+58508373+58648840+58531261+58641759+59041169+59127668
4351+58750509+58311138+57921860+57535510+57160439+56873901+56758335+56662769
4336+56558955+56588597+56729073+56884879+57037995+57307253+57585073+57499013
4321+57175822+57098722+57278792+57406132+57433412+57522812+57632359+57707526
4305+57827228+57812092+57630112+57613951+57816613+57994144+58013485+58032212
4290+58319099+58822815+59160875+59241129+59404458+59736888+59907006+59801759
4274+59789162+59899328+59848155+59850035+59931881+59838871+59733460+59724062
4259+59669107+59699404+60117183+60644066+60795192+60732484+60737597+60849298
4243+61119157+61428380+61548395+61472202+61281791+61102584+61126791+61394739
4228+61837817+62231615+62389725+62470615+62590945+62709780+62834612+62949444
4212+63006437+63080180+63206782+63282197+63482700+63952249+64393354+64643218
4197+64724860+64546104+64242175+64239274+64656606+65117654+65277263+65131144
4182+64903103+64859308+65006502+65172675+65309927+65327154+65203463+65138287
4166+65125014+65004344+64919689+65101510+65392949+65622555+65857403+65905515
4151+65620273+65343527+65379127+65581033+65605549+65456073+65497515+65714003
4135+65669496+65439712+65510373+65864165+66186524+66366400+66401827+66413057
4120+66469767+66517818+66678537+66879948+66828346+66661182+66577576+66546080
4104+66721612+67125516+67434823+67616950+67829771+67860298+67673324+67642297
4089+67796409+67935408+68065618+68215793+68380564+68452215+68331444+68222463
4074+68289802+68446183+68605283+68692968+68662737+68643745+68783102+68990063
4058+69187280+69384768+69461328+69424392+69367894+69159425+68803611+68791028
4043+69277309+69629509+69609801+69560025+69577819+69574700+69552338+69504221
4027+69317539+69160230+69287685+69452916+69559362+69807513+70036748+70067461
4012+69997070+69820990+69638669+69708378+69823670+69798088+69819663+69880491
3996+70034776+70331323+70438290+70372588+70546921+70775342+70743577+70788443
3981+70923302+70706801+70334653+70376140+70750632+70915774+70895845+71067214
3966+71222374+70885265+70394150+70386153+70740238+71059806+70830872+69707573
3950+68366960+68123673+68651927+68522084+68592112+69984049+71307648+71194523
3935+69380300+67148860+67062861+68741553+69240200+68417611+68353297+68534291
3919+67625181+67320929+69350074+71848220+73064931+72718029+69897639+64594964
3904+60174406+59780268+62518241+66721470+69524584+68888150+66901142+67500800
3888+68497692+67018079+65214900+64364734+64719840+67529013+68938098+66759056
3873+63387993+61356583+62630910+64765710+64407658+64817710+67858339+69266172
3858+66824962+60694443+54827033+59156121+67101832+71511208+71614854+68496847
3842+64084658+59818911+58613094+62024826+65822767+68441012+70601014+71390697
3827+70802358+69141322+65023508+61481932+63120712+66066929+70198206+74988399
3811+76850947+74917500+71492167+69624056+67627255+66092126+68466342+71779780
3796+75292129+79059198+81171383+81671357+81140414+79921240+79337797+79196051
3780+78496180+79314178+82034664+83352221+81861436+79273505+78608026+79758733
3765+81387292+82324921+80787510+78552421+78690168+78422742+74278718+68483118
3750+68807945+72177461+73838183+76682063+80309854+81052035+77657482+72506981
3734+73628320+81498882+87909627+89726495+88819959+88589570+90490172+93717628
3719+97043521+98802829+97330338+92843255+91397991+97198907+103661551+106737470
3703+107201565+108708838+112497447+115801357+117339627+116468190+113374863
3690+112813631+119744042+128235924+133800621+136448624+136505812+134491948
3676+133686333+139725785+146530851+152005922+162026582+172986366+181065370
3663+187386357+192622016+196390049+200344746+206329274+210391661+210092495
3649+212176374+225877546+241711497+253217846+262066241+270292528+277861075
3636+284123468+289342179+293025628+295923445+304747709+318320440+328847275
3622+334834580+338205542+343698898+351764686+359361399+366657283+373949240
3609+381673049+391080287+399605775+405240133+409834612+415462247+421443997
3595+426826462+432886444+438835076+442205649+444480898+450325326+458208891
3582+464498546+468812118+472104494+475363892+478457698+480419026+480677713
3568+479838989+482105286+488666685+495159511+499924537+503793448+507011590
3555+508617423+509105818+509462587+509385169+509006603+510490011+514585339
3541+518367596+519946078+520755965+522898951+525081284+525245215+524286258
3528+524132447+525296520+527094485+529443968+531979284+533865600+534989301
3514+535306972+534677964+533641341+533362592+533963328+533756973+532331878
3501+532793311+535504623+537507775+538262181+537849683+536351662+535403604
3487+535531903+535677470+535630906+536143538+537046872+537770354+538362422
3474+538943025+539078862+538506254+538220712+538533323+537960114+536216640
3460+535488063+536466870+537387365+537418290+537055966+536710555+536123653
3447+535413688+535394970+535863727+535932194+535329936+534719150+534690136
3433+534716001+534396242+534344052+534458835+534031335+533343485+533256336
3420+534063852+534667314+534410608+534377419+535190030+536243673+536840623
3406+536608863+535918430+535881384+536754324+537863695+539266216+540793817
3393+540987752+539884857+539574298+540564463+541863028+542749732+543248848
3379+544055622+545081417+546484646+549226600+552303811+553601810+553358762
3366+553198370+554035290+556207432+558848013+560956501+562576806+564202348
3352+566403080+568612870+570630281+573239159+575547031+576515223+577236970
3339+578753320+580883073+583600718+586456005+588387930+589755104+591979648
3325+594827292+596636438+597256635+597366182+596995082+596618322+596493065
3312+596440627+597103214+598742803+600135700+599861621+598141641+597377929
3298+598888511+600631702+600311837+598224226+596634456+596769691+597116305
3285+596481176+596092880+596740394+597098260+596686399+597012703+597891269
3271+597523213+596556472+596380475+596038390+594259674+592000029+591458206
3258+592602358+592820425+591460258+590471685+590655537+591485663+591656246
3244+590367552+589432196+589231538+587735711+585204783+583587096+583442166
3231+583239066+581603971+579567488+578793727+579636202+580792951+580549126
3217+579041587+577090130+575143662+574269767+574171012+573752287+573613690
3204+573676991+573393571+573439888+573100492+571444450+569666477+568343072
3190+567450813+567279134+566910617+565788543+564484954+563120823+561868363
3177+560969097+559844052+558155740+556424614+554865735+553585993+552818318
3163+552386537+551965476+550840572+548632232+546439250+545046353+543472046
3150+541462596+540209746+539869642+539604550+538337759+536109216+534697283
3136+534349501+533608116+532209381+530861633+529671164+528265104+526620278
3123+524706151+522390494+520482488+519737140+519357159+518661913+517736606
3109+516436555+515085304+513792506+512234334+510752271+509529886+508564171
3096+507707543+506478329+505171024+504118868+503041589+501993077+501002382
3082+499836221+498671050+497729856+496966710+496275923+495221431+493513340
3069+491401244+489031521+486656350+484729591+483244803+481857532+480227532
3055+478177498+475857135+473598870+471710289+470248642+468936455+467379875
3042+465596701+464106464+462745731+460838928+458689926+456987461+455718228
3028+454498285+453307957+452345993+451574284+450960845+450371537+449556802
3015+448503938+447539921+447036595+446790292+446742029+447553225+449255407
3001+450958332+452405401+454143709+456683625+460419990+465237348+470320293
2988+474283890+475990707+475783785+474193485+471155020+467209328+463214346
2974+459570367+456341752+453474081+451053726+449315205+447919265+446137400
2961+444232897+443086692+442790074+443020844+443606330+444098405+444279850
2947+444402984+444198115+443174088+441623984+440197650+438866850+436989946
2934+434587989+432356014+430292534+428101815+425882295+423350907+419978529
2920+415893958+411851316+408093579+404136494+400173393+397050715+394864030
2907+392648968+389689619+386745309+384768800+383350534+381970905+381084484
2893+380815996+380571746+380114488+379682458+379585119+379778135+379716568
2880+379422781+379560952+379988736+380194242+380408700+380835952+380959192
2866+380413229+379648561+378759593+377143675+374722647+371741184+368071516
2853+363560577+358327359+352775940+347576194+343031181+338928741+335234730
2839+331799759+328290944+324811957+321701699+319157785+317075410+315178089
2826+313401107+311802492+310280729+308711942+307225633+306125886+305449996
2812+304809877+303922819+302899996+301937324+301019907+300020012+299038763
2799+298138897+296992161+295296366+293274319+291406544+289727945+287923576
2785+285973817+284097815+282275932+280495730+278922148+277362083+275657814
2772+274139925+272907226+271689405+270438112+269350343+268521313+267858850
2758+267120526+266161498+265186601+264393963+263666767+262783689+261764829
2745+260809021+259898044+258972206+258166335+257567650+257125572+256649349
2731+255977456+255249181+254635157+254093794+253605063+253145664+252567042
2718+251868577+251217773+250660716+250144032+249590727+248954465+248324201
2704+247733248+247083028+246250902+245210192+244243752+243473069+242603385
2691+241702173+240969545+240108459+239014727+238046075+237315252+236536785
2677+235546550+234537154+233700252+232942378+232018963+230897191+229879692
2664+229146091+228508291+227859627+227319714+226777236+226025837+225306319
2650+224877704+224516476+224024278+223492556+223029531+222741122+222626516
2637+222524559+222338425+222052440+221711169+221415471+221255061+221268365
2623+221371277+221475923+221596032+221773655+222022612+222274788+222416109
2610+222380602+222245774+222179572+222230949+222322963+222348739+222150788
2596+221670336+221142011+220778962+220479743+220060062+219498690+218911947
2583+218308397+217593266+216829041+216126914+215433632+214598340+213606299
2569+212663124+211914874+211274773+210641785+210027602+209438772+208902804
2556+208487741+208094810+207563831+206981653+206525475+206181656+205784302
2542+205303266+204960916+204875908+204932928+204989983+204992283+205015264
2529+205064695+205079697+205102820+205116142+205111702+205181530+205347142
2515+205595497+205864374+206042299+206129748+206160921+206114817+206016717
2502+205961979+206001909+206048438+205981776+205787239+205476963+205027967
2488+204506082+204012397+203505497+202938745+202361503+201851524+201430747
2475+200987147+200467349+199932072+199398032+198878500+198432300+198037493
2461+197502339+196825458+196278433+195901778+195513518+194993596+194359635
2448+193756651+193235703+192740090+192303656+191957784+191628720+191272446
2434+190895703+190503568+190145136+189844272+189562020+189300379+189075465
2421+188879406+188715883+188557454+188351294+188121727+187947305+187829745
2407+187741640+187690122+187640356+187561239+187467862+187401607+187398016
2394+187388179+187264462+187006235+186613269+185999776+185094920+183857108
2380+182175024+180087571+177812340+175508767+173259330+171096653+169126832
2367+167382703+165783433+164593424+164171373+164472413+165380949+167047093
2353+169604382+172320205+173583617+172616805+170477463+169080621+168805800
2340+169028979+169594528+170274045+170644437+170786094+171131788+171703935
2326+172267166+172822895+173650368+174894177+176267065+177312516+177831978
2313+178090222+178436041+178928929+179496300+180025262+180409276+180656109
2299+180865950+181160692+181513198+181765003+181945298+182199934+182457311
2286+182584656+182606929+182542143+182380777+182197262+182033668+181857158
2272+181692768+181586034+181500655+181400821+181307303+181193139+180977690
2259+180706106+180554064+180572003+180567191+180356431+180054683+179888735
2245+179855917+179822586+179764912+179708847+179614232+179482040+179398890
2232+179384329+179360127+179325859+179355651+179395794+179343975+179242301
2218+179185812+179147757+179073434+179025366+179036830+179076247+179138487
2205+179207820+179265902+179303461+179326372+179319189+179245822+179166545
2191+179178417+179235419+179178363+178952725+178680132+178529045+178518784
2178+178484675+178342806+178132028+177864601+177623040+177486513+177355082
2164+177172434+177011440+176902831+176866581+176861238+176832047+176844308
2151+176883919+176872048+176823308+176765597+176717706+176687754+176668364
2137+176668860+176694902+176723845+176710718+176677635+176705747+176785147
2124+176866882+176917816+176879832+176793515+176793993+176937135+177106020
2110+177147754+177126064+177188445+177330473+177498721+177668348+177809368
2097+177973228+178216877+178434997+178598892+178833165+179099423+179328565
2083+179628863+179975123+180174172+180215889+180274271+180497380+180839112
2070+181030252+180876989+180643796+180788991+181205664+181482220+181539735
2056+181493525+181459008+181442095+181425041+181447420+181438115+181300633
2043+181153616+181276325+181594880+181752601+181750761+181792920+181886880
2029+181970509+182078799+182198501+182242464+182111139+181759908+181616942
2016+182140012+182871313+183211576+183308332+183514510+183828678+184084693
2002+184240273+184389131+184639184+184701459+184110417+183514881+183973431
1989+185038236+185928532+186576382+187075161+187518637+187938973+188378203
1975+188885758+189420965+189613715+189102675+188715723+189477419+190596308
1962+191088117+191177690+191130276+191020004+191027382+191042278+190804344
1948+190217565+189146851+187723082+187344587+188639331+189832543+190050150
1935+189900885+189880398+190011228+190055917+189566797+188235555+187179224
1921+187211175+187362350+188023751+189522108+190196052+189582560+189132414
1908+189878559+191040332+191735135+192050347+192096841+191624032+190992370
1894+190946443+190787820+190277540+190957748+192412901+193267991+193739260
1881+194126264+194449738+194780430+194933498+193981388+191074902+188468731
1867+190059473+193724205+195874869+196558880+196984594+197587914+198191747
1854+198604156+198589684+197733392+195881840+193767319+194135269+197626039
1840+200309929+201145416+201729488+202026884+200376839+197965258+198258444
1827+200153217+202181986+204853864+206918123+207820272+208423131+208659598
1813+207821421+207047077+208039488+209758070+210350634+209300848+207913754
1800+208201862+209342441+209004973+207202303+207747930+212257012+215983859
1786+217279134+217587074+217727245+218469745+219936310+219849568+217088170
1773+214880256+217701663+223040712+227521682+229589125+229711586+230894148
1759+233209079+235487672+237776773+237845824+235245650+234533191+238416609
1746+243345424+247121472+250347522+254403839+257895618+258198463+258822093
1732+265255722+273307128+280690072+286152697+289546818+291706806+291199215
1719+287985833+289697993+299905228+309833697+316230918+319342520+320844433
1705+323608466+326878657+329022493+332843070+340634815+353735746+366758125
1692+374289273+379274808+382832700+384707410+392801222+408872895+422280882
1678+431958731+439893672+448091334+454576765+460330541+470685590+480443759
1665+484910717+487801600+492678154+496322204+495199812+488839709+485206698
1651+491361614+493831507+495171541+504186379+513570901+517772166+517476044
1638+514112017+514709463+523905675+531644523+535579564+538913799+542908815
1624+547579156+555045906+562394795+566809562+573140581+583439477+591490687
1611+595924385+598853623+601538575+602903873+602705160+601939962+600316508
1597+596977320+592460896+588113746+584066291+579951786+575704168+570955276
1584+565800645+560261149+553571345+544799201+537546201+536116682+533833543
1570+528561120+526257883+527381089+528004259+526120702+519052828+514769261
1557+524792203+533339663+537446738+538557348+538719792+537491888+532980028
1543+526860035+526661075+544990553+564162719+574889646+586947726+602588891
1530+613795261+620404215+625633859+628794362+630419231+633334881+634654960
1516+634241754+633609031+629575624+620139407+607402428+605788032+618629179
1503+626675259+628786719+628463457+631518942+639061589+644002931+645114248
1489+650363353+664449070+679237145+690435802+698895441+704526897+706146813
1476+704771891+705829991+716343557+729861657+738195261+743114028+749506578
1462+755936705+757852283+755811943+760114051+771277820+780157458+786040277
1449+789860040+794657018+801701115+807763681+811159623+812852216+815294368
1435+821382127+828085059+831735902+833800798+836165460+836538400+835020034
1422+832894987+829240393+828911894+835013665+841769105+844957702+844505009
1408+842324269+838819982+836345490+836457160+834585598+828949613+823427916
1395+820827813+821726618+822308248+819709207+817568379+819314118+821222973
1381+820384178+817271655+812130823+806815410+806261308+809830770+811997782
1368+811738069+810462503+808331723+807175257+807968621+807930336+806342053
1354+805494765+806029548+806330942+806558881+807135204+806140439+802187210
1341+797200295+795633100+798591352+802737207+805290958+805422300+804624196
1327+804161878+803412249+802291095+801277365+800822195+801672313+803198534
1314+804669911+806361230+807887805+809153889+811093598+814114762+817266984
1300+819690525+821165440+821464216+821274491+820841754+819137131+816137410
1287+812893120+809910029+807053185+804687037+803379626+802853760+802274111
1273+801146801+799732108+797983539+795502819+793008159+791318679+789522201
1260+787277912+786344431+786988548+787987700+789057973+790015302+791052031
1246+792808243+794854810+796686460+798713070+801243397+804277865+807639415
1233+810637225+813112991+815690661+818431022+821173932+824087742+827066800
1219+829580355+831259361+832426583+834078061+836820121+839795640+841905614
1205+843301200+845022312+847180336+848441112+848665301+849592554+852069947
1192+854809177+856862396+858308439+858704660+859270155+861724904+865113628
1178+868726824+872441640+875001548+876702774+879323682+883029794+886990029
1165+890974041+894267302+896367085+899433468+905030178+910554636+913383526
1151+914550466+916206968+918799145+922005787+925685645+928949254+931524022
1138+934494517+937897465+940181808+941408545+943349670+945536072+947222579
1124+950183661+954848801+959914550+964833671+967039462+965013559+963297401
1111+964600566+966442901+967606302+969888663+973117385+974872960+976139397
1097+978328205+980385599+981280229+982759957+987719697+992774760+995386610
1084+998513923+1001223148+1001914395+1002355412+1002930460+1002314296
1072+1002126624+1004936407+1009569561+1013589522+1015485569+1016378996
1061+1018956170+1024029491+1029487994+1030650192+1026561092+1023309867
1049+1026579774+1032504275+1032989308+1030478371+1031366916+1034992425
1038+1037286250+1036842049+1037479159+1040429839+1041149464+1039948981
1026+1040824716+1042735836+1043569678+1043908013+1043720411+1042385330
1015+1040494803+1040027461+1042428639+1045193981+1043964201+1038585664
1003+1033408600+1032393667+1035052576+1037613757+1038432384+1038325951
991+1036861934+1035461253+1037025475+1039843610+1041364452+1041482491
980+1039968937+1037592315+1035405135+1034399614+1035501660+1037477319
968+1039045434+1040457367+1041602582+1042641080+1044598906+1046314498
957+1046441029+1047308130+1048851194+1048192004+1047212949+1049387816
945+1053969239+1057449323+1058269932+1058664030+1059684342+1059599068
934+1058867767+1059891475+1061862676+1061366532+1057998896+1054410468
922+1052334462+1053280257+1057590715+1061131446+1060612444+1058698847
910+1058146586+1058981276+1061104554+1063819369+1067412538+1072165499
899+1073741823+1070991200+1069731486+1071482107+1071977897+1069156154
887+1065359390+1063029403+1061484004+1059274179+1057234122+1056425969
876+1056599913+1057560073+1058327960+1057631335+1054126199+1048556098
864+1045028034+1043156189+1039684527+1035415467+1032039197+1028847204
853+1023924403+1019144834+1017638215+1015596814+1007739256+997821473+991691042
839+987442788+982297781+978462449+976269890+972356928+967276459+964098407
826+960461292+953233060+944422773+937615815+935078128+936561323+937503650
812+934300546+931597761+933207416+934579366+931144077+924969842+921644170
799+922079879+922150646+920883713+920026590+917625978+911376801+904692268
785+901613076+900610174+897777178+893398855+890021949+887250167+884984294
772+883855286+882628548+880416175+877155326+873401022+870006424+867252121
758+865509071+864404619+862568511+859817959+856675148+853164281+850166258
745+848196968+846663458+845283299+844321299+844839876+846240770+846662396
731+846515061+845952891+843960390+841290370+839712348+839628490+840251093
718+841117346+842113314+842254068+840541236+838375144+836776388+834346337
704+831589982+829750477+827681265+824674397+822009472+821458059+823002326
691+825083639+826465780+826103314+823583602+819498889+815389549+812544241
677+811348499+813103084+816524078+816627892+813262096+812062816+812785979
664+812581110+813020358+812413747+808238736+804494976+804950783+806062383
650+803740252+801316428+802235473+804449898+805479126+803793539+800465107
637+798451022+797035409+794103482+792603303+796968110+802689935+800003002
623+790518735+782678798+776213712+768439022+765799714+773998933+786106019
609+791704215+792578818+793511096+790648379+784878362+783528845
##END=
