##TITLE=Sample description
##JCAMP-DX=4.24
##DATA TYPE=INFRARED SPECTRUM
##DATE=25/8/2023
##SAMPLING PROCEDURE=Instrument type and / or accessory
##ORIGIN=Default
##XUNITS=1/CM
##YUNITS=ABSORBANCE
##RESOLUTION=4
##FIRSTX=4397.6552
##LASTX=599.8556
##DELTAX=-1.9287962
##MAXY=1.927792
##MINY=0.62324804
##XFACTOR=1
##YFACTOR=1.7953962e-009
##NPOINTS=1970
##FIRSTY=0.73820829
##XYDATA=(X++(Y..Y))
4398+411167355+410148457+409067544+408867091+409343192+410146366+411013746
4384+411156300+410137037+408983286+409181747+410418627+411039773+410733848
4371+410465371+410324111+410108851+410495449+411341283+411658861+411405190
4357+410895691+410012575+408953009+408522556+409065983+410013970+410793274
4344+411030843+410316143+408989726+408105847+408154914+408817857+409047359
4330+408438696+408416785+409473496+410430147+410887657+410983468+410626318
4317+410250908+410442464+411004682+411417806+411388027+411355426+411871199
4303+412181506+411861937+411632269+411814894+412104286+412095124+412107075
4290+412598547+412999420+412614748+411882287+411631704+411713605+411511824
4276+410571009+409362945+409374399+410452922+411111084+411599668+412392849
4263+412379337+411547645+410958105+410686772+410740289+411179340+411714966
4249+411801781+411121940+410722859+411252842+411663044+411482676+411497648
4236+411953034+412027797+411060323+409780783+409677137+410703704+411527892
4222+411858517+412271773+412824862+413118637+412959217+412480692+412323563
4209+413042711+413995910+414411689+414353890+413940236+413242268+412442348
4195+411790858+411675692+412363368+413416295+413417656+411980821+410862957
4182+410916640+411368705+412045293+412992316+413387147+412561597+411348819
4168+410818637+410862327+411278471+412006782+412385213+411944037+411480883
4155+411787539+412161355+411804171+411250817+411331987+411494694+410888886
4141+410558725+411455885+412287277+412116504+411647540+411250651+411318509
4128+412117134+412550808+412244252+411935106+411626957+411441476+411947523
4114+412407025+411595817+410508529+410699023+411440348+411523278+411257523
4101+411251282+411445759+411509932+411202978+410837063+410984232+411630111
4087+412312375+412384715+411687345+411054015+410987153+410959466+410573731
4074+410321754+410781555+411504554+411713638+411496254+411302474+411424977
4060+411845869+412037391+411834481+411680075+411840225+412280305+412364364
4047+411611686+411006276+411125758+411356720+411729474+412258162+412535304
4033+412510671+412233163+411747567+411262370+411478559+412380333+412758266
4020+412369278+411865655+411574437+411223860+410312193+409615022+410179863
4006+411176585+411707098+412375652+413208937+413175174+412313139+411901742
3993+412360048+412709099+412715606+413155055+413703828+413443020+412680282
3979+412417050+412767528+413046861+412873631+412452274+412176792+412062390
3966+411992507+412230275+412682175+412768425+412525676+412579989+412976912
3952+413104394+412741434+412358488+412237612+412032146+411912000+412435277
3939+413424429+414387321+414231553+412411506+411152317+411862468+412628293
3925+412352512+411963491+411892015+411663841+411604714+412397729+413514928
3912+414089961+413844657+412443311+409862883+407802843+407516405+408492976
3898+411288962+414239089+414264852+411401140+409871249+410834141+411363094
3885+411043259+410958271+410988349+411445560+411502595+410491764+409079230
3871+407465612+407315687+408497159+408242559+408333855+410494885+411950378
3858+411521186+408765636+403857189+404490187+409238218+412384483+413136763
3844+411796535+409114121+406036578+404253680+405544508+408238807+411127451
3831+413832440+415054779+414719440+413728462+411409207+408614317+409034080
3817+410359700+411346263+413466458+415091596+414524531+412554061+411288198
3804+409467056+407116595+408403871+411297594+413320982+414979651+416085297
3790+416577765+416502205+415859281+415761710+416259324+415840623+415279135
3777+415939356+416618234+416180245+414634551+413581724+414221328+415708460
3763+416729250+416246509+414958437+414878163+415318974+414296291+412744024
3750+414916275+418907344+421634078+424339399+428093398+431283518+432094825
3736+430033756+429034478+432247970+436578629+438900207+438324709+436140971
3723+434252801+432935746+431850849+430633190+428986407+427314492+428513128
3709+433846317+439717424+444552004+449505833+456653392+465037799+472811982
3696+480016445+485370217+486848020+486039734+487725227+490031500+489312585
3682+485376492+479088610+471193086+461529039+454464110+451833121+448317821
3669+445708477+446120306+446110512+444689512+442772392+440256835+436515087
3655+433721026+432443643+429058215+423566503+423833785+428755511+432706576
3642+434038537+433580363+432877648+432025274+430247821+427695878+424247107
3628+421267201+420905336+419926541+415959142+409686598+404606548+402138697
3615+399600497+397141444+396515584+397039292+397993021+398844532+398104203
3601+395973085+394267341+392950253+391532407+390583392+389651673+387261307
3588+383421822+381042013+380079553+378476425+376439027+375063177+374490568
3574+374373410+374143410+372530854+368410841+364268021+363941546+365250401
3561+365457460+364294812+362582893+361072224+360293086+360205939+359986895
3547+359235345+358281914+357424892+356656677+355990215+355869206+356282396
3534+356137982+354982870+353680721+353518446+354468623+354641024+353566252
3520+352828214+352656179+352506187+352273200+351538050+350477155+349944019
3507+350094442+350383303+350204661+349686497+349569870+349750936+349436910
3493+348784259+348463992+348279408+348014051+348098077+348529991+348799928
3480+348729448+348633504+348803116+348924921+348754380+348490352+348121681
3466+347895765+348153718+348492709+348613386+349014856+349610306+349764315
3453+349803788+349600745+348456887+347285275+347136778+347740561+348830803
3439+350174384+351036917+350796592+350277963+350811332+351686514+351578087
3426+351257024+351618589+352170383+352795347+353465594+353947339+354771195
3412+355813200+356262078+356412534+357014558+358123955+359537618+361124678
3399+362499232+363543295+364408185+364860251+365323770+366574494+368162416
3385+369610805+371590936+374043416+375653249+376647216+378611809+381377751
3372+383683029+385715812+388422561+391708027+394897118+397852193+400754846
3358+403637016+406800577+410843204+415194877+418672431+421706020+425232242
3345+428828249+432038155+435821136+440432090+444161090+446772758+449972605
3331+453625514+456439992+458693579+460652098+461561441+461813053+462555838
3318+463959608+465494180+466753038+467872794+468775663+468887642+468804048
3304+469447503+469961218+469570869+468738813+467356058+464934950+462253997
3291+460395937+459162609+458161871+456908225+454992665+452671154+449752498
3277+446864817+444995039+443630643+442210805+440568702+438939813+437865174
3264+437056290+435990781+434958238+434200978+433470310+432716038+431770077
3250+430618151+429654130+428854808+428042969+427436364+427014543+426460226
3237+425926193+425350230+424789672+424571391+423774160+422204663+421292896
3223+421086135+420291062+418982207+418459263+418975368+419533171+419530084
3210+419432579+419394567+419252776+419181631+418992432+418704634+418617089
3196+418658487+418715157+418617852+418243339+418113300+418451461+418378557
3183+417622724+416790502+416537396+416918217+416939298+416473555+416556352
3169+417695994+419250419+419971658+419327273+418390309+418620442+419673800
3156+420389629+420691769+421275666+421980738+421504903+420195616+420331597
3142+422555207+424226126+423263831+421779123+422679237+424998856+425449527
3129+424027034+423797200+425905411+427632236+426393828+424178784+424456026
3115+427341615+429194197+428158069+427008368+427989420+429897177+429751834
3102+427581143+426910598+429181714+431661949+430976630+428399422+427865257
3088+430767678+433482129+431608134+427810479+426884902+429046198+430993462
3075+430016792+428034835+428364497+430631066+431553622+430341375+429346081
3061+429567914+430399207+430621737+429738156+428518539+427856526+428333556
3047+429159040+429324900+429241737+429539927+430085712+430213328+429548625
3034+428639648+428291228+428684731+429430704+429998134+430470750+432356331
3020+439225089+451703647+460930435+459041401+451107035+444458749+440495068
3007+438168809+436729583+435999778+435963890+436208730+436255407+436284589
2993+436958354+438798918+440980000+441897111+441579135+441353650+442243539
2980+443768384+444205410+443563117+443103316+443330527+444637922+445874968
2966+445487673+444514257+444410179+445730952+447211178+446509958+444616940
2953+443991379+445261591+447373852+448105980+447166460+446313953+446850642
2939+449076409+450674291+449459720+447462791+447099731+448669029+450701646
2926+450406345+448099208+446540899+446397414+446825079+446365710+444768724
2912+443835279+444339831+445669402+446807915+446889783+446462450+446579442
2899+447532408+448773173+449071993+448172112+447556510+448232965+449697322
2885+450961359+451276879+450599295+449778294+449905046+450616625+450666389
2872+450306417+450140490+450222524+450848749+451567101+451623738+451351941
2858+451571848+452439626+453055394+452570197+451372391+450397315+450143578
2845+450651782+451600266+452483017+452892588+452887808+453134108+453869391
2831+454428322+454526291+454701281+455139104+455587983+456093498+456415292
2818+456339699+456483714+457112994+457784934+458207552+458500131+458944594
2804+459483308+460022586+460602134+461117376+461545671+461809135+461834466
2791+461848775+462045609+462349576+462635117+462930551+463216424+463389455
2777+463494529+463656140+463996791+464502439+464974323+465385853+465804886
2764+465998534+465891833+465869291+466101283+466361361+466525163+466783614
2750+467216092+467646114+468167830+468789773+469123252+469244494+469665186
2737+470297155+470469223+470158584+470111243+470523337+470933705+471200887
2723+471547282+471993371+472418413+472826955+473232609+473623157+473828822
2710+473728065+473770194+474373246+475207494+475797832+476130648+476390460
2696+476805841+477377288+477632818+477542385+477746291+478431012+478922750
2683+478694841+478283378+478231854+478298483+478439644+479007605+479866984
2669+480378044+480441719+480470834+480566977+480739344+480987802+481246586
2656+481608052+481940171+482013673+482010950+482055104+482078642+482288989
2642+482861930+483529288+483855963+483817552+483814431+484084170+484596690
2629+485207876+485712130+486044083+486149355+485963078+485815411+486058657
2615+486591527+487219047+487699365+487905628+488140375+488579460+488969776
2602+489131586+489320453+489664058+489820689+489832973+490158219+490799849
2588+491296234+491452401+491584797+491767920+491869707+492256604+492966224
2575+493267534+492986309+492705847+492748706+492911346+492912973+493001016
2561+493587270+494280623+494396884+494199718+494397548+494866644+495117759
2548+495227215+495457248+495833554+496230443+496458186+496556088+496728157
2534+496838077+496795616+496917588+497216010+497282274+497122589+497413675
2521+498358407+499132565+499264762+499158427+499290292+499807294+500352614
2507+500556487+500670922+501050980+501477748+501571899+501574754+502033625
2494+502764094+503013316+502781025+502794571+503234718+503663378+503794678
2480+503896665+504309157+504646953+504583411+504499319+504566214+504603197
2467+504670225+505046133+505629565+505925033+505731253+505266970+505154560
2453+505704063+506307381+506636910+506836467+506797691+506741420+507056508
2440+507481649+507729808+508049279+508529696+508975420+509351959+509599222
2426+509641450+509647161+509795625+510128076+510575925+510871757+510794006
2413+510644878+510922186+511399184+511541738+511545191+511778146+512099541
2399+512407824+513118274+514904259+518581071+525496240+537108813+553845457
2386+574945493+599053655+624406764+649398008+673653572+697718974+721755625
2372+745566659+769722959+793665991+812446241+821982540+827304807+833747528
2359+836415035+828638196+812472336+793097963+773835668+762641365+767376681
2345+783160492+790040504+782299785+772327323+765736736+763809026+766786609
2332+769655964+766990847+762041068+760225436+761251074+760537437+754427632
2318+743551040+732003503+726856790+730225519+733410593+727814968+713491497
2305+696018076+682042328+673096034+666006141+658433008+649028375+636930406
2291+623863635+612241335+602053281+592816500+585230487+579305665+574138701
2278+569363015+565275271+561855682+558556671+555317848+552781375+551063248
2264+549484488+547849856+546436259+545211861+544172679+543349586+542568257
2251+541814449+541199578+540544569+539799792+539250919+538801410+538290915
2237+538060749+538269270+538477525+538365579+538208915+538223091+538322388
2224+538653743+539238669+539529954+539439122+539596517+540075340+540515454
2210+540814839+540978475+541186066+541570605+542039137+542452427+542662673
2197+542858346+543337999+543842817+543992111+543936006+544082876+544553135
2183+545085839+545466528+545932371+546622437+546889088+546455846+546239557
2170+546585620+546900110+547285181+547854072+547948688+547643792+547551168
2156+547521521+547490115+547921565+548456826+548226460+547561758+547326048
2143+547531448+547885179+548479168+549254289+549712596+549861857+550161142
2129+550634654+551155075+551667330+552043138+552208301+552357097+552939832
2116+553949767+554544088+554319799+554038606+554125819+554222759+554244172
2102+554438218+554850511+555236910+555579121+556007217+556276790+556315865
2089+556501378+556830210+556994477+557148187+557524260+557963345+558203504
2075+558447779+559284251+560556355+561399600+561473168+561408298+561918627
2062+562701583+563265826+563879203+564788115+565785268+566612776+567215132
2048+567759921+568242496+568566979+568982825+569667712+570518061+571210783
2035+571461632+571456718+571541507+571923955+572397699+572684668+572924229
2021+573142875+573372742+573788721+574219240+574327401+574200915+574117852
2008+574012081+573875303+573833605+573887586+574147399+574630770+574853931
1994+574208949+573220759+573127338+573793834+574489676+575078354+575393409
1981+575419436+575407020+575491610+575921333+576742799+577379150+577525224
1967+577666119+578185345+578920694+579591173+579909149+579895604+579940621
1954+580277122+580782339+581201969+581478049+581642979+581891703+582663903
1940+583617499+584101137+584427479+585005931+585701907+586368601+586919366
1927+586984900+586432011+586017161+586204998+586494158+587152553+588430234
1913+589220627+589072959+588950058+589371083+589832543+590339353+591038317
1900+591541475+591656807+591575802+591560863+591350317+591065008+591832162
1886+593168074+593909730+594461823+595119620+595406788+595474779+595940090
1873+596142469+594883445+593297083+594044118+596305142+598065332+598962292
1859+599169518+599081342+599166264+599594792+600128227+600133539+599237044
1846+597529374+596431098+597608785+599357488+600316530+601056726+601550986
1832+600646590+598635751+597894824+598721735+600069665+601725877+603037155
1819+603722175+604120691+604177129+603262972+601982967+602179170+603515680
1805+604464097+604550679+603958416+603793552+604445838+604425255+603032109
1792+602437787+604588127+607029752+608084405+608112757+607687283+607423421
1778+607724067+607577064+605805919+603715004+604932795+607960043+609751573
1765+610316414+610378229+610668784+611193056+611553194+612039222+611951710
1751+610164231+607956325+608033611+609410689+609900833+609182150+608694463
1738+609193039+608828319+607226354+608333395+611653587+614682163+616435514
1724+616784896+616303118+614265985+609437779+606291681+609681922+614097004
1711+616508750+616603499+614308878+611477302+609809736+607501637+604872307
1697+604985780+608359953+612829614+615073707+615003525+613652143+610244373
1684+606728043+608846711+612216237+613399103+612164580+610616330+610102415
1670+609509820+610640100+612922637+612759632+610771699+610754038+611881860
1657+610921226+605861360+600222511+602664932+604508650+603891090+606424674
1643+610570117+612586468+611897796+608450453+606252573+610623301+615616703
1630+618319202+619892418+621086638+622279597+625226769+628519672+629665290
1616+631219250+635970302+640406631+642799122+644153891+645790648+647511066
1603+648835890+650148762+651843882+653728633+655391286+656533119+657427622
1589+658905358+661082522+663045821+664326623+665209706+665253130+663477403
1576+662328067+664936216+667250026+667656775+668943620+671522421+673386788
1562+673244233+669196659+665728202+672074646+678421024+682379692+685712367
1549+689540630+691697610+689443226+683344576+679382389+687509938+697573763
1535+701960560+704980836+709994423+714072473+715817723+716652469+716753990
1522+717704997+723044329+730089404+736592081+742111880+745739425+745968827
1508+742349250+745507101+758306823+766853073+770881524+773253498+778052090
1495+784899435+788823377+789390741+791463463+798557805+806439884+812276464
1481+816542019+820558918+823844982+824808073+825002551+829742249+837355485
1468+842590374+845574928+850047577+855657875+857885302+856603504+862093292
1454+873645808+881163565+884838983+886927706+889399541+893203769+897367206
1441+901199719+904053670+904721161+907389466+913483733+916509321+916687664
1427+919336249+922167426+921916710+918216991+909590932+902559667+903800166
1414+906415220+906122607+903886814+900237557+894044291+888287521+886758659
1400+885402496+881719376+877932345+874396960+873514873+874781532+873027783
1387+868127603+865666391+865827404+867290267+869961626+870778113+868331044
1373+865906085+865476694+866380161+868669271+870225555+868590125+867177259
1360+868705989+870172039+870009233+868616020+867221214+866813004+867023749
1346+867226659+867747877+868796687+869896026+871299065+872926195+873846726
1333+873651983+872851299+872782711+873957410+876248180+879060367+880293961
1319+879234394+878416646+879544469+881967303+885242611+889061978+893187834
1306+897752110+901887528+904831646+907294850+910008769+913112706+916920851
1292+921268607+924437944+925925773+927776927+930197636+931904377+933551160
1279+935950357+938721710+941291016+943518974+945410232+945966043+944373108
1265+941134451+937940281+937451664+939909224+942565643+944167343+945891612
1252+948796556+951666708+952484855+951830643+951921209+953385666+954959943
1238+955500749+954219216+951705883+951824534+955528901+957237633+954836378
1225+952745331+953125920+954713411+956188292+957056767+957353629+956884334
1211+955902319+954283953+952153997+951212883+951572291+952478016+953733786
1198+953670974+951494275+949422483+949635286+951370842+953576425+956991167
1184+960143573+960370054+958779111+957786738+957304761+956611175+956481037
1171+957586285+959247344+960472571+960352658+959441556+960307774+962582608
1157+963222677+962610761+962876349+964056693+964960093+965923450+968164157
1144+970537989+971907565+973113603+974625800+975939137+976572964+976907606
1130+977468397+977896526+977903764+978480290+980246390+982616637+984042783
1117+982385177+979487138+978240729+977305790+976743273+977856688+980985922
1103+986717130+991252789+992360427+994495363+998335711+1001933643+1005347787
1090+1007227691+1007032152+1006461003+1007197879+1009691559+1013896892
1078+1018848663+1023046361+1027840704+1032277100+1032738361+1030663780
1067+1030124701+1033452529+1037622805+1038321636+1039237585+1042761750
1055+1043196718+1041318673+1045025230+1051112659+1049044121+1040218006
1043+1034008141+1034131441+1038479064+1044319295+1049388523+1051303352
1032+1049384406+1045739266+1044601417+1047545735+1050361375+1050155145
1020+1048766846+1047684837+1047019736+1045486625+1043386747+1043917858
1009+1045975109+1046314664+1046058305+1046178218+1046306896+1046557412
997+1046029422+1045246200+1045402167+1045545718+1045105505+1044944292
986+1046574875+1048925602+1049305792+1049529152+1050240598+1048759343
974+1046529526+1046575937+1049605243+1053850017+1056330284+1056630201
962+1055709670+1054403969+1054738876+1056865778+1056858939+1053452165
951+1052100318+1055146289+1057441176+1057357516+1058136089+1058445832
939+1056644675+1056036410+1058567074+1062123175+1064124984+1065436728
928+1067448762+1067532555+1065776084+1066490053+1069482575+1071293492
916+1072050089+1073741823+1073723763+1069067327+1066348693+1069434437
905+1069353167+1064200279+1063192768+1067001245+1070680181+1072374306
893+1070436039+1065993933+1063835493+1064802236+1064167213+1060762431
881+1058597351+1056745865+1052038103+1048904421+1051292330+1053694183
870+1051663756+1048926066+1047578070+1045247661+1043209201+1045154639
858+1047223376+1043606521+1036017520+1027492318+1022864233+1024862059
847+1025548340+1021207756+1016921816+1012356211+1007543410+1005338956
835+1003706183+999830578+994900452+992089460+991621094+989573006+985447084
822+983573819+984809671+985492699+983195953+979716407+978268019+977389119
808+973502426+966752685+959573288+953969363+949805661+947297971+945623699
795+941742384+938738973+940789784+944091916+944282409+941762967+937929060
781+935322106+933619815+928894658+925027884+926670683+928980044+928724150
768+927385648+924992228+920533457+915026472+910681904+907060136+904749247
754+905293904+905916643+903327949+898590840+895112556+895026505+897566663
741+898914194+896953817+894834551+895349793+897350806+897267610+892503743
727+886098670+883369878+885358209+889592558+893620345+896547864+897893603
714+896509952+892939774+888175442+884339609+886303041+892343460+894365853
700+890884581+885018189+879465789+877892175+881839024+886459074+884915937
687+882555915+886794845+888935690+882361371+874838103+870659394+867960016
673+869686343+878355760+884281711+875838841+865335401+860498364+856869823
660+852566620+850556511+853936196+860933598+865745802+865516134+865837895
646+867779283+864359362+856921879+850890489+847136192+844076543+843487135
633+854346331+869732423+866211180+857061579+860447969+851019698+820572197
619+795833328+786331490+789909967+802674365+817520316+830689870+835353742
606+830129079+826122406+819407258+811533346
##END=
