##TITLE=Sample description
##JCAMP-DX=4.24
##DATA TYPE=INFRARED SPECTRUM
##DATE=25/8/2023
##SAMPLING PROCEDURE=Instrument type and / or accessory
##ORIGIN=Default
##XUNITS=1/CM
##YUNITS=ABSORBANCE
##RESOLUTION=4
##FIRSTX=4397.6552
##LASTX=599.8556
##DELTAX=-1.9287962
##MAXY=2.1158288
##MINY=1.3235981
##XFACTOR=1
##YFACTOR=1.9705191e-009
##NPOINTS=1970
##FIRSTY=1.4112829
##XYDATA=(X++(Y..Y))
4398+716198543+714746388+715315296+715811608+714551106+714177722+716623591
4384+719049073+718805756+717460014+715942402+713097861+709341217+706764252
4371+707341086+710925255+714245720+714873430+713465135+710879640+707616223
4357+704322618+702251585+703765507+709506977+715511667+715793157+710532573
4344+707521062+710872441+715970472+719328445+721317445+719480775+715027999
4330+715050382+719435463+720841581+717831522+715554317+716434963+717186812
4317+715364117+714501801+715885959+716776889+718881679+722648608+722412914
4303+718029769+715454559+715830544+716613307+717016999+717133152+717322929
4290+717942473+717859532+717731340+720140549+722656351+722150239+720726577
4276+718938848+716596126+715533386+716116329+717952152+720765295+723175592
4263+722865124+719990397+717077616+716003987+718061832+721604743+723605600
4249+723902940+722171836+718686699+717467879+719733771+720978605+719899531
4236+719278657+720035345+721848664+722750726+720680116+717688388+717351242
4222+719221487+720128631+720150591+720183804+719979870+720772796+721719020
4209+720608367+718422693+716159342+714010812+714351528+717811922+720642306
4195+721409581+721280785+720233411+720506975+722350905+721166446+717944167
4182+717699761+720001286+722816667+725427933+725598775+724595987+725915655
4168+726944094+725319584+724175597+723633852+720667472+717614824+719836312
4155+725842091+728548942+725564413+720492093+717690989+719513020+723852365
4141+726771618+728244826+729009985+727705562+725638279+724866890+724620851
4128+725313837+726826368+725417649+721488892+719841091+721310125+723336936
4114+724032644+723230220+722068629+722001055+723428709+725002038+725913901
4101+726069739+724762715+723260408+723662588+724636156+724516494+724651341
4087+726129147+727827885+728295159+727750087+726187405+723678317+723009953
4074+723566762+721599601+719022575+719342904+722391377+725974760+726623160
4060+723869970+721620169+722291498+724633252+725317225+723080310+721144123
4047+721953867+725282500+729452758+731348473+730738367+729223718+726500474
4033+724012378+723386845+723902214+725254187+725448502+722432696+720295298
4020+723389507+728719239+731313929+731204673+729749614+728381246+729257717
4006+730317312+728735271+727287713+728104898+728242346+726857281+727273799
3993+729557296+731509998+732588165+731545691+728387477+725988856+726516566
3979+729476049+731648777+729744713+725550196+724550917+727463818+729883190
3966+729954999+728391409+725760966+723992112+724815649+727764425+730327596
3952+731533834+732959189+733494098+732310668+731054884+728781429+726547600
3939+727201687+729196495+730269580+729528439+726733566+724864228+725943846
3925+728938478+733072620+737747176+740750519+738343186+731686889+727220623
3912+727184567+729626261+730949136+728844588+726130175+726215898+728549063
3898+732445998+734604751+732916660+729458505+729347615+734154537+738436230
3885+736574211+731078780+726681660+729141262+736312867+737806281+732451866
3871+729178286+730614712+733479397+733756229+731408606+730982288+731925124
3858+732291732+729760503+719961963+717857475+726978758+733367721+734211948
3844+733686779+735377653+736801315+734697613+733048784+732014840+729526019
3831+729308111+731594028+732904924+733974621+735219818+735247767+736461869
3817+735819337+732278423+734162644+740371872+744208916+741777324+736818919
3804+733344914+729429830+729248764+733317933+735632161+735776203+737195146
3790+740206112+742636675+742205397+739290741+737099259+735947408+736298832
3777+739688384+743308972+744296333+741453124+737929270+738083294+738657525
3763+737879844+737397325+735877535+734087386+735809960+739322502+737592244
3750+731511208+729903879+729811501+728282032+729930256+735368337+738850569
3736+736218069+734489445+736649832+738021043+739489169+741451309+743079690
3723+743514841+741729230+740440354+741634855+742349136+739493707+736149345
3709+737577302+740812104+744259975+747397862+746903365+743101530+740386210
3696+740988935+743030023+741278289+734704026+732572133+737342636+742672368
3682+744508555+742500256+740409077+739204836+737953529+739744646+742872067
3669+744576916+744351809+742022577+739284691+737589159+736277658+734210980
3655+732188647+731772008+730239029+724007901+719195897+720317985+723434940
3642+725560662+725748564+724559205+722362097+720047384+719465106+718710656
3628+715650870+715382992+716951481+717362312+715192367+710619929+708247019
3615+708171882+707359416+706277499+704953777+702655640+701549282+701688726
3601+700887512+699446972+698347269+695195588+691474395+692551231+695220997
3588+693510341+691894905+692696967+692303135+690863805+688917092+686732688
3574+686172915+686763541+685899350+683337510+682217117+683302966+682637627
3561+680221946+679376811+679974273+680553345+681437197+682049239+680695935
3547+677051874+673779927+673439272+675679574+678707782+679534646+677479947
3534+675905891+676226522+676380243+675097538+673714833+674715322+677641412
3520+679158843+679283102+678546861+676663548+676320957+676675042+674758638
3507+673747138+675021253+676220896+677465912+678276382+677444193+675739466
3493+673829171+672332974+672193228+673069518+673092628+671792560+671700243
3480+673764138+675847996+677208439+678028286+677330339+675372979+673715922
3466+672782765+672709262+673817979+675538981+676476372+676065783+676352536
3453+678334821+678875659+676449330+675046298+676774861+677077222+674547687
3439+673788518+674973884+675482054+677328101+680572643+681286743+681310215
3426+683301938+683456264+681347057+681411668+683354509+684228077+684469881
3412+685899290+688191256+690306754+690979716+688767303+686230810+686735773
3399+688535843+689558414+691243238+693491163+693601630+691768045+690681348
3385+691771795+694942290+698796273+702147410+704599571+705158981+704913789
3372+706261890+708481684+711686541+716507014+719141451+718684522+718522633
3358+720849506+727259522+735270817+740847495+743415929+742733167+741573875
3345+743594938+746846498+748688432+750419838+753113198+755739165+758447528
3331+762217844+765786829+767491314+768308016+769518125+771540035+775094259
3318+778346484+778658040+776535041+773864730+773244884+775464618+777016652
3304+776408785+776998080+778246423+775358930+770474875+768685211+768442197
3291+767938080+769042079+770713050+770359872+768493740+767556711+769188722
3277+770566709+768618786+765682291+763708717+762238353+761462547+762346097
3264+764831167+766055493+764488455+762819662+762350392+761385656+759959816
3250+758894233+756503053+753275752+754307639+759335554+760784140+758911959
3237+760328844+763642413+763633157+760298596+756263245+752203816+748461933
3223+746913952+748151224+750128367+750807560+750342101+749374945+749043546
3210+750695157+752980167+755037225+757001059+757192530+755684658+753376115
3196+750994252+750908649+752743626+754494996+756174739+755500446+750984451
3183+747719582+749234230+751618151+751484030+751969514+754246779+754996330
3169+755104013+756955263+758417764+757562284+755957920+755271044+755364027
3156+756035295+756747458+757183758+758333311+758394351+756174799+756173952
3142+759824789+762727042+762828132+761317597+759251646+757072505+756530276
3129+760156188+764673211+764883134+764457058+766385259+765825365+762885180
3115+762758198+764765105+764965288+763327892+763323960+765813931+767796640
3102+767720354+765777149+762869451+761345426+762244160+764396259+765883744
3088+766402379+767705593+768576196+766966932+766219317+768010797+768948310
3075+768323563+767246909+766396935+767365180+769466885+770922791+771561088
3061+771239610+770338940+769784128+769701248+769332341+768380309+768248790
3047+769294409+770078927+771517410+775119244+778222406+777262812+773038228
3034+769280011+768745768+770958181+773262912+774241139+773866968+772647301
3020+771629207+770951647+770774575+773022439+777770861+779916365+777169406
3007+775132674+775972061+776531229+776230502+776077325+777040609+778863365
2993+780008259+780482612+780907296+782382319+784272831+784458071+784315179
2980+785631762+787705336+788749262+788576787+790411884+794528542+796320929
2966+794229872+791449337+790186595+790223740+790677524+789822649+786930317
2953+784156557+784370231+788069222+792339238+793979598+792795986+791306747
2939+791621146+792812744+792832103+791817094+792376625+794924552+796513126
2926+797522569+799440728+799306487+796167147+792328773+788527119+786416884
2912+786731526+787028018+787466254+789262453+790239227+789335653+788907702
2899+790668086+793339304+794508215+794222733+794511785+795197209+794909367
2885+794691701+796163215+798241266+797865765+794580327+791810621+791932521
2872+793667013+795043306+795618385+794759578+792579833+790761372+789706133
2858+789780967+792450007+796418389+798029952+796721234+794729390+792986792
2845+791968698+792118548+792777958+794204221+796979856+799424273+799747021
2831+798809690+798599707+799319009+799488157+798388998+796933697+797343681
2818+799961783+801743342+801533964+800442427+799146232+799238368+801643704
2804+805132349+807758982+808560196+807481787+804841543+802843468+802836330
2791+803091685+803148189+804151824+805571251+806521649+807093461+807260733
2777+807399391+807540771+806625884+805509847+806051774+807547668+808014095
2764+807057344+806571800+808093769+810041873+810341935+809984644+810548712
2750+811244784+810986222+810027959+809609506+811024577+813036929+813014847
2737+811458699+810938067+812024824+813382121+814007956+813883394+813324044
2723+813147214+814185332+815305664+815296832+814763254+813902148+813531789
2710+814691807+815527988+814899491+815023812+816771915+817899507+817488495
2696+817581478+818724497+818820807+817823584+817707794+818370472+818775374
2683+819060131+819461464+819933094+820537815+821339090+822440790+823610427
2669+823315205+821441510+821053971+822810786+823982903+823573403+822460149
2656+821773938+822083498+823165174+825066333+826773057+826952853+826350188
2642+825975170+826358476+827028231+826037845+824210067+824781153+827058540
2629+827846747+827557695+827860298+828079840+827334101+825388355+823216051
2615+823385501+826225323+828374397+828198836+827936584+829185048+831538600
2602+834053858+835426945+834334743+831430614+829907073+831215428+833286522
2588+834218650+834238070+834007155+832963713+831067454+829947908+830482635
2575+832289360+834355917+835557193+835541706+833842544+831375381+830906594
2561+832771214+835105467+836700999+837045889+836512250+835974740+835536685
2548+835041280+834846724+834399958+833565108+833988220+835481392+836634755
2534+837193560+836923565+836274681+836284663+836878193+836807412+835954897
2521+836413641+838753762+840355041+840314448+840776338+841102535+839913417
2507+839617348+840600535+840757947+840194544+839673912+839586132+839782745
2494+839681777+840117351+841514878+841698908+840130600+839433742+840028482
2480+840798903+842304900+844114347+844180651+842301754+841073980+841743615
2467+842709682+843342353+843672300+843339328+842813009+841794492+840495998
2453+840535018+841840651+842923718+842631097+841634056+841387170+841483541
2440+842096369+843553001+844148286+843891176+844469885+845430265+845655311
2426+846013026+846901597+846686654+844994449+843751550+844022816+844452280
2413+844228443+843917553+844048890+846020588+848955873+849606754+848580554
2399+847964579+847410554+846645032+845906190+845901048+847506864+849488363
2386+850421156+850463141+849111107+846202985+843200973+840522132+837334396
2372+834082231+831788147+830939202+830319295+826623994+822753556+825355929
2359+830053776+828078751+822946842+823325429+829167323+834009454+834330327
2345+831924506+830183118+829230965+829225520+830873805+831787542+831039444
2332+830865638+833204126+837270633+839383348+838303911+836275165+835401173
2318+837014612+840011785+842538900+844727841+846568444+848143286+849892297
2305+850896053+850607969+850489578+851918200+854365460+856252222+856421128
2291+855338061+854526502+855050703+856519132+857022341+856640367+857027786
2278+857508490+858044004+859878859+861840455+862418558+861878447+860928714
2264+859833971+858446426+857566990+857754226+857863604+858239589+859881642
2251+860500641+858610008+857242669+858073950+859537478+861830049+864577795
2237+864431818+861113772+858129909+858112667+860692596+863200172+864300661
2224+864711190+864388986+863415055+863593156+864796611+864164545+861590000
2210+859717515+859537902+860866160+863608643+865987422+866081554+865012462
2197+863958615+863053770+863412998+864545188+864367994+863012512+861969312
2183+861661385+862324486+863640525+864096728+864187896+865274653+866118517
2170+865833821+865360437+865131035+865253782+865951184+865934911+863987048
2156+862365866+863045119+864530548+865963647+867716106+868818471+868506431
2143+867768919+867785677+867956458+867760813+868397598+869678790+870144068
2129+869391796+867876543+866880409+867073271+867796264+868131595+867920523
2116+868103222+868433230+868032684+867809452+868057245+867552100+866785067
2102+867634133+870039470+872282676+872905486+871436211+869179151+867876785
2089+867873155+868768562+870059615+871152059+871767126+871964102+872174146
2075+872431618+871831191+870530943+869688349+869709099+870730278+872044441
2062+872313953+872108507+872712684+873613294+874184017+874622253+874395633
2048+873338762+872593990+872743840+873032468+872902643+872902220+873717166
2035+875183720+876272050+877053724+878165768+878065465+876308953+875399511
2021+876018994+876578222+876506897+875816996+874652380+874353407+875141251
2008+875387956+875186140+875665997+875983180+875019049+873777542+874368350
1994+876377132+876920450+876677618+878289544+880064085+880277637+879979511
1981+879489792+878639032+878298074+878798863+878907152+877975144+876924262
1967+876347610+876406049+877533339+879380838+880894821+881830761+882246431
1954+881798153+881570142+882854904+883869852+882422899+879592273+878059355
1940+878417191+878863171+879612963+881776919+883537303+883082007+881522713
1927+880734324+881094157+881930761+882816731+883781225+885129568+886039071
1913+885213658+883395802+882529554+883623269+886010819+887612098+887218206
1900+886476278+886893703+887517361+887338412+886813062+886649661+887575377
1886+889164556+889680409+889062257+888760864+889031464+889273692+889194805
1873+888507626+886541010+883777655+883165492+885310392+887865215+889366130
1859+889790089+890010719+890962933+892451204+892379758+889913441+887943558
1846+887312580+885919409+885656129+886862003+887529521+888758928+891263297
1832+892102987+889090569+886635384+888075440+890242179+892041099+893926530
1819+894810261+894754725+895054727+894779952+893312854+893088231+894000154
1805+893459861+891191488+889481860+890078717+891270073+891514115+890317618
1792+888841445+891226818+895782801+897902171+896833986+894319756+891833476
1778+891280599+891966689+891238010+888380342+887538716+889938305+891938558
1765+893558409+894982131+895183826+895475782+896518437+898419355+899424684
1751+896405551+891993065+891467654+892306134+892235898+892373043+892789016
1738+893363006+892760220+889178531+889014707+893665790+897765449+898543191
1724+897220256+897825764+898624921+892939108+884054487+884844146+890789308
1711+895395564+897553591+896672158+893800516+892034687+889598558+884797262
1697+880949449+880692703+885119284+889587850+891144059+889776054+883845532
1684+877858870+882086055+887400663+888744953+887305260+886202290+886799390
1670+886288074+885617169+887768784+889423481+887371080+885799021+887675256
1657+888582037+882620602+870677102+871647706+875900118+873550559+872183643
1643+875991165+878277142+877550702+874262783+869435050+870044128+873719465
1630+875342704+875192734+874695998+873928238+875822138+880839043+884346322
1616+884955339+887360312+891624824+894474385+895122422+895659691+897539193
1603+900420394+904614790+909590618+912543689+913150467+913704493+913680476
1589+912382042+912021907+913895057+916712737+918402280+918086670+915840137
1576+913362870+914184411+915480788+914537650+914596392+916599850+917758659
1562+917584006+911831102+900168124+904528159+915616724+923685793+927422110
1549+927790473+925959670+921911373+916055322+909072950+909392432+917366945
1535+921916636+921776950+921942468+923518218+924599167+925125425+924931050
1522+924154337+924370672+925604799+928843957+933987057+937558946+937203045
1508+930259814+921695582+927002084+934865344+936867593+933718090+931987410
1495+934180162+936604736+936303948+932640287+932079062+935974001+939216486
1481+939382307+937776249+935779384+932650510+927242617+923188996+925711696
1468+929791270+928193923+922931342+922110406+922516034+918576086+917500037
1454+924338549+928915403+928913830+926750298+926482178+930768407+936646841
1441+940212438+939542380+933477920+929317643+932606469+937709400+939896284
1427+938916243+936312962+934158443+933779192+933329824+934574901+938680065
1414+940573057+939635242+939047217+938398877+935480532+931898298+929736460
1400+927383755+922987422+916446069+911930316+913505823+916464641+914871045
1387+910313368+909961340+913830144+917429679+919015169+919109483+917593564
1373+915379638+915432452+915864154+914496331+913387916+911610834+909320804
1360+910800364+913194206+912739636+912699588+915353080+917958841+918729747
1346+918193023+917559263+915881516+911669213+909047058+910663642+913111810
1333+915466572+917388481+916538205+913891548+913406730+915354169+916865248
1319+918318432+921370717+923408719+922964918+923218034+926302140+931617474
1306+936662389+938788414+939590717+941916803+945727954+951328710+957835883
1292+961076191+961647579+963630772+965580329+964858425+962944803+962152119
1279+963625630+966696487+969762383+972188289+972750482+970909879+969213742
1265+969246168+970277752+971945880+974800160+977986747+979274170+979149548
1252+979277437+979563585+980274357+981958940+983226944+982610365+981402857
1238+980926266+981260509+982038371+982217985+981926332+981382893+981383498
1225+985306084+992745567+996771299+994379877+991771333+993096748+994625795
1211+993054522+990686270+991023053+993829602+994850055+992603945+991992810
1198+995997248+1000536715+1000773861+998663203+999439008+1002364251+1002868428
1184+1000754260+999827153+1003899347+1010961332+1012695824+1008290356
1173+1005955921+1007965430+1009288425+1007862586+1007233908+1008630104
1161+1008716976+1006695913+1004968923+1005313813+1008245528+1011945003
1150+1013729163+1013526681+1013346886+1014806846+1017599238+1020240631
1138+1022716748+1024744103+1023511429+1019028526+1016260332+1018031908
1126+1021592121+1023589106+1022880815+1019813527+1018388353+1021973127
1115+1025687968+1022359094+1012977677+1005360879+1007206624+1016924582
1103+1023021166+1021095687+1020003485+1025178830+1029976194+1029034144
1092+1027269707+1027623974+1029660161+1033509304+1036531946+1037866254
1080+1039930028+1042974327+1044436888+1043424420+1042826716+1043357874
1069+1042958961+1040857317+1038083557+1039462270+1048002908+1058899639
1057+1065151094+1063398513+1056637195+1051104921+1049190815+1048360805
1045+1046507800+1046444037+1049339031+1051419139+1052739292+1055872521
1034+1057771744+1056024245+1052461734+1048967705+1049773033+1054004029
1022+1054277231+1052545219+1055165560+1058787116+1057551295+1054033672
1011+1051062090+1047727166+1046457588+1047599276+1047040653+1045112149
999+1046241374+1050015865+1052025313+1051680000+1050196507+1048091959
988+1045842340+1042856722+1040679457+1042311408+1044934047+1044058302
976+1043384372+1044514202+1043497984+1043669552+1048659778+1053047339
964+1051952959+1048190326+1044809304+1043538638+1046721716+1050055551
953+1049094263+1047930071+1048880106+1050445510+1050851078+1050196023
941+1051543520+1054314739+1056222069+1057899755+1058962071+1058428493
930+1055403674+1051581391+1050665475+1050116531+1048619487+1051720169
918+1057199206+1058381790+1059439025+1064108499+1066058298+1063435295
907+1061576967+1064010253+1070488327+1073741823+1069856745+1066334403
895+1066743722+1067632293+1066161988+1061817622+1057319231+1056190732
883+1058863583+1062042547+1062789920+1062547450+1064271960+1067732233
872+1066148074+1057591949+1051586714+1049951013+1047653360+1045724977
860+1043205424+1037193050+1031916555+1032233919+1035660556+1035870236
849+1031455210+1027709152+1028249869+1029108192+1025778592+1022648871
837+1023841255+1024728495+1022516142+1022434230+1025046464+1021423578
826+1011158066+1005051924+1006022104+1009464954+1011328666+1008244802
814+1002366005+999253042+998644630+998583166+999673311+1000282993+999003616
800+997174749+994597240+992641755+991588573+986587337+980138301+978602116
787+978194794+972904808+964842212+961516847+963571848+962503059+956949248
773+952799922+951074081+947607214+942845483+942738404+944472654+942733867
760+939922721+938315392+937197601+934627472+931903683+930786314+929884374
746+928864525+927684967+927223561+927653448+926947516+925455191+925268439
733+925703287+924061475+920032113+915766755+913682231+912863593+909860311
719+906736035+907220067+909974407+912959662+915875648+918796958+921347910
706+921260613+918040935+915041342+913344479+912327111+912895173+911380585
692+904446307+901300314+907825878+914934869+915534388+909545125+901391361
679+898523892+898982455+897601201+896671856+898461521+904555806+915527733
665+920788016+916358833+911192804+911741204+908402892+897044332+891095299
652+896225393+901434253+896554432+893696038+896712267+895278140+899301210
638+912481922+926631241+937154890+931939678+922281853+924958758+957619306
625+1014453910+1017658645+965012147+916672325+889179802+883128771+870611584
611+861289938+890615986+946027593+986521396+1002251667+995552660+973757263
##END=
