##TITLE=Sample description
##JCAMP-DX=4.24
##DATA TYPE=INFRARED SPECTRUM
##DATE=25/8/2023
##SAMPLING PROCEDURE=Instrument type and / or accessory
##ORIGIN=Default
##XUNITS=1/CM
##YUNITS=ABSORBANCE
##RESOLUTION=4
##FIRSTX=4397.6552
##LASTX=599.8556
##DELTAX=-1.9287962
##MAXY=1.8409803
##MINY=0.10772879
##XFACTOR=1
##YFACTOR=1.7145465e-009
##NPOINTS=1970
##FIRSTY=0.11616752
##XYDATA=(X++(Y..Y))
4398+67754081+68090528+68052387+67945988+67851872+67838371+68047568+68131345
4382+67845576+67673307+67831605+67998155+68092957+68263514+68512316+68819557
4367+69133264+69397214+69773953+70222440+70433849+70473849+70542317+70451179
4351+70094100+69756075+69554765+69302778+69009043+68957796+69167302+69165260
4336+68740208+68373090+68415533+68683295+68972449+69264572+69438857+69125646
4321+68472290+68216474+68332812+68263458+68000167+67763489+67649406+67730624
4305+67875773+67883412+67956964+68288601+68644924+68826670+68844087+68867127
4290+69113526+69480231+69639659+69632167+69793221+70176743+70503203+70494886
4274+70312518+70216560+70111842+70009371+69989868+69977866+69975159+70067701
4259+70182240+70086790+69909133+70022351+70311584+70362861+70206522+70233895
4243+70470421+70529550+70374980+70400836+70612914+70709619+70645819+70567030
4228+70699542+71008052+71256241+71476889+71660378+71644591+71552714+71630268
4212+71800860+71864474+71843663+71863031+72021681+72281569+72390107+72344983
4197+72440784+72545246+72373650+72219159+72459718+72922271+73244612+73289554
4182+73076363+72928772+73099394+73298279+73293143+73064960+72691994+72448019
4166+72407024+72446212+72546493+72679905+72726336+72730782+72850722+72943329
4151+72847963+72816301+73008799+73156199+73118619+73071148+73224710+73547173
4135+73669056+73511088+73376751+73337528+73323770+73334764+73396679+73599780
4120+73833951+73786350+73581755+73628895+73886844+74037138+73948716+73747362
4104+73748892+74142099+74552898+74593207+74569124+74663709+74604801+74512450
4089+74633803+74756842+74785418+74943794+75113773+75012410+74797768+74785644
4074+75055326+75500298+75914772+76130127+76152993+76059426+75923472+75900059
4058+76037125+76099604+75952483+75805100+75798930+75748183+75528795+75443311
4043+75697653+75913217+75809741+75650009+75666270+75737988+75803128+75872760
4027+75781357+75578334+75448960+75308269+75233362+75465942+75850155+76070820
4012+76095511+76003369+75867876+75789543+75678994+75500437+75495474+75649783
3996+75744724+75749912+75650374+75619278+75893784+76150934+76077182+75946025
3981+75938951+75808664+75425416+75112026+75093019+75151040+75245268+75500619
3966+75728785+75668591+75473590+75511379+75709378+75757795+75528613+74924517
3950+74073745+73753802+74027230+73909293+73791417+74632994+75720615+75946104
3935+74811804+73119662+72898714+73984722+74107022+73191832+73016178+73332201
3919+73027693+72914293+74010100+75450854+76305842+76271417+74584446+70943895
3904+67522600+67049569+69094906+72094999+74018131+73588090+72181375+72440784
3888+73031787+72044591+70855346+70446273+70997701+73076346+74096602+72675963
3873+70241943+68348690+68585755+69857269+69836241+70418996+72683424+73577696
3858+71618909+67062749+62832238+66262137+72277914+75420227+75316361+73021775
3842+69890095+66922237+66172797+68514811+71042885+72737782+74096845+74639582
3827+74380885+73495044+70885904+68396608+69566289+71775704+74490140+77625096
3811+78935294+77543739+74954554+73580738+72229297+71015187+72569576+75031617
3796+77604846+80204991+81687601+82092733+81625521+80568137+80086680+80051134
3780+79600444+80135020+82021110+83010766+81982905+79918587+79151361+79974983
3765+81237571+81912673+80831136+79181493+79043810+78671434+75715001+71524803
3750+71556460+73903879+75111557+77038252+79537608+80112840+77835062+74233764
3734+74793813+80177310+84809164+86278060+85715082+85468674+86627917+88778754
3719+91147170+92360837+91186228+88083837+87381411+91526481+95800056+97713698
3703+97978652+99057008+101738440+104062933+105014026+104163818+101738849
3690+101232640+106438736+112924064+117249559+119238265+118933471+116973020
3676+116331153+121216298+126480572+130397424+137390264+145240890+151195900
3663+155746693+159391082+162218306+165519851+170207232+173173287+172965380
3649+174618899+184183525+194962895+203132769+209731966+215713527+221108305
3636+225768900+229820915+232494673+234425419+240866700+250623728+258056012
3622+262306686+264831741+269110279+275409201+281310440+286691330+291853067
3609+296977363+303079990+309233685+313793968+317429388+321671997+325941132
3595+329519642+333876660+338275221+340235846+341310648+345786350+351767685
3582+356239737+359152446+361191708+363246196+365492199+367326457+367705629
3568+365793082+365110872+368804487+373230094+376200616+378816752+381476761
3555+383006937+383921615+385308111+386177596+385692985+385788655+388126923
3541+391173995+393127007+393707602+394227394+395455714+396811339+397699910
3528+397892781+397482078+396918587+397293656+398465449+399599767+400698277
3514+401181950+400725984+400427847+401031873+401526810+400927894+400027887
3501+400256600+401247828+401823035+401699379+401086557+400641438+400701197
3487+400960399+401092954+400686458+400278640+400430629+400080589+398922041
3474+398217616+398015637+397782509+397790400+397487431+396489181+395401030
3460+394790225+394885027+395328547+395397032+394489237+392873125+391281277
3447+390471448+390737984+391243836+391435664+391321290+391000974+390783108
3433+390783872+390706870+390300095+389991251+390177900+390482676+390228551
3420+389027347+387421977+386728989+387419300+388435836+389023037+389545019
3406+389879937+389425049+388932129+389604570+390784498+391183833+391022041
3393+391220231+391905188+392542344+392790490+393093703+394050376+395151424
3379+395864609+396750676+398084644+399282718+400154984+401352537+403145043
3366+405051228+406907421+408764971+410193219+411168073+412743373+415387078
3352+418194973+420757921+423141486+424708512+425498143+426697956+428640747
3339+430504624+432320143+434893381+437835153+439999704+441114832+441770135
3325+442264063+442578261+442955555+443628171+444687259+445752118+446672983
3312+447998017+449584580+450896438+451819459+452554928+453640819+455028567
3298+455702190+455245773+454387934+453486084+452272539+451066260+450564371
3285+450615961+450582622+450387700+450259177+450309168+450572541+451041161
3271+451448457+451365405+450762631+450084279+449798275+449512062+448641743
3258+447636366+446981271+447124534+448389426+449822332+450309933+449373666
3244+447209393+445173087+444088552+443147105+441495776+439800819+439485508
3231+439832697+438641089+436702887+435833576+434802125+433096912+432482909
3217+432739224+431875893+429740057+428328913+428490601+428654062+427970669
3204+427337163+426943529+426271992+425331762+424181627+423051794+422341599
3190+421896966+421571852+421158055+420207953+419050135+417978914+416671367
3177+415452608+415087516+415782241+416490316+415666303+413579971+411741090
3163+410613482+409494982+408082726+407125184+406880305+406770555+406551889
3150+406024414+404917942+403784390+403220794+402521862+400848041+398918287
3136+397995300+398101296+398326011+398040737+397360647+396593403+395704381
3123+394819183+393847319+392545508+391370934+390273640+389071950+388494414
3109+388325739+387643285+386678477+385804577+384822909+383878091+383170850
3096+382701778+382572977+382551806+382185879+381375667+380346233+379437465
3082+378738638+378078537+377556207+377358573+377467072+377937395+378655343
3069+378739959+377135665+374226885+371380645+369140864+367214030+365181478
3055+363194084+361712717+360508142+359195832+357890232+356908737+356393116
3042+355880729+354962192+354109776+353504603+352704682+351757986+350795438
3028+349833133+349041381+348177320+347078357+346199382+345858381+345862310
3015+345924815+346198965+347087605+348488389+350010013+351553851+353123693
3001+354685331+356533772+359403686+363647200+368910865+374913580+381562212
2988+388341556+393529888+395087006+393219062+389857479+386412845+383297704
2974+380204222+377096695+374474127+372360540+370625430+369554348+369050790
2961+368709581+368540314+368753870+369545414+370810792+372037860+372970858
2947+373694368+374162397+374193546+373657866+372470881+370686302+368753627
2934+367161640+365695326+363756046+361300658+358836684+356475473+353422038
2920+349331035+345032178+340766763+336265579+332235448+329141965+326427864
2907+323987320+322066396+320231930+318200386+316403743+315194440+314457893
2893+313909941+313647403+313964938+314711984+315570657+316319232+316734211
2880+317079001+317863035+318887359+319800195+320725545+321602817+322155462
2866+322337312+322190399+321665844+320650628+318777122+315601492+311374805
2853+306646681+301497667+296070680+290791928+285969401+281714972+277878477
2839+274187174+270556899+267203312+264414468+262024697+259647599+257353760
2826+255403077+253860595+252630120+251465766+250288428+249310688+248642766
2812+248066742+247334559+246620382+246161427+245770175+245293211+244750214
2799+244020568+243070587+241957441+240600616+239047322+237486310+235939203
2785+234375758+232807950+231266928+229879076+228664279+227450735+226200514
2772+225075113+224080965+223047202+221965431+220997686+220278225+219767124
2758+219327619+218934628+218520049+217938429+217189853+216387098+215642121
2745+214992120+214383210+213735207+213051988+212460738+211997611+211545660
2731+211069080+210638092+210237418+209841160+209526110+209249284+208925561
2718+208614631+208285119+207854966+207409864+207106008+206922749+206633356
2704+206160634+205611048+205040743+204558774+204240457+203839297+203101203
2691+202285672+201796055+201518550+201053668+200305145+199466357+198684964
2677+198025629+197453951+196816325+196093719+195350828+194584262+193920616
2664+193437569+192944909+192367443+191794201+191181188+190577197+190177184
2650+189885322+189506376+189139650+188847510+188558811+188314854+188133177
2637+187950336+187752580+187614862+187615384+187660942+187594317+187468297
2623+187390564+187361154+187478222+187745036+187938081+188018525+188110407
2610+188242371+188339120+188381028+188495263+188690898+188847406+188908608
2596+188905774+188956530+189055104+189052844+188898613+188611983+188210249
2583+187796731+187479786+187178347+186789928+186359948+185902418+185363853
2569+184719987+184007428+183316231+182708641+182184538+181700726+181207372
2556+180684607+180179936+179784182+179477093+179166754+178813795+178452231
2542+178214514+178108240+177992962+177901794+177929622+177974676+177889452
2529+177773253+177844120+178010692+178042136+178019314+178097950+178242412
2515+178412391+178542739+178603159+178728327+178913342+179026012+179092394
2502+179173898+179274071+179424252+179604539+179715088+179746133+179744325
2488+179624928+179275027+178818053+178493843+178253902+177931273+177607776
2475+177287842+176803822+176233726+175751722+175333214+174907997+174485492
2461+174110492+173727305+173281090+172858967+172419914+171876395+171358323
2448+170936687+170505960+170011927+169553181+169275398+169095529+168768694
2434+168325226+167945029+167593685+167240361+166985679+166832560+166700300
2421+166575723+166444089+166198324+165862747+165682912+165704796+165704101
2407+165600399+165465237+165343267+165222097+165097450+165070421+165105880
2394+165018553+164808421+164618644+164500342+164254873+163626495+162586979
2380+161240288+159695076+157988125+156096558+154088915+152212437+150668737
2367+149306037+148069913+147225858+146840985+146866815+147520953+148988606
2353+151131586+153336064+154408571+153699696+151987861+150757125+150397143
2340+150505120+150878869+151348132+151654699+151780997+152111551+152769496
2326+153439383+154040680+154761113+155626878+156564883+157500159+158205296
2313+158477812+158536215+158820325+159390265+159961265+160331728+160502350
2299+160639443+160910533+161233874+161395214+161394814+161414977+161549897
2286+161769119+161965762+162018360+161907550+161689022+161481950+161401037
2272+161377623+161316317+161262971+161226730+161138446+161026819+160960211
2259+160883034+160762872+160669670+160577423+160417300+160287908+160298268
2245+160352760+160351579+160335170+160320864+160263608+160155926+160077950
2232+160099904+160157091+160154709+160103606+160086676+160129714+160148348
2218+160140109+160201589+160284936+160312243+160328148+160362355+160434838
2205+160561084+160705025+160848809+160990421+161111765+161164137+161133962
2191+161105160+161137334+161221776+161293564+161271071+161198345+161153760
2178+161115971+161054056+160962801+160839701+160733253+160690389+160657433
2164+160595066+160529727+160462685+160400944+160364285+160380520+160464544
2151+160572470+160675597+160751957+160766297+160768087+160815001+160862628
2137+160897427+160979470+161110687+161237837+161334585+161398308+161428744
2124+161447151+161463317+161472720+161519913+161648036+161820118+161928564
2110+161925349+161916171+162024913+162233897+162435060+162601232+162789810
2097+163059736+163376993+163594129+163727067+163948358+164255360+164557373
2083+164894758+165272053+165551400+165695479+165841680+166117654+166476107
2070+166678295+166608315+166560827+166834525+167219937+167466588+167652176
2056+167823650+167923475+167954502+168014609+168156342+168272854+168240193
2043+168134997+168206315+168475059+168712150+168814617+168900189+169120889
2029+169419339+169627106+169692011+169718154+169747268+169648799+169590100
2016+169959121+170579295+170977987+171171657+171475565+171903737+172245537
2002+172446491+172619147+172870387+173037498+172833485+172660812+173164161
1989+174058276+174906711+175630690+176170107+176601460+177063093+177626549
1975+178255953+178815359+179048487+178853443+178880663+179713315+180709185
1962+181272971+181594278+181791113+181903609+182050314+182189561+182159734
1948+181796553+181052810+180130763+179959341+180987819+182001800+182281582
1935+182232095+182282746+182415441+182435569+182082697+181159049+180451426
1921+180537242+180776071+181465443+182720704+183287672+182897880+182648482
1908+183239385+184085838+184622509+184963544+185147151+184916404+184526038
1894+184520772+184427065+184160077+184783675+185901062+186602115+187054448
1881+187413891+187770588+188171001+188368843+187684564+185582067+183784520
1867+185059424+187753397+189345193+189920469+190277409+190682741+191102448
1854+191449567+191513568+191001945+189755357+188256746+188590238+191207453
1840+193166166+193791398+194315762+194643239+193574331+192078884+192553640
1827+194091342+195764329+197887389+199474422+200179838+200614250+200733282
1813+200142136+199721647+200587777+201937510+202483341+201805111+200855895
1800+201194601+202123915+201804120+200398086+200903591+204260568+206873715
1786+207769516+208057554+208220875+208794431+209894905+209844984+207826911
1773+206262614+208454299+212435743+215646641+217052744+217228511+218318869
1759+220059994+221617929+223170476+223142108+221209868+220639111+223432580
1746+227048879+229803777+232096207+234956736+237278733+237254850+237714466
1732+242389141+247973349+253033835+256707808+258928138+260342115+259864526
1719+257428798+258514480+265721615+272820007+277405911+279459808+280234909
1705+281995362+284206723+285735578+288560664+294238161+304012536+313637113
1692+319017342+322517634+325006151+326594801+333385687+345618787+355375328
1678+362513612+369153379+376954232+383470725+389618824+399371993+407810975
1665+411730487+413993976+416994117+418668390+416962517+411804152+408298541
1651+411481159+412801360+414408608+422098876+430004507+434703847+436516760
1638+436380102+440500689+451065808+459467802+465398798+471660610+478761801
1624+487388266+498789530+508720865+515889777+525164939+536301406+544610962
1611+550427376+555256803+559721207+563078931+564790541+565600405+565464895
1597+563234014+558929629+554092137+549552538+544872353+539796414+534357850
1584+528710842+522889456+516392709+508063963+500275904+497407276+494741079
1570+490251923+488164965+488551785+488371533+486538944+481901797+479958172
1557+487500658+494748171+500155759+504513681+509281923+513363818+515238819
1543+516571361+523332490+544267180+563099929+575058080+589440469+606570265
1530+619202352+628419981+636370945+641813054+647006461+654116968+658629277
1516+660736954+662572429+661530758+655492583+645960409+644333728+654410308
1503+661639847+664933188+666557506+670111577+676228040+680525299+682254673
1489+686448752+697123551+708868042+717545784+724057098+730181765+734336421
1476+733886922+732824948+739872950+750228546+756391732+759361072+764131678
1462+771547344+775949590+772493831+770237433+780345718+792029997+797906101
1449+798174063+799647643+804871712+811793033+818272294+821159243+821485400
1435+825176233+830784028+833535745+835080870+837569074+838051948+836615495
1422+834067149+829506448+829923270+837381905+843859497+846458808+845995055
1408+843662941+840846424+838387212+835005779+828932354+822143484+819210716
1395+820965816+823608582+823215747+819554950+815559235+815158405+817415290
1381+818597269+817146494+813827567+810058792+808169225+808651959+809425043
1368+809813427+809158680+806379013+803979179+804451970+805504557+805360773
1354+804568708+803474613+802311476+802364595+803321998+803415444+801665698
1341+798582263+797226533+799197587+801950068+803604491+804513711+805143706
1327+805207116+805079184+805178540+804756921+804527686+806855698+810771108
1314+813403723+814997448+817147467+819546815+821397447+823595163+826686663
1300+829274085+831589165+835511875+839545274+840594245+839033268+836976972
1287+835471479+834074797+832240366+830623140+828959818+826518822+824673545
1273+824520026+824589416+823389846+821306295+818773106+815717760+812433040
1260+809670129+808350137+807812476+806774072+806206792+807296855+809224106
1246+810836395+811724200+811956911+812087485+813027714+814902472+816814845
1233+818396054+820115069+822352764+824697254+826532033+828040864+829544897
1219+831502324+834456646+837519640+839284821+839800929+840075356+840881188
1205+842315624+844036377+845768184+847407172+849001105+850810368+852983123
1192+855093929+856879343+858885787+860903634+861623876+861847757+863779110
1178+866745808+869262380+871681544+874144371+876654825+879587106+882501797
1165+884710985+887460407+892309163+897577034+901066097+903542691+906642605
1151+910063738+912786601+915524899+917522860+916886747+916488142+919466451
1138+924608198+930526923+935925021+939490704+941285365+941937609+943186613
1124+945661747+949031569+952939817+955118552+955506797+956322015+957712926
1111+958440191+957263496+956108077+958908255+964071487+965889370+964906103
1097+966688110+972023563+977700330+981975896+984345068+984837675+985481367
1084+988537130+992252647+993684093+994066706+995076533+997109676+1000429229
1070+1003502305+1005724773+1007060549+1006936093+1007063538+1008684449
1059+1010916234+1011985994+1011131215+1011202273+1015010539+1020042293
1047+1021412415+1020179055+1022426275+1028252389+1032408227+1034137671
1036+1034709401+1034192389+1032813715+1029453488+1026114884+1026779712
1024+1030246735+1032545545+1033312580+1035597623+1039430503+1041271261
1013+1039211698+1035348643+1032894229+1030493769+1026540953+1024581857
1001+1026312483+1029306853+1032409339+1034893581+1035074007+1033170464
989+1031086774+1030405051+1030220106+1028708980+1028425653+1031412444
978+1033990340+1034465287+1035129142+1036514422+1037642864+1037171394
966+1035841806+1036917894+1040671025+1043992942+1044865520+1044493336
955+1044068797+1044750868+1050673139+1058994341+1059609109+1053515034
943+1048013965+1044243521+1042522560+1043707876+1046993917+1051418203
932+1055115642+1055903535+1053883116+1051915747+1053427359+1057653699
920+1060589178+1061029431+1061031099+1063689439+1069755842+1073741823
908+1071336148+1066844489+1064387294+1062582342+1060091356+1058540600
897+1059378136+1061010032+1062594440+1064604986+1064713033+1062394616
885+1059944930+1058243158+1058884834+1060919785+1059323626+1053684266
874+1048169777+1046109449+1048007012+1049405363+1046322344+1041519407
862+1038081100+1034394855+1029378119+1024395174+1020898880+1019009244
851+1015975938+1011434636+1007636242+1002717193+995777238+989315498+984318230
837+980856701+978021481+973587877+967180091+960221781+953967374+950241012
824+949868062+950684115+950014767+947731044+946139892+946006259+945776677
810+944480672+942360341+939270717+934596686+929767467+927156893+925515472
797+921516211+914453678+905948227+900341197+901035992+903836795+904204252
783+902764671+900292040+897161534+893208927+888739517+884867423+881938966
770+880158141+879089840+878353746+877483183+874568701+869197233+864116114
756+860627468+857745386+856341543+856843466+856930029+855524865+852981941
743+849154067+846535775+848090982+850858481+851257017+851323903+853648160
729+855977424+853569871+847080529+841950670+840584859+840666833+839482907
716+837279907+835941211+836150074+835743125+834107545+833568423+833765953
702+833160501+831683375+830220294+829966655+829443386+827535533+826196142
689+825603832+823974300+822689002+823519238+823822589+822654933+822264254
675+822080909+821614792+820012167+813824438+808415076+811711685+815370466
662+814778573+813787379+814849770+814964074+813054274+812126351+811986808
648+810885551+809566046+807885897+806558326+805774744+803748554+809402307
635+833456344+850842768+831088075+802954959+791209634+788743609+790388228
621+793282130+791776080+785665457+782416545+787066311+795285237+805923951
608+817163320+818122531+811849768+812097219+814003264
##END=
