##TITLE=Sample description
##JCAMP-DX=4.24
##DATA TYPE=INFRARED SPECTRUM
##DATE=25/8/2023
##SAMPLING PROCEDURE=Instrument type and / or accessory
##ORIGIN=Default
##XUNITS=1/CM
##YUNITS=ABSORBANCE
##RESOLUTION=4
##FIRSTX=4397.6552
##LASTX=599.8556
##DELTAX=-1.9287962
##MAXY=1.925889
##MINY=0.6142959
##XFACTOR=1
##YFACTOR=1.7936239e-009
##NPOINTS=1970
##FIRSTY=0.72866291
##XYDATA=(X++(Y..Y))
4398+406251779+406345160+406665245+406557309+406014208+405621014+405691598
4384+406236526+406660758+406184187+405288634+404883144+405166741+405928870
4371+407084359+407986392+407391417+406123971+406176676+407077779+406747226
4357+405091804+404250451+405327149+407307209+408390885+407683455+406297240
4344+405340774+404490747+404078512+404878791+405969977+406244734+405994535
4330+406036573+406476191+406497459+405958878+405301693+404858420+404890289
4317+405032087+405127029+405262613+405411025+405677773+405707117+405193658
4303+404402219+403861245+403937777+404491279+405176212+405579940+405676776
4290+405943159+406099812+405448809+404667073+404663484+404910693+404987358
4276+405251281+405582931+405581203+405343764+405373673+406129322+407177706
4263+407501413+406991776+406356990+406140620+406280458+406432459+406372908
4249+406042554+405990547+406501746+406731309+406176843+405693625+406007495
4236+406316614+406054152+405812294+405571665+404941465+404344230+404219313
4222+404316582+404649427+405452896+405917039+405232738+404435251+404999819
4209+406067744+405849945+404902551+404812926+405494967+405752843+405441432
4195+405592069+406286706+406480611+405862839+405143146+405018728+405630252
4182+406413018+406697280+406325852+405297108+404305050+404549168+405534180
4168+405521120+404336620+403338316+403193526+403601575+404353136+405240714
4155+405648031+405235829+404920762+405361344+405363670+404555416+404185052
4141+404442695+404798769+404806745+404195952+403775508+404195353+405087517
4128+405908532+405886134+405040029+404628159+404921460+405077481+405042754
4114+405191698+405377062+405305814+404699873+403830439+403650192+404123673
4101+404310268+404384839+405036141+405471140+404704226+403640655+403460674
4087+403974830+404587484+404995067+405051827+404785344+404351076+404046975
4074+404326983+405054319+405400956+405227621+405062062+404843665+404442961
4060+404584261+405458579+405943625+405637929+405467651+405913683+406274543
4047+405771685+404896935+404551993+404613039+404780027+404851375+404518462
4033+404101176+403932859+403969313+404037471+403846490+403765572+404319572
4020+405197945+405595127+405159031+404697646+405074656+405642315+405231210
4006+404305482+403945719+404133277+404288667+403961205+403715160+404219546
3993+404956220+405518927+405765504+405515272+405285975+405587118+406128591
3979+406791025+407600509+407622807+406503740+405455621+404950504+404343798
3966+403767898+403738422+404033982+404331702+404514408+404703163+405040295
3952+405352970+405484533+405193193+404572563+404000850+403808141+404360115
3939+405113105+405163983+404227887+402798305+402313525+403105862+403541725
3925+403024079+402668138+402849050+403111711+403365931+403720410+404225727
3912+404429236+403880253+402864270+401884641+401177211+400636569+400588948
3898+401686116+403038402+403256965+402442330+402455091+403047873+402184554
3885+401090510+401215759+400916211+401234801+402349282+402175582+400950074
3871+399733506+399382947+399609951+398530495+398044121+400399031+402595361
3858+402150459+398570905+394068215+396243643+401614968+404770456+404885736
3844+402817712+400037141+396851213+394776044+396406344+399213135+400859286
3831+402019859+402876765+403059803+402482441+400168106+397603007+398699676
3817+400852241+402717819+405126830+406637928+405700238+402894776+401561931
3804+400986728+399158336+398966757+400596525+403089080+406107522+407738054
3790+407736127+407368421+407178138+407289098+407107023+405726491+404719479
3777+405599115+406665444+406362207+404861344+404073095+404527734+405180199
3763+405666475+405299201+404571500+405208280+406157768+404873108+401173987
3750+400777404+404128293+406865829+410016266+414479311+417930060+419261376
3736+418401215+417951793+420886525+424852394+426727609+425783771+423322088
3723+421093158+419902344+419595286+419312220+418362101+416616622+417217944
3709+422904270+429772437+435120434+439487904+445591982+454019433+462609785
3696+470024410+474836616+476457511+477054480+480035038+483048628+482572123
3682+478528326+471947976+463323861+452731716+445916420+443863816+439210023
3669+434629007+434594846+435273896+434663867+432923073+430343120+427376619
3655+425672412+424674473+421093723+415628021+415594955+419138354+421966679
3642+423631074+423987181+422993031+421280218+419575446+417556373+413030953
3628+408225193+408158564+408390985+405217552+398860550+393607063+391821905
3615+390261724+388245109+387241189+387333539+388565061+390551402+391373879
3601+389653855+386696061+384183035+382138174+381020136+380502159+378558121
3588+375041142+372962052+372557127+372157520+371216107+369986080+368846409
3574+367680817+366361863+364953815+362729936+359822986+359184145+360263401
3561+360103758+358309461+356516560+355067505+353679097+353031084+352975821
3547+352669992+352252273+352220005+352600339+352890748+352488116+351324153
3534+349864397+348549464+347714358+347665176+347895403+347546108+346709208
3520+346105460+346034843+346157500+346149824+345856258+345158531+344547505
3507+344506066+344757561+344962931+344937243+344620215+344241876+344089344
3493+344057342+343937543+343659030+343085257+342682392+343018096+343679900
3480+344004006+343894741+343798336+343992175+344173253+344177341+344066946
3466+343587782+342758293+342488687+342909064+343114268+343358452+344115796
3453+344648961+344374868+343665311+343374005+343794614+344294714+344643876
3439+345045877+345233601+345049798+344973665+345473631+346127725+346229712
3426+346226156+346620480+346983201+347207314+347481307+347900222+348826713
3412+350141913+351167301+351854992+352557670+353031317+353205184+353826179
3399+355320961+357012107+358119976+359131374+360456576+361350633+361843621
3385+362920585+364774532+366726843+368610366+370826635+373109699+375097502
3372+377225342+379813504+382759967+385988165+389056687+391561271+394045053
3358+397307546+401425815+405798669+409902249+413256528+415783809+418640580
3345+422447570+426653603+430649779+433855314+436615780+439784096+442981256
3331+445296887+447015283+449048945+451230055+452988163+454751588+457061868
3318+459152988+460097358+460343868+460370786+460350348+461133879+462923157
3304+464576818+465075655+464325954+462935220+461782124+460843735+458825559
3291+455418409+452036748+449403890+447403692+445951546+443949719+440879270
3277+438365979+437122061+436031273+434672374+433452018+432370468+431168920
3264+429739239+428408686+427740270+427325376+426498180+425633831+424796233
3250+423551451+422428994+422246354+422425471+421814346+420572056+419529820
3237+418536832+417208539+416628452+417005429+416676870+415404074+414066377
3223+413043016+412435446+412254867+412264105+411969309+411824321+412299762
3210+412900985+413268159+413188403+412858216+412357685+411354495+410568439
3196+410643875+411090172+411497855+411226022+410420161+410621443+411659426
3183+411627159+410171091+409207447+409783613+410408696+410128356+409685614
3169+409905539+410537102+410300893+409407932+409942526+411938637+412919462
3156+412031153+411097384+412052022+413882541+413793747+412171223+411869249
3142+413625928+415017161+414317208+413285140+414181856+416113897+416204286
3129+414670391+414744431+417511975+419740606+418593292+416346284+416579702
3115+419296469+420546169+418574948+417240010+419383169+422620772+422429459
3102+419085316+417396795+419605454+422534736+421404869+417824351+417562653
3088+421971364+425443382+423220466+419523340+419188134+421400050+422554941
3075+420709335+418607914+419319565+422308663+423727179+421673810+419387622
3061+419628949+421586212+422185075+420352563+418324982+417825049+418644867
3047+419117152+418643405+418373433+418927766+419748582+419586612+418257456
3034+417208340+417421453+418347180+418832525+418565644+418446609+420714752
3020+429960493+446584172+458613343+455723174+444852550+436014525+431180717
3007+428460361+426458933+424897523+424181353+424532343+425381837+426148552
2993+426754992+427960960+429711258+430219665+429297427+428816901+430097872
2980+432372097+433110465+431747413+430512966+431058326+433002596+434114020
2966+433061814+431371864+431006851+432946967+435343981+434971723+433055567
2953+432426397+433702815+436115482+436783001+434656590+432647120+433012565
2939+435224016+436404429+435173305+433691616+433843251+436020672+438616045
2926+438560515+435789149+433127712+432862293+434471158+434691449+432851593
2912+431763995+432465178+433998275+435116147+434828396+433655294+432952051
2899+433809787+435765688+436345775+434939389+433743889+433925964+434927691
2885+435688225+435720759+435555865+435652335+436195902+436812843+436685433
2872+436044034+435764458+436269841+437235878+437716039+437375650+436947729
2858+437040278+437343847+437363653+437052740+436365016+435667888+435789016
2845+436396553+436602521+436774660+437372194+437990796+438568491+439306594
2831+439847103+439973482+440112688+440621295+441298085+441793699+442054532
2818+442075036+442002425+442374118+443207761+443810679+443894721+443763424
2804+443790042+444095173+444352550+444376643+444564899+445077227+445511761
2791+445632989+445767145+446309016+446952542+447257440+447463541+447764120
2777+448115874+448656848+449153093+449139667+448784124+448644453+449064099
2764+449878335+450445063+450523456+450536848+450627470+450555325+450454135
2750+450905451+451875343+452330846+452121621+452354772+453107131+453465266
2737+453388336+453540469+453965100+454267306+454628199+455111650+455239225
2723+455164621+455402691+455905648+456430438+456872084+457092275+457057315
2710+457013084+457170535+457487164+457815889+458308810+459117231+459785714
2696+460108590+460388232+460566087+460407473+460159268+460329645+460705127
2683+460887235+461194293+461703764+462166079+462550965+462668073+462445157
2669+462321835+462533386+462862011+463275111+463708349+463839713+463679138
2656+463594631+463808541+464243873+464666942+464855397+464917806+465122013
2642+465448810+465782288+466129722+466486262+466675116+466752811+467022783
2629+467384407+467614468+467677408+467603003+467595194+467923886+468575055
2615+469153448+469386699+469354099+469251547+469361609+469942228+470786937
2602+471250914+471348316+471673651+472057308+472087615+471964525+471861674
2588+471906935+472228981+472559467+472859647+473210304+473377392+473554748
2575+473926906+474155406+474173018+474170559+474194253+474412251+474999749
2561+475657964+476021814+476129351+476085585+475926174+475765135+475738749
2548+475778494+475649024+475395901+475370279+475682223+476203158+476876061
2534+477451230+477716483+477835651+477903509+478104991+478643805+478959736
2521+478675674+478546637+478973195+479388289+479514934+479697507+480063916
2507+480257755+480308865+480526431+480678232+480690129+480958041+481371207
2494+481558200+481859775+482436273+482693451+482748349+483256491+483918693
2480+484053413+483920089+484057467+484284272+484338738+484300422+484369710
2467+484595816+484886392+485230303+485354988+485296401+485497185+485771510
2453+486022075+486460929+486747084+486684576+486621935+486679957+486663075
2440+486688398+487060457+487506688+487720067+487934343+488095416+488058695
2426+488090730+488270179+488510841+488756588+488991068+489333751+489610369
2413+489649349+489867680+490435903+490973787+491351096+491586308+491636820
2399+491712887+492282506+494033868+497743191+504230094+514744112+530489485
2386+551069129+574360656+598265270+621749173+644571373+666873103+689131964
2372+711791529+733730372+753301144+771165949+787363934+799968739+807442548
2359+807719300+797974190+779516802+758897712+740630408+730835850+736312984
2345+751719329+756761464+747370402+737042945+729893473+726204256+728972365
2332+735841363+737116519+731436474+728132807+729720205+729206580+722685116
2318+712000488+700960550+696590686+701006542+705012654+699439681+684654364
2305+667149521+654023781+646312167+639742983+632067924+623075970+612027591
2291+599735095+588101909+577695893+568688321+561460623+555689192+550710729
2278+546050456+541807736+538311127+535306111+532565916+530255203+528472338
2264+527035977+525601743+523972972+522264047+520943099+520370987+520237629
2251+519827088+518919705+518058280+517544855+517057151+516580446+516472012
2237+516554493+516481251+516315658+516074432+515944065+516224771+516649667
2224+516926252+517227994+517611417+517825827+517832340+517866967+517939843
2210+517883417+517944695+518508931+519337291+519998695+520462107+520906311
2197+521434525+521839881+522055786+522324362+522548574+522636770+522849551
2183+523282822+523829944+524292525+524471908+524506236+524627099+524868891
2170+525263082+525592272+525492279+524960078+524187348+523618792+523710311
2156+524230781+524670333+524856828+524817648+524709812+524709779+524764976
2143+524982310+525570605+526249323+526665115+526883113+527289068+528003177
2129+528556480+528725229+528782188+528911824+529198411+529704958+530355861
2116+531052591+531614069+531800563+531737689+531854996+532383542+532918036
2102+532949772+532691830+532587018+532893544+533635801+534348714+534543351
2089+534479879+534681228+534947611+535010484+535172620+535611275+536098913
2075+536500348+536997955+537624234+538163447+538662649+539314550+540000878
2062+540575781+541074950+541616921+542416602+543307503+544001474+544584453
2048+545205514+546015364+546875858+547537628+548058929+548557234+549189495
2035+549929325+550453385+550538391+550392638+550496187+550938896+551332455
2021+551475151+551475217+551285433+551025264+550907725+550766956+550827836
2008+551246685+551344917+550954481+550686802+550789819+551060589+551316039
1994+551483658+551499177+551440457+551473423+551596977+551793574+552031378
1981+552162310+552183511+552316038+552764762+553448731+553839167+553715479
1967+553829230+554629310+555451023+555864621+556071819+556385257+556919386
1954+557445007+557794468+558034997+558228404+558278982+558151241+558500569
1940+559582052+560491064+560991329+561450322+561883526+562286557+562740032
1927+563067229+563067428+563114152+563414962+563622193+564183339+565285159
1913+565981490+566013658+566014788+566356407+566787884+567181476+567680745
1900+568212846+568458493+568352551+568304100+568370164+568490727+569219093
1886+570351885+571065098+571280637+571352084+571494182+571801905+572252190
1873+572267543+571013855+569442874+570301839+572804961+574442140+574921536
1859+574987667+575110423+575228993+575140797+574973045+574929578+574753983
1846+573944998+573647643+574990724+576029272+576043030+576351484+577199483
1832+576921801+575188650+574410769+575251790+576650699+578169308+579307417
1819+580003748+580213438+579867167+579102845+578442005+578761026+579625508
1805+580150431+580156745+579486136+579029137+579804492+580435025+579585032
1792+578982813+580662926+582718754+583786745+583976164+583667510+583617663
1778+583954032+583518567+581526743+579596331+580899534+583678942+585540632
1765+586231646+585832603+585642187+586186983+586755772+587542093+587386371
1751+584963269+582480152+583046681+585171431+586494041+586374009+585946786
1738+585811867+584300702+581904451+583151161+586603638+589431897+590969514
1724+591520623+591489652+589987925+586327352+584033787+586737095+590377662
1711+592216223+591904047+589830208+587561766+586082968+583837788+581570542
1697+582169505+585742081+589930767+591699807+591083099+589179338+585555520
1684+582821239+585948780+589381385+590047276+588513314+587067482+586201538
1670+585107693+586779898+589928972+590461472+589475629+590121050+591032188
1657+589394279+583561436+577771196+580274717+581546283+580599521+583781494
1643+588596658+590854600+590189639+586985799+585541629+590381650+595211303
1630+597335255+598408962+600120978+602545408+605953023+608654138+608801021
1616+609495225+613944312+618009510+619989836+621354716+623282869+625560483
1603+627738071+629839957+631774291+633085336+634029906+635126742+636329918
1589+637812039+639903357+642595301+645127667+646258199+645327653+642413126
1576+641143221+644495938+646821472+646450676+647607793+650871649+653581670
1562+654300067+650493475+644981449+649372181+656446417+662428136+666650120
1549+669547898+671047898+670078604+666264370+662994001+671092295+682361198
1535+687423072+689534263+693270138+697231986+700141661+702371888+702241089
1522+702159140+707627036+715588018+723873338+731743931+736771045+737652143
1508+735172016+738676401+751048653+760438519+765439779+767214137+770508366
1495+777809240+783616494+785459043+787284577+794406466+803528686+810989204
1481+817071814+822200948+825296720+825413362+824476436+829322239+839380788
1468+847401121+852224726+857968110+863731034+863743728+858165571+860414540
1454+872024064+880422039+884636313+887560079+891255345+894575295+897008166
1441+900156045+902706223+903600812+908091173+915267628+919462628+920894502
1427+920962627+918833291+917455982+916656767+910512347+905278865+908379023
1414+912409062+912835621+909703959+904423024+899040666+895269034+893004114
1400+890731817+887747903+883250763+878639507+878168352+879997408+878249104
1387+872001866+868344351+869851794+872345478+872859170+870979535+867931085
1373+867689160+870698596+872698994+872839629+871801813+869662375+869352658
1360+871726843+873368142+872992560+871432014+870133928+870473553+872224117
1346+873183242+872618508+871862560+871586540+872356910+874025060+875560551
1333+876659314+877077963+877199789+877670545+878040345+877982322+878206169
1319+879625084+882070716+884842946+888089788+891221715+893900565+897692933
1306+902075557+904995202+907615033+911985827+917716184+923012141+926268220
1292+927197570+927527558+929164935+931635757+933569692+934397818+933922343
1279+933908320+936795531+941399277+944684667+945898676+946536254+947716036
1265+948005880+946641199+945671307+945876345+946889305+949271132+952111952
1252+953900600+955841978+957566422+956776180+955363114+954347761+952781632
1238+953002288+955977230+959401594+960672230+959798576+959883515+960663191
1225+959243877+957173561+957542429+958940740+958425587+957075462+957134348
1211+957916947+957684660+956403656+955870890+956472378+956426718+955817321
1198+956033657+956360521+955596332+954312536+953829418+954893155+957117998
1184+958997101+959417811+958774650+958295652+958916614+959978158+959367299
1171+956894816+954954766+954351749+954874213+957147374+960058711+961836924
1157+962100715+961856929+962735701+964504808+966032854+967011320+968034980
1144+969927841+971766003+972424716+972656272+973671625+975650289+978027464
1130+979856322+979329471+977566212+979924645+986080763+988063283+983954884
1117+979917667+980305344+984267326+987474555+989383965+992859372+996105283
1103+995932014+993152274+990768452+990947569+993775296+998707634+1004782069
1090+1009636314+1011636313+1011659309+1011192474+1012244115+1016681305
1078+1022288308+1026060006+1029089248+1031715127+1033364601+1034659961
1067+1032985963+1029648267+1030795215+1033078878+1031625735+1031712402
1055+1036198243+1039592167+1038573425+1038542121+1044011213+1049040786
1043+1046113764+1039260983+1036521452+1036924150+1036992141+1038463828
1032+1042777663+1049411117+1054559791+1053115089+1047937171+1045014203
1020+1046712261+1052285567+1055686270+1053056602+1050414838+1053165601
1009+1058925069+1061741231+1058695772+1053055804+1048095419+1043439101
997+1040107985+1040301325+1043183551+1046408393+1049840068+1055011739
986+1059299919+1056779251+1050358478+1047791750+1048382738+1049205481
974+1051408989+1054683545+1056719833+1056021907+1054539254+1055260243
962+1056466543+1056759245+1059136554+1064373424+1067928919+1065510603
951+1060398549+1058661079+1060058193+1061344980+1061928789+1063697498
939+1066944804+1067605511+1066007678+1067130634+1068560847+1066381598
928+1063823511+1063327898+1063469464+1063492194+1063770540+1064920347
916+1068786821+1073741823+1073572143+1070323175+1069278912+1067507877
905+1065318393+1065224148+1064795131+1063871630+1063561980+1065104582
893+1069230394+1072095340+1071967931+1070635617+1068078992+1065087501
881+1062558192+1059479834+1057356414+1058365120+1060471193+1061174436
870+1058653302+1051881074+1046338474+1049129713+1056789552+1057126585
858+1048173380+1039420227+1034684885+1031793287+1028762184+1026098754
847+1024541131+1020913724+1016379033+1015491355+1014047717+1008779941
835+1004749170+1003722586+1004219395+1003931013+998118907+989546799+986805208
822+989498015+991126554+990289388+986475818+976539229+964382450+958314328
808+960143053+965399597+968584362+968152021+964746998+958360387+952699949
795+951286285+951908776+951705532+950894952+950477964+949038047+944084042
781+937303573+933426996+935051347+940074806+942465806+937889642+929256920
768+922875427+919885265+917490676+915773210+916452793+917975057+916774273
754+913489415+909901487+904673522+899491217+896731349+895565392+895050172
741+893979722+892295820+891389666+892082076+894009497+895853707+897624543
727+899271558+899982843+901302927+903408137+902528568+898766440+896668674
714+896895911+896514680+894432467+893073634+892880759+891251756+889438517
700+887815695+882258673+874508245+872022070+877297556+886213875+893350319
687+894488827+888337162+880004985+876713282+878035227+878848865+879736409
673+883431741+887696859+886673133+879375582+877558024+880721587+880152067
660+875340824+872471226+873225778+874359235+872597173+870083284+871801480
646+872466773+863591595+852814517+853153212+863543011+868672743+861825279
633+854569335+854699336+857741339+854888489+845140455+840352075+847229381
619+853264271+846893478+841594199+843339977+837933959+831969852+841689772
606+852368419+846078378+836401526+829660801
##END=
