##TITLE=Sample description
##JCAMP-DX=4.24
##DATA TYPE=INFRARED SPECTRUM
##DATE=25/8/2023
##SAMPLING PROCEDURE=Instrument type and / or accessory
##ORIGIN=Default
##XUNITS=1/CM
##YUNITS=ABSORBANCE
##RESOLUTION=4
##FIRSTX=4397.6552
##LASTX=599.8556
##DELTAX=-1.9287962
##MAXY=1.7947391
##MINY=0.087107755
##XFACTOR=1
##YFACTOR=1.6714811e-009
##NPOINTS=1970
##FIRSTY=0.087107755
##XYDATA=(X++(Y..Y))
4398+52114114+52222984+52450163+52718761+52904571+53020742+53251755+53607706
4382+53843056+53905728+54007056+54148157+54066300+53839949+53868455+54348124
4367+54987508+55371029+55615998+55885203+56000045+55981141+55949809+55715520
4351+55251769+55006301+55009131+54788232+54389418+54329398+54647456+54765116
4336+54430930+53978443+53742077+53904966+54404733+54855669+54799688+54230099
4321+53854869+54070931+54290823+54205101+54286682+54572758+54599431+54496321
4305+54678092+54975584+55131725+55329806+55737420+56144556+56347010+56554122
4290+56942569+57161118+56936841+56763195+57156777+57775804+57983134+57725827
4274+57479400+57352335+57027653+56763525+57015925+57481120+57697165+57701730
4259+57704048+57877648+58223873+58477624+58458247+58154399+57734760+57670634
4243+58133770+58637473+58886963+59146530+59514160+59772016+59806111+59766346
4228+59892608+60195529+60579273+60891590+60897265+60701430+60593372+60694878
4212+61098952+61609836+61766026+61646040+61760432+62082984+62154990+61970138
4197+61888589+61921467+61901912+62002615+62324761+62650456+62960557+63228875
4182+63272353+63297132+63450246+63545877+63553018+63423956+63245840+63340307
4166+63601912+63620152+63442477+63430183+63530352+63535986+63530548+63538224
4151+63495347+63463137+63501873+63576157+63624012+63610519+63639738+63813392
4135+63927611+63916877+64028510+64262625+64516621+64850289+65149377+65217246
4120+65103291+64940807+64954211+65288615+65613747+65629857+65429364+65276491
4104+65435640+65792871+66008836+66152072+66532740+66940452+66869587+66507970
4089+66414688+66560229+66629369+66668898+66878301+67191528+67413176+67540780
4074+67639611+67759107+68014538+68280671+68316384+68202915+68122850+68226477
4058+68555064+68869655+68918188+68646416+68334112+68291044+68280733+68156107
4043+68355267+68920813+69259153+69166291+68998097+68988642+69109953+69120642
4027+68865456+68695635+68805850+68955443+69135008+69300140+69302827+69326305
4012+69319935+68974548+68585388+68675986+69087505+69397397+69489230+69434399
3996+69506512+69728565+69639991+69435045+69801895+70365159+70381201+70183646
3981+70230989+70166423+69828822+69697920+69967936+70302063+70486242+70621276
3966+70674530+70394788+70053399+70164943+70678657+71208120+71039574+69762736
3950+68180044+67787046+68401691+68442883+68550344+69926664+71219933+71035866
3935+69283255+67231342+67161324+68664468+68988763+68101632+68079171+68307523
3919+67518969+67483724+69631040+72068002+73209129+72645958+69504488+63965107
3904+59538097+59402273+62320785+66448806+69119269+68407072+66376154+66920834
3888+67934771+66710798+65292939+64665853+65158653+68087627+69538507+67236762
3873+63597878+61387043+62471256+64349742+63918361+64375493+67462983+68897737
3858+66334708+60130464+54818868+59817928+67698570+71680497+71401419+68153348
3842+63815171+59824538+59045863+62739855+66615538+69089889+70856511+71311351
3827+70721694+69300402+65458454+62109180+63801531+66707072+70683008+75348765
3811+77177781+75139682+71517496+69656064+67954201+66664597+68859215+71841634
3796+75293510+79312010+81678696+82120485+81319032+80090962+79717792+79648683
3780+79092890+80250576+83126991+84411100+82945251+80419532+79717747+80723487
3765+82159399+83040507+81661348+79541909+79522144+79066582+74904470+69306023
3750+69976351+73464734+74967579+77774164+81690615+82674718+79468245+74668559
3734+75975895+83747356+90133968+91981457+91074308+90775764+92630715+95926980
3719+99319464+101042919+99543612+95328814+94511616+100707547+107066996
3705+109866245+110145862+111456492+115007903+118225253+119789630+118911579
3692+115730183+115159315+122196879+130580653+135979392+138639959+138694653
3678+136571175+135800318+141948786+148718385+154155797+164279857+175628849
3665+184304570+191069266+196599563+200997465+205892537+212394776+216348233
3651+215951715+218726580+233379932+249585411+261405576+270753876+279696529
3638+288210408+295325140+300987003+304977154+308901406+319137082+332954283
3624+343251365+348974760+352200828+358631677+368224265+376936483+385595106
3611+394297803+401916194+410540191+419942640+427590272+433616953+439368019
3597+444812911+450390671+457602005+464220103+466972896+468196811+474722336
3584+484320094+491357766+495603668+499017807+503123389+507827092+511419743
3570+512340051+510529425+510920256+516456187+522868101+528030531+532303250
3557+535744455+537471387+537944984+539213545+540944114+540982484+541600967
3543+545838561+551252928+554777184+555928924+557160256+559366205+560740676
3530+561268369+561744071+562004637+562527730+564692920+568445791+572139395
3516+574060245+574285900+573837550+572542886+571424916+571512532+570837706
3503+569049511+569632263+572109405+573416978+574549141+576093352+576482756
3489+575368317+573553627+572469534+573287105+576090641+579292319+581447774
3476+581920124+580395847+578135124+576871591+576684198+576413790+575884064
3462+575989582+577156263+578110304+577921878+577879407+578196030+577420323
3449+575534527+574811597+576022139+576861428+576488961+575683763+574890904
3435+574653481+575178678+576103158+577092360+577700645+577693655+577783019
3422+578598558+579608086+579618820+578752394+578465725+579142655+579892651
3408+580187914+580316111+580398985+580565302+581054019+581235064+580979633
3395+581075272+582035020+584164301+586481259+587675505+588326474+588719445
3381+588505558+588264712+588832558+591155757+594414989+596732055+597995873
3368+598884087+600732547+604084281+607026926+607960356+607337736+607054598
3354+608856272+611959101+614679871+617004247+619103466+621500731+624369061
3341+626236991+626817247+627268629+628979513+632239530+635497907+637694121
3327+638922387+640336511+642504340+643735672+643541755+643350262+643010281
3314+642276831+642869425+644516836+644591079+643406533+643290496+644864518
3300+647730210+650448626+650854505+649181491+647794754+647052246+645193587
3287+642913715+642438512+642693765+641830299+641063186+641110114+640652029
3273+640051803+640253281+640315258+640120128+640508748+640924184+640474942
3260+639739638+639780076+639717386+638799432+638522712+639189479+639697488
3246+639395022+637955294+636026456+634418486+633476354+632981682+631974222
3233+630284162+628717485+628159125+629014246+629713035+629151679+629608766
3219+631046426+630295859+627811513+625742105+624573391+624293462+624801328
3206+625330876+624105321+621325784+620001023+620842023+621372641+620528788
3192+619134776+617978186+617605970+617617595+616742076+614253380+611613843
3179+610251354+608814764+607162576+606776380+606239701+603863689+600729837
3165+598042266+596322966+595936414+596143026+595430794+593829634+592764548
3152+591743715+589880813+588443153+588081242+588085414+587421465+585455969
3138+583075893+580441420+577084729+575138918+575364822+574654587+572472208
3125+571018395+570611481+570769775+570354409+567958821+565023522+563519464
3111+562739478+561798808+560772021+559406002+557882224+556668293+555177215
3098+552857654+550664506+549502746+548713060+547815397+547242308+546432083
3084+544601131+542485080+541086967+540691964+540692285+540293644+539470937
3071+537877801+535316823+532662416+530379156+528427853+526727808+524624309
3057+522041365+519927061+518364057+516536886+514099575+511568694+509603448
3044+508203837+507117034+505988402+504576489+502871238+500864627+498809197
3030+496662621+494382499+492552867+491551362+490934769+489659718+487663412
3017+486173939+485569363+485127788+484625984+484136125+483436088+483054636
3003+483698651+484931481+486274999+488029710+491013827+495573144+500486954
2990+504292173+506391643+506757156+506003878+504465837+501698745+497722679
2976+493544601+489959260+486899330+484128708+481550007+479418765+477961421
2963+476547796+474800039+473315879+472462184+472090003+471952998+471674067
2949+471215340+470932308+470546540+469340883+467473666+465722200+464157627
2936+462246370+459946564+457673681+455524894+453431523+451474871+449115513
2922+445476504+440832174+436352914+432751526+429575487+426191588+422930288
2909+420029329+417353241+414867647+412393322+410388102+409352863+408528551
2895+407296149+405984297+404997591+404663851+404858197+404796363+404143433
2882+403401709+403026604+402902829+402702492+402522125+402512889+402389399
2868+402068747+401601069+400678087+399222740+397323036+394750861+391543299
2855+387971366+383901409+379056778+373635636+368417933+363907648+359819968
2841+355865227+352229071+349113013+346277918+343438936+340755074+338429628
2828+336418417+334601836+332934670+331421198+329883334+328269622+326897256
2814+325829210+324779528+323669511+322669040+321823155+320976805+320033996
2801+318937672+317626819+316162093+314530266+312497623+310046548+307620578
2787+305463803+303443391+301545435+299729033+297948291+296320297+294753710
2774+293069338+291387213+289905691+288592110+287298712+286000143+284821962
2760+283923050+283303248+282684123+281767809+280661696+279680606+278829497
2747+277949342+277006818+275993261+274936964+273957693+273138713+272409435
2733+271619981+270832542+270264892+269828808+269250335+268538423+267843842
2720+267167804+266469996+265746851+264957130+264182047+263573940+262991634
2706+262218815+261330245+260507092+259698846+258700265+257558314+256465074
2693+255490421+254611069+253696913+252693589+251641643+250522105+249387874
2679+248353723+247436411+246562229+245639193+244660957+243732857+242836050
2666+241872344+240970205+240282667+239710648+239042937+238270047+237587554
2652+236998526+236315195+235590482+235087501+234829003+234657979+234466432
2639+234123849+233693185+233369198+233173533+233094779+233122041+233135253
2625+232978260+232738145+232729854+232929531+233005380+232961268+233070156
2612+233344914+233592500+233743430+233816622+233795743+233612416+233238630
2598+232826795+232473924+232064835+231582358+231082052+230495965+229786853
2585+228978856+228123324+227319606+226546645+225698816+224830482+224026301
2571+223232710+222440617+221710787+220991244+220209742+219490823+218923208
2558+218362922+217775373+217185864+216524036+215948166+215625089+215388094
2544+215083131+214807642+214678946+214632035+214600637+214630092+214674560
2531+214674667+214674488+214667695+214665270+214773533+215041427+215336245
2517+215467276+215484821+215560687+215674032+215716610+215732746+215850066
2504+215997537+215991404+215825104+215617190+215381515+215020103+214546006
2490+214044808+213584369+213198173+212731066+212075550+211404754+210885120
2477+210465208+210005429+209484421+208985737+208497145+207922256+207368156
2463+206993818+206614219+206032323+205379910+204834654+204383397+203904968
2450+203396780+202949482+202555459+202176164+201795585+201398977+201012300
2436+200645200+200289244+199921432+199492231+199049764+198671218+198362903
2423+198178203+198141028+198127121+198028646+197867321+197732634+197671870
2409+197618898+197556404+197542496+197498653+197365410+197277758+197316360
2396+197378158+197334689+197130127+196839731+196573709+196188406+195498728
2382+194586247+193505185+192194403+190710671+189188106+187733918+186409567
2369+185216534+184211106+183561599+183258188+183076662+182989295+183289015
2355+184272940+185862689+187396648+188006983+187374503+186098917+185345265
2342+185366429+185674886+186118173+186506437+186535838+186368754+186602166
2328+187299546+187935360+188388399+188877937+189399818+189790489+190039305
2315+190232367+190335780+190421881+190723794+191210265+191521878+191511679
2301+191482224+191650806+191890653+192076601+192238051+192391317+192475795
2288+192481126+192449888+192393813+192295927+192139362+191945979+191794461
2274+191714227+191584764+191351781+191147093+190998214+190810144+190615513
2261+190434718+190162545+189877409+189785175+189801632+189705208+189530047
2247+189420964+189368812+189283620+189133421+189007507+189005991+189031470
2234+188965036+188883232+188819473+188726739+188658576+188596777+188484645
2220+188400346+188348050+188262253+188196229+188204787+188246081+188267655
2207+188249665+188223134+188240982+188274235+188282401+188293259+188308005
2193+188284665+188187314+188040966+187905727+187749982+187522812+187284391
2180+187096499+186951560+186808867+186615431+186424152+186324269+186241075
2166+186068196+185852365+185675885+185513134+185350650+185237163+185182710
2153+185186151+185218976+185247771+185274498+185251017+185178342+185143627
2139+185110464+184989167+184868441+184859543+184884095+184854426+184824650
2126+184845743+184883346+184898823+184870473+184811314+184796479+184845921
2112+184868940+184833726+184873290+185063036+185253299+185358032+185490597
2099+185683142+185864240+186003010+186073652+186132687+186319758+186593928
2085+186813325+187025126+187274192+187461441+187579939+187699756+187848724
2072+188009247+188035920+187808554+187573948+187668411+187919063+187957130
2058+187813653+187799050+187984356+188074772+187989777+187973926+188033674
2045+187920187+187673617+187660173+187906547+188138924+188276981+188347016
2031+188389131+188451410+188543377+188587649+188521553+188308094+187876058
2018+187629328+188060633+188702740+188990194+189093482+189260531+189491891
2004+189729599+189928706+190099677+190276549+190261839+189722467+189169046
1991+189541797+190556282+191514282+192239709+192738340+193098985+193391805
1977+193707269+194092787+194475221+194530975+193991193+193657364+194407431
1964+195438980+195865809+195881910+195700170+195469879+195467828+195555605
1950+195358602+194717957+193536923+192065047+191735712+193059652+194232342
1937+194480463+194424316+194404436+194423728+194432750+193998699+192694139
1923+191616180+191624096+191794354+192458054+193911867+194615577+194082339
1910+193610204+194252347+195325635+195968670+196338301+196545895+196154671
1896+195456863+195341771+195182604+194695883+195394494+196896323+197860172
1883+198411026+198796544+199149594+199529941+199613224+198523693+195607062
1869+193147661+194834529+198507807+200685567+201340013+201629054+202133461
1856+202785340+203334696+203442710+202664685+200897404+198877991+199236960
1842+202634535+205293934+206161447+206781909+207141003+205687511+203641513
1828+204154515+205976034+207859940+210454849+212544815+213476070+214032791
1815+214236051+213396121+212631860+213749581+215685479+216404736+215361224
1801+213996007+214431984+215812731+215696337+214081199+214812813+219427117
1788+223132453+224324577+224563087+224787174+225732389+227398914+227465187
1774+224858154+222847923+225864723+231341744+235915770+238089662+238397156
1761+239788993+242231010+244586249+246960959+247176273+244864485+244484690
1747+248563153+253750402+257930281+261547413+265936882+269734666+270454334
1734+271734431+278778717+287262232+295077144+301071945+305148571+308018006
1720+308118139+305503778+307763395+318387549+328912889+335999200+339546635
1707+341321672+344681572+348824917+351800013+356246002+364358459+377977892
1693+391634695+399524457+404750933+408518103+410591755+418979184+435176177
1680+448500702+458156515+466286623+474717914+481083684+486244973+496077088
1666+506009905+510901749+513767155+518156232+521573865+520694388+514980087
1653+511878684+517958926+520391601+521409723+529574671+538164684+541890774
1639+541274359+537240347+537077096+546529612+554884770+558943423+561586276
1626+564566899+568784202+576292119+583334284+586391396+589649737+596746319
1612+603127743+606980639+609364924+611310806+612438369+612165857+611022889
1599+609084495+605880036+602066722+598768620+595681874+591976859+587708205
1585+583024400+577922449+572193028+565059218+555472478+547375034+545867588
1572+543970203+539054609+536926612+538317771+539267249+537453806+530141055
1558+525106572+534412027+542609212+546261094+546520804+545545723+543182122
1545+537562283+530641469+530178320+548585006+568248700+579231626+590758757
1531+605801941+616959458+623240928+627127273+628119614+627048180+627871421
1518+628124463+626805551+625572008+621398744+611835076+598412878+595418848
1504+607612245+615831111+618296343+618082313+620773842+627774284+632483800
1491+633914470+639677804+653586330+667671158+678160196+686203188+692317128
1477+695625286+696362160+698619638+708982369+722269987+730732909+735851513
1464+743339425+751393685+753830674+751502875+756241347+768510022+778108993
1450+783939438+787884693+793313538+800509253+807313995+812494291+814988051
1437+816449174+821390978+827569676+831245629+834203893+837726295+838887591
1423+837987538+836492110+833163982+832506273+837714313+843468517+847147180
1410+849051912+848492053+844996539+841766975+840421817+836815544+830040756
1396+825205290+824585381+826670693+827922494+825370966+821697153+822390165
1383+825151230+825307277+822298519+817561617+812721586+810936957+812486660
1369+814043922+814659196+813475648+809847123+808059356+809775732+810799810
1356+810590772+811248267+811870102+810539208+808857635+808286651+807813660
1342+806183437+802705396+800285667+802135839+805292371+806043865+804435181
1329+802986467+803100935+803082820+801512506+799692858+799138206+800156436
1315+801633749+803080395+805485718+807837623+809557280+812580588+816353036
1302+818649311+819734866+820450130+820265555+819227784+817875851+815527797
1288+812153384+809235772+807136338+804801621+802070866+799913949+798477502
1275+797129063+795814002+794862527+794412358+793950279+792288462+789138206
1261+786044149+784785217+785462324+786627116+787284040+787778570+788793447
1248+790404627+791934503+792921780+793338571+793757502+795933533+800050455
1234+804039429+807512549+811584824+815559677+818331654+820507043+822529595
1221+824680878+827319273+830023354+832908730+835851660+837995597+839429334
1207+841039944+843185807+845500982+847885195+849949896+851289135+852533732
1194+854300246+856935433+859810609+861000861+860781625+862152102+865829837
1180+869539667+872244604+874880218+877913439+881033741+884268368+887312857
1167+889916449+892949883+896491969+899714686+902950668+907080071+911339988
1153+913758434+914711192+916783239+920603828+924753699+928319534+931600947
1140+935455412+939999395+945169136+949739079+951214538+951424646+953674778
1126+956515365+957666462+957691495+958934167+961901489+964749207+968809144
1113+974910818+977838272+976015772+974595871+975570738+977038566+978157997
1099+979379202+981594815+985394864+988232741+989086222+991220531+993740179
1086+995670800+999956321+1005045827+1008739538+1011737955+1011839086+1008639976
1072+1006642173+1007672812+1010724076+1015754958+1020892819+1023328096
1061+1023574149+1023646823+1024728670+1027411070+1030316771+1030569028
1049+1028893090+1028480792+1029075454+1030231116+1032649063+1034838431
1038+1036504955+1038395066+1040871067+1043702097+1044706989+1043794741
1026+1042127004+1042038140+1044905472+1045480022+1042433678+1040349935
1015+1039901192+1039632389+1038976606+1039427773+1042020096+1044819389
1003+1046053645+1044669761+1040787267+1038596972+1041032178+1042417560
991+1038692468+1036356539+1038764501+1040925555+1040413053+1039909394
980+1040845392+1041476998+1041516152+1043202432+1044828589+1042834280
968+1039685094+1039808905+1042991326+1045515254+1045925769+1046398761
957+1048011938+1050264138+1051843866+1052662115+1054982640+1056741879
945+1054462863+1051564080+1051463662+1052937979+1055196242+1058538847
934+1061975380+1063418317+1062928851+1063197013+1063961629+1063162351
922+1061786668+1062035502+1064446103+1067498224+1069453235+1068406835
910+1064693511+1062539518+1063654741+1066774829+1070339238+1072899468
899+1073741823+1071959547+1069486042+1068838746+1068656239+1068345286
887+1068039111+1066653729+1065893391+1066905701+1066193504+1063221689
876+1061396051+1059370576+1055148886+1052193047+1050865647+1047680516
864+1044395252+1042869156+1040051463+1035427103+1030749324+1025937322
853+1022745273+1021992709+1019641018+1013938235+1007176499+1001357465+996433990
839+990398359+983764285+978435430+973344926+967281194+961723475+958298211
826+956379715+955300864+954534036+952147470+948544691+945987243+942178778
812+935394363+930511826+930443716+933378944+935294230+931413804+923881960
799+918359901+915423460+914689511+915795392+914162602+907802966+902022373
785+899961238+898974817+897122933+895291019+893642610+890945305+887180274
772+884304028+882822364+879430548+873394631+869262234+867991319+865821350
758+862114445+858988366+857244389+856240566+854101621+851225874+849665902
745+848360896+846961179+846978081+847505917+846510011+843781254+841194850
731+840885822+843463882+846779956+846851774+842984828+839599574+839444383
718+840745109+842254088+842400578+839674887+836700434+835945303+836869033
704+837506702+836737092+834925290+832425896+830948726+830432943+827627517
691+822895036+819732085+819014682+818187089+815487002+813722699+814771239
677+815138606+813555811+813537126+815235957+815911639+815391505+813549107
664+810064505+808856994+811741014+813810850+812502992+809295466+807360281
650+809477688+810273971+805476732+801595165+800004810+796108480+794184706
637+796810835+796427136+790883609+784458359+777406567+771936856+772852742
623+778369452+783148789+784117309+780902081+776725607+772849532+771020399
609+773232946+776151984+780259563+786605791+790817068+791491466
##END=
