##TITLE=Sample description
##JCAMP-DX=4.24
##DATA TYPE=INFRARED SPECTRUM
##DATE=25/8/2023
##SAMPLING PROCEDURE=Instrument type and / or accessory
##ORIGIN=Default
##XUNITS=1/CM
##YUNITS=ABSORBANCE
##RESOLUTION=4
##FIRSTX=4397.6552
##LASTX=599.8556
##DELTAX=-1.9287962
##MAXY=1.9174744
##MINY=0.61839414
##XFACTOR=1
##YFACTOR=1.7857872e-009
##NPOINTS=1970
##FIRSTY=0.72861052
##XYDATA=(X++(Y..Y))
4398+408005232+407302741+408118147+409406375+409496527+409000775+408712129
4384+408567171+408712462+408953847+408735092+408513601+408923440+409384547
4371+409417056+409205544+408623712+408162372+408841132+409774226+409328540
4357+408136438+407474434+407170000+406871441+406899377+407623263+408676582
4344+409404239+409721323+409096668+407504073+406762431+407440356+408021654
4330+407834875+407676633+408359298+409077276+408062808+406141914+406007638
4317+407659844+409293327+410222449+410217442+409207046+407656073+406650450
4303+407364489+409221465+410195313+409398865+407736245+406387404+406124992
4290+407368394+409317158+410029862+409180445+408741467+409415821+410058633
4276+410327020+410175353+409480406+409284682+409867916+409895318+409122836
4263+408614467+409031115+409806602+409836207+409390955+409115359+408689299
4249+408432427+408946938+409705802+410352987+410903511+410568571+409433044
4236+408748243+408631055+408517272+408289206+408164375+408436933+409222300
4222+410222182+410532256+410167209+409954229+409602166+409074405+409143129
4209+409444559+408991229+408251756+408312203+408800245+409226539+409643120
4195+409309615+408078762+407289457+407541923+407963210+408398950+409174136
4182+409528569+409360281+409320996+409249402+408931217+408687396+409048671
4168+409968748+410534159+410289036+409756135+409315856+409106080+409384847
4155+410011204+410552249+410265005+408842734+407551836+407396632+408099122
4141+409168329+409775094+409598762+409669154+410062171+409732905+409084852
4128+408907552+408986490+409053978+408990862+408887359+408948440+409249536
4114+409665616+409940845+410166008+410417939+410226220+409329574+408721007
4101+409184450+409793017+409815914+409508409+409281544+409796789+410819000
4087+411077307+410430489+409859137+409699127+409805467+410083599+410005029
4074+409492055+409429572+409809939+409883803+409866714+409883503+409552367
4060+409317225+409606105+410079494+410491369+410614665+410265272+409884037
4047+409786909+409576099+409024473+408792334+409549931+410454187+410415236
4033+410131496+410228624+410038106+409568989+409548662+409648427+409506340
4020+409891814+410745036+410976941+410531555+410245646+410263736+410143845
4006+409995083+409779466+409143096+408624580+409041495+410227923+411136251
3993+411253205+411120664+411068595+410836156+410257495+409617019+409514851
3979+410183898+411107279+411833368+412170611+411725526+410767199+410236901
3966+410384862+410499713+410087204+409798858+410173818+410515000+410211167
3952+409966579+410310598+410437632+410185467+410412766+411283278+412203989
3939+412671804+412507154+411650694+410347947+409682939+410093846+410136903
3925+409418925+409421862+409787376+409131480+408548981+409472262+410857751
3912+411657203+411895182+411166457+408500116+404963665+403992621+405940650
3898+408915830+411232110+411454469+409937708+409548896+410400683+410114573
3885+409050140+408607892+408665434+409538749+409872622+408728450+407707707
3871+407198204+406812029+406999109+406881654+407251307+409007317+410337767
3858+410135635+407502137+402428463+402697717+407506610+410908585+411585108
3844+410177656+408377355+407022339+405973960+406211206+407738081+409352237
3831+410220847+410104961+409778865+409747057+408406560+406081435+406364040
3817+407371198+408440905+411113120+413364015+413341218+411305173+409433878
3804+408019985+406656358+407512751+409536780+411503534+413604798+415037983
3790+415429565+414757381+413225399+412296744+412605717+413132310+413849920
3777+414914220+415451961+414871130+413449827+412560191+412473143+412359794
3763+412285296+411930128+411614413+412573341+413314750+411363617+407930267
3750+409588348+414590728+417931957+420795156+424735306+428286878+430051833
3736+429173043+428061748+430128033+433623364+435433212+434601451+433004684
3723+431731008+429723668+427591596+426437011+425973435+425891994+427954574
3709+432712332+437842915+442439127+447044418+454009514+463116093+471188812
3696+477573644+482384005+484472385+484282168+485775500+488378657+488415806
3682+484755224+478468788+471274391+462075424+453485892+449672275+446478107
3669+444388191+444692825+444538889+443305767+441575892+439189085+436153392
3655+434089244+432481562+428327598+422974123+423420643+427120043+429567195
3642+430173960+429736685+429212595+428670849+427418803+425125519+421290942
3628+417460804+416662120+416298007+413724589+408016614+402126065+399771201
3615+398371193+396390854+395232264+394964345+395575949+396650162+396773291
3601+395667403+393783625+391782459+390318533+389086546+387418185+384275818
3588+380034472+378311205+378459367+377660216+375940053+374236979+372948551
3574+372178371+371615197+370846019+369183932+366651401+365255198+364958140
3561+364728438+364387490+363794777+362733314+361290616+360177986+359499260
3547+358511093+357320093+356554953+356149820+355834105+355506841+355104479
3534+354451186+353528572+352839232+352808125+353152978+353044469+352053766
3520+351073777+350738436+350654258+350598184+350664605+350502659+349868224
3507+349839119+350741506+351089063+350230367+349153217+348803390+348942039
3493+348682097+348074598+347648671+347677943+348151466+348574923+348596818
3480+348805927+349392231+349270171+348418484+348305769+348916439+349034694
3466+348507868+347771132+347080891+346535073+346286579+346790142+347835283
3453+348576558+348701323+348399492+348079772+348188982+348839538+349623135
3439+350004103+350078467+350047660+349899933+350018322+350528927+351229081
3426+352114846+352318547+351258253+350689271+351872694+353387420+354003597
3412+354421180+355298367+356083233+356595039+357393590+358266171+358760321
3399+359427365+360628445+361795113+362807712+364142000+365553690+366694324
3385+368296265+370641717+372770350+374448591+376376827+378747880+381334582
3372+384019247+386562292+388887484+391399722+394486349+398042393+401261795
3358+403758379+406443845+409852896+413400896+416808112+420414389+424429871
3345+428814372+433139261+436731085+439628096+442613457+445989865+448992347
3331+451219310+453220977+455164667+457097676+459557946+462173787+463462448
3318+463220030+463337384+465100436+467165820+467835901+467460274+466884884
3304+466627445+466898134+466763624+465573993+464342806+464082464+463704534
3291+461370330+457655009+454493050+452576329+451485961+450142127+447796541
3277+445074594+442632548+440680280+439573424+438866962+437610342+435910306
3264+434403223+433254846+432731691+432661365+431940250+430458501+429500641
3250+429337994+428664508+427179121+426063153+425927841+426123198+425648641
3237+424825391+424265388+423447712+422311217+421225356+420384383+419967768
3223+419589470+419032938+418706208+418391962+417495649+416478845+416337593
3210+416992120+417607330+417911096+417709431+417055671+416797131+416938216
3196+416715490+416163831+415718011+415321389+414966556+414985214+415261677
3183+415186679+414560755+414469869+415596952+416642127+416484886+415799785
3169+415921312+416787184+417222090+416939051+416957975+417820877+418352043
3156+417998911+417987864+419182835+420674564+421053830+420458146+420476304
3142+422004714+422892949+421321582+419718073+420637115+422692752+422883203
3129+421289774+420924526+423435363+425834585+424735139+422390255+422729200
3115+425943328+428012517+426734169+425601045+427450044+429986614+428960764
3102+425568235+424954928+428112782+430862766+429002386+424870717+424016060
3088+427891825+431721095+430364644+426880895+426494854+429015469+430448187
3075+428957927+427473041+428196459+430360272+431245603+429540760+427840290
3061+428344654+430298257+430809930+428961131+427213432+426920514+427454149
3047+427683017+427086499+426415983+426449795+426943043+427229587+426988537
3034+426738574+427164802+427883914+428257372+428195190+428111914+429845261
3020+437751928+452379670+462834356+460055700+450662211+443586303+440169208
3007+437952025+435780969+434599949+434723511+435122236+435083385+434783590
2993+434718004+435798358+437688912+438158163+437239187+437556938+439848386
2980+442167336+442557450+441664575+441223829+441479331+442445369+443346454
2966+442716559+441478797+441835066+444199443+445948744+445052699+443463875
2953+443085644+444352811+446665353+447199689+445101963+443185075+443482233
2939+445667340+447137274+445893104+444132955+444254215+446228712+448813679
2926+449373616+447253060+444997326+444720862+446118233+446407581+444268534
2912+442203217+442560220+444688219+445860561+444858510+443593713+443577792
2899+444659448+446230348+447047389+446742621+446314525+446426639+447112074
2885+447729019+447666170+447181833+446847793+447060339+447623514+447768371
2872+447117815+446498534+446937478+448061823+448830802+448999590+449017914
2858+449181530+449342341+449290406+448719489+447452856+446463688+446866718
2845+448021604+448894519+449396746+449582123+449738462+450231845+451027591
2831+451916127+452489114+452810370+453325114+453719633+453630549+453422241
2818+453517433+453995228+454666979+455245072+455594666+455840356+456091419
2804+456291148+456492113+456833495+457229249+457415361+457350108+457355315
2791+457647332+458109407+458556795+458884660+459235722+459700867+460136507
2777+460639735+461090128+461099774+460923008+461112224+461744222+462388703
2764+462674312+462735359+462958252+463470960+463856834+463816981+463687578
2750+463760574+464060201+464693701+465568085+466302284+466657918+466690962
2737+466840158+467263849+467489045+467595251+468020978+468488259+468650773
2723+468917958+469774785+470749167+470872763+470095040+469583967+470127916
2710+471006639+471323155+471324691+471683129+472352009+472863148+473284569
2696+473907822+474303743+473986926+473635063+473909324+474425136+474847792
2683+475050158+475004665+475189875+475690467+475858154+475540069+475342476
2669+475590569+475964928+476177641+476434279+476996885+477567836+477729249
2656+477736258+477987088+478344658+478582438+478809002+479206125+479612760
2642+479785287+479894063+480186281+480538911+480741444+480732399+480487544
2629+480323828+480711739+481527078+482296056+482699587+482892140+483328147
2615+483851302+484076698+484144220+484128433+484151096+484630293+485363825
2602+485757209+485702737+485607645+486051696+486864666+487357347+487494728
2588+487509347+487578071+488064677+488712997+488787829+488615202+488946437
2575+489351136+489160586+488846739+489099272+489517922+489520292+489389019
2561+489456709+489623561+489804065+490102959+490543438+490972736+491296595
2548+491453001+491425098+491382976+491442020+491549628+491879429+492534490
2534+493156041+493505267+493526629+493471256+493863872+494438695+494676108
2521+494717896+494680981+494583986+494598172+494758816+494994460+495268587
2507+495693846+496290765+496685551+496669096+496530614+496676672+497224426
2494+497820811+498072175+498129183+498548134+499353727+499866068+499826015
2480+499718006+499891234+500048241+500007788+500132418+500413521+500619392
2467+500839248+500945521+500847125+500827232+500999459+501275655+501550584
2453+501783857+502115861+502493724+502617554+502515720+502585846+502988942
2440+503435764+503666333+503617770+503359730+503221815+503437566+503919033
2426+504498595+504955896+505243742+505536293+505798939+505997567+506221328
2413+506308142+506253003+506267488+506273129+506381805+506896082+507655481
2399+508375027+509194939+510842373+514295048+520681015+531651145+548181623
2386+569337586+593023276+617156554+640903725+664885738+689597979+714273771
2372+737614941+758832051+777017639+792647933+806705625+817472654+824246832
2359+825592602+816756379+799333994+779542293+760928742+750187947+753956037
2345+767477156+773254355+767006804+759095531+752631361+748285778+748067958
2332+750547419+751248675+748586306+746418789+747905611+749424275+744792182
2318+733057747+720236815+715521145+720719517+725607613+720576061+706100820
2305+688373234+674213141+665161902+657749418+649813846+640784902+629721683
2291+617212228+605341012+595188858+586507304+579048293+573080442+568390540
2278+564098427+559990891+556247633+552818456+549947413+547796517+545976289
2264+544161034+542484362+541056050+539821192+538803487+537914017+537065401
2251+536433002+535995727+535378715+534561741+533978039+533782482+533683585
2237+533439665+533158829+533225616+533730147+534100834+534102336+534162415
2224+534293087+534232174+534188049+534491582+535020277+535384556+535490796
2210+535554713+535691460+535879307+536207205+536796313+537600137+538329063
2197+538634031+538629725+538828920+539230682+539476572+539838415+540474852
2183+540975210+541282782+541378741+541218497+541215093+541496596+541791284
2170+542147853+542617437+542887726+542773442+542431693+542284433+542581190
2156+542895336+542823041+542632290+542644273+542831452+543104511+543280810
2143+543206445+543189690+543633474+544383394+544968897+545222664+545300533
2129+545422026+545677529+546013605+546358191+546724874+547192489+547542449
2116+547653195+547951053+548710886+549596718+550015335+549882794+549616544
2102+549625089+550039033+550458285+550598469+550610451+550607281+550707913
2089+551016786+551375725+551661067+552121773+552837314+553526421+553975044
2075+554212957+554504741+554830102+555001060+555321715+556030348+556796956
2062+557450315+558218092+559133263+559948468+560426197+560674790+561069443
2048+561637390+562084712+562467081+563109660+564031072+565038931+565863549
2035+566484900+567269665+568067715+568361969+568160370+567865449+567838480
2021+568151559+568414571+568276390+568180797+568387536+568529122+568733324
2008+568987725+568836393+568461166+568205697+568106032+568275655+568692604
1994+569150005+569389253+569318828+569245464+569312352+569492790+569873557
1981+570283296+570482358+570640566+570987089+571487614+571977325+572277453
1967+572540666+573053807+573553465+573780830+573824955+573793380+573984431
1954+574560856+575143489+575511040+575961499+576574038+577037915+577481231
1940+578211392+578988547+579553424+579766571+579739936+579909959+580316427
1927+580589320+580676167+581012743+581566004+581783958+582146168+583160569
1913+583947003+583983117+583987657+584613012+585405989+585876341+586141289
1900+586426531+586751292+586968644+587101085+587046814+586838941+587293405
1886+588332772+589005991+589288363+589556649+589751171+589883278+590217518
1873+590270521+589186495+587859750+588554464+590729592+592548317+593470197
1859+593605909+593523267+593780939+594071788+593930669+593505844+592911328
1846+592035176+591868623+593226877+594469778+594843737+595151008+595527570
1832+594910291+593342362+592926148+593931070+595102077+596332362+597451768
1819+598093478+598310497+598317039+597828864+596970134+597045700+598159165
1805+599095930+599190321+598425315+597860505+598265037+598497743+597820452
1792+597711376+599296394+600986884+602024249+602438794+602199680+601999884
1778+602257222+602008228+600370073+598407692+599173432+601825588+603929288
1765+604824132+604620998+604641959+605318516+605589539+605880054+605892003
1751+604034961+601668848+602057559+603845511+604694027+604302312+603896846
1738+604313060+603943574+602421972+603387175+606196537+608462585+609515703
1724+609645741+609523447+608155848+604096708+601506768+605094287+609204494
1711+610715949+610074372+608076677+606412955+605903418+604188563+600933281
1697+599887038+602416765+606543994+608967983+609051292+607406729+603685234
1684+600495037+603247525+607024960+608570393+607800848+606338591+604983208
1670+603252865+604084225+606815885+607503189+606807808+607409733+607935825
1657+606298538+601589811+596542238+598035602+599143126+598646673+601581199
1643+605652622+607419947+606709145+603807261+602832712+608026811+613141740
1630+615508587+616500291+617675036+619187960+622017215+625199401+626037904
1616+626483290+630612721+635123789+637429622+638709439+640588911+642569850
1603+644177098+645900899+647363422+647747327+647971222+649653501+652264803
1589+654365366+655852589+657378063+659115281+660276876+659550988+656887884
1576+656391031+660208786+663053795+663959720+665517302+667702644+669214833
1562+669320038+665846135+661890465+667182693+674041782+679420124+683070392
1549+685595113+686924996+685613337+680821100+675977195+682859181+693648507
1535+698438808+701002514+705962572+710635919+712877334+714171503+714992049
1522+716038225+720618918+727276876+734300448+741367277+746621655+747870098
1508+744977025+748189518+760515331+768713849+771848907+772288552+774990439
1495+781531710+786654048+788617297+791570716+799274850+807415959+812951240
1481+817246824+821158636+822788914+821946673+822724162+829673237+838147117
1468+842624673+844761217+850048238+857691893+861882405+861285487+864310533
1454+873250492+880308911+884364646+885928503+887800098+892287668+897713472
1441+901701718+902283216+901414607+905845302+912587304+915069035+914461369
1427+914906154+915855803+916251590+915294999+911342333+907986251+907863557
1414+907713025+907147681+906190022+903286402+898809714+895993409+894433157
1400+889240593+881206024+875895639+875064412+877136070+878074838+874787982
1387+868676943+865603901+867090590+869777991+870853272+869602293+866631653
1373+864583358+865122601+866322713+867576896+868237031+866961486+866748740
1360+869265584+871268685+872432817+873944205+874614553+873877250+872623935
1346+870583584+868931077+868518134+867832165+868472541+871903854+874929301
1333+874887179+872946693+872795894+874617958+875632626+875897441+876957369
1319+879096983+882536307+885769160+885881508+885152081+888297619+894758451
1306+900395333+903129529+904980831+907601478+910675589+914342813+918427786
1292+922492733+925899081+928109522+930257748+933133731+936033746+937673836
1279+937632382+937935447+939393432+940253363+941015298+943335751+946220479
1265+947639278+946342573+942854451+940326125+941170970+943793086+945710341
1252+947172197+949608869+952663020+954699299+955695075+957087173+959092477
1238+959941795+958716917+957245715+957114209+957444176+956699930+955472249
1225+954968052+954765920+954939548+955111174+953989632+953499454+956296867
1211+959869233+960328036+958903763+957958986+957602851+957590969+957200122
1198+956531909+956483112+955945204+953745978+951315047+950356720+950650172
1184+950781679+950790891+952325376+954555376+955648480+956870221+958410714
1171+957810124+956268563+956807205+958489818+959940793+960879695+960791112
1157+960390585+960630901+962029140+964139850+967100077+970586797+970981784
1144+968481695+966963364+967840051+971089058+974600344+977019526+979877218
1130+981741671+980414525+979230901+981288274+984714248+986983232+986777895
1117+984794286+984319328+986530704+988884333+988972182+986045866+982058754
1103+981628121+985099354+988511776+993190731+1000586326+1004190534+1001543251
1090+998081364+997320096+1000196280+1004995593+1008356614+1008599533+1007198624
1076+1008486718+1012988440+1017268737+1020504060+1022924777+1023564352
1065+1022997339+1024484629+1029348894+1034219635+1036500902+1037171451
1053+1036640152+1034199341+1031697918+1032551774+1035739834+1037635662
1042+1039548645+1042508405+1043528079+1044147494+1046364744+1046557331
1030+1043671468+1041200818+1043324879+1050370146+1054008999+1050548113
1018+1047204248+1046363676+1047082955+1049256348+1049429709+1046158673
1007+1041322778+1037697076+1037140343+1038374767+1041647539+1047853703
995+1052213838+1051262386+1049586916+1049303143+1048242748+1048701952
984+1050450652+1047838483+1042360810+1040030545+1041313099+1044332070
972+1048741270+1052412433+1052107899+1050101793+1051473464+1054623408
961+1053612745+1049824094+1050395312+1055194626+1058178885+1057929490
949+1056284059+1054771068+1054214670+1054304655+1055250366+1056475778
937+1058358855+1063260703+1067421709+1065404790+1062486284+1063530524
926+1064629970+1063984989+1062978331+1061871475+1061352459+1061913530
914+1064536180+1069684753+1073741823+1072160943+1066572125+1063038877
903+1064135854+1066626664+1066428403+1064962942+1064613883+1063055299
891+1060909944+1061342446+1062033021+1063012242+1067469439+1069278485
880+1062940682+1055438213+1051905232+1050347116+1049287589+1048022458
868+1046136644+1044746415+1042381237+1036960373+1032078351+1031182106
856+1033010978+1034605876+1032889018+1028463797+1025028611+1022465306
845+1017811384+1012117428+1009410534+1008401606+1003717979+996680522+994266146
831+997585445+998622743+992441612+985175988+982677301+984078344+985153025
818+983741902+982636114+983185704+981192682+973137886+964422088+962719115
804+964634835+962348294+958487815+958396896+958103510+954118334+948959548
791+941979834+933904278+930073238+931046452+930591053+925222991+921202369
777+923673754+928081552+930054614+930385849+927425489+918633390+909161397
764+906655968+910449024+912944039+910101767+904720622+899402961+895393353
750+894492501+894260329+891152775+887400773+886069555+887749965+890637363
737+891667786+891417123+891550031+891290890+890344645+889501469+889502003
723+891460112+895219658+897993974+897419618+893753663+890062007+888175525
710+885209156+880238351+877782053+880994346+883999031+880712508+878662678
696+884015920+888479191+883597637+873810629+867680165+867855129+872917922
683+878323899+878952994+877240741+878775026+882200732+882119759+877835857
669+873200093+871660935+869958162+866095748+863280845+861776199+860056871
656+858965502+858128935+853732551+845924748+842073615+842830411+841543718
642+836911024+832937531+834355930+839737742+839326735+829125116+822017499
629+824159517+820952298+813650293+813989473+807568626+799988122+814442535
615+831658982+828752092+822514820+819933625+821678720+827004192+819634031
602+802144024+792321971
##END=
