##TITLE=Sample description
##JCAMP-DX=4.24
##DATA TYPE=INFRARED SPECTRUM
##DATE=25/8/2023
##SAMPLING PROCEDURE=Instrument type and / or accessory
##ORIGIN=Default
##XUNITS=1/CM
##YUNITS=ABSORBANCE
##RESOLUTION=4
##FIRSTX=4397.6552
##LASTX=599.8556
##DELTAX=-1.9287962
##MAXY=1.808594
##MINY=0.30683109
##XFACTOR=1
##YFACTOR=1.6843844e-009
##NPOINTS=1970
##FIRSTY=0.48073062
##XYDATA=(X++(Y..Y))
4398+285404341+284755669+283728237+283142642+283214211+283694354+284176231
4384+283966106+282955287+282299839+282594503+283006562+283092039+283134874
4371+283165236+283096232+282902774+282674371+282479744+282039641+281197971
4357+280446943+280364652+280673081+280719402+280562003+280456409+280275477
4344+280244196+280639092+280994976+280964702+280692862+280360405+280155623
4330+280102844+280163850+280348551+280373144+279896434+279390812+279557483
4317+280152704+280626973+280691836+280274221+279710194+279356257+279046306
4303+278735063+279010990+279689634+279917949+279592622+278989033+278653692
4290+278857235+278869444+278351242+277995253+278310601+279093476+279777163
4276+279667642+278614979+277483368+276908371+276461633+276217271+276709658
4263+277220481+277239767+277159351+277041159+277246596+277732808+277427811
4249+276243085+275453079+275913070+277005171+277431350+276902886+276315451
4236+276376475+276863359+276988239+276396805+275735518+275735164+276151399
4222+276188891+275852966+275748487+275785767+275643229+275610337+275827894
4209+275759174+275219988+274759484+274758883+275210876+275686472+275513520
4195+274789474+274251173+274115023+274068437+273994196+274067570+274205525
4182+274047046+273766129+273787697+274030432+274155860+273881879+273447738
4168+273378434+273478542+273298884+273092864+273200386+273465626+273833912
4155+274006510+273317020+272338297+272290862+272898450+273177438+272996435
4141+272572238+272130702+272055806+272154800+271833596+271355134+271396855
4128+271796511+271988342+271983494+272083691+272062830+271894532+272030770
4114+271987422+271372862+270945870+270816249+270464099+270115222+270156182
4101+270299286+270329524+270417159+270395325+270065717+269570039+269199789
4087+269184130+269222949+268935539+268623889+268731235+269076749+269336239
4074+269564412+269538049+269019069+268685144+268920022+269085791+268961690
4060+268792206+268599933+268380447+267982861+267459829+267232294+267273094
4047+267163077+267014471+267318548+267809644+267799965+267312090+266763156
4033+266333934+266058944+265968620+266100541+266404760+266538557+266188583
4020+265769747+265925165+266358793+266307606+265931340+265813326+265681104
4006+265231075+264852792+264781630+264863267+264872998+264787539+264738104
3993+264833347+265052266+264994586+264465238+263884968+263584784+263456366
3979+263357938+263331717+263344633+263449784+263687476+263779074+263675904
3966+263469176+263207085+263231484+263585279+263819114+263631565+262947666
3952+261857493+260874205+260713851+260888218+260545570+260589166+261713080
3939+262675773+262468177+261040363+259318133+258976439+259710995+259682190
3925+259103530+259388357+259881063+259471781+259065419+259816836+260971200
3912+261556831+261335558+259888653+257114874+254639192+254302329+255774872
3898+257885913+259012994+258400045+257410565+257866839+258025283+256599840
3885+255670570+255834551+256072261+256891443+257228324+256135178+254398651
3871+253165782+253695856+254609414+253949648+253811287+255549406+256605838
3858+255332964+251411208+247610846+250588753+255301381+257491441+257204632
3844+254962431+251696371+248672143+247987625+250329157+252885892+254776846
3831+256233995+256446120+255646790+254420202+251856761+249465104+250371691
3817+252462916+255019846+257401913+258059944+256804940+254804837+253602506
3804+252072708+250562726+251602667+253478759+255581537+257910029+259034969
3790+258772471+257727646+256599592+256159860+255849591+255218683+255983670
3777+258011058+258847738+257664251+255526865+254706550+255487621+256420589
3763+256442157+254920161+253097185+252722936+252126566+248822820+243917369
3750+243505681+245917933+247198397+249258818+251614805+251510574+248641852
3736+245154520+245772017+250129930+253565704+254693652+254388319+253976507
3723+254303302+255509632+257124694+258169448+257611153+255594772+256561127
3709+263402667+271799413+279902892+289171935+301227267+313775923+324790145
3696+334217915+340160706+340943493+338240098+336239835+335120662+332312452
3682+327336459+321039837+313908410+306454965+302284618+300236088+296297311
3669+293617767+293494727+292487200+289845289+286353711+282628403+278943225
3655+276104830+273085309+267466164+261481581+262258423+266128497+268010003
3642+267578958+265850783+263346066+260295811+257160947+253656913+248263552
3628+244045946+244694601+245319068+243219882+238673198+234633287+233130382
3615+232031044+230686229+229571657+228519419+228099522+228022591+226898677
3601+224815963+222971773+221396326+219856955+218828373+217459442+214321093
3588+211266928+211520986+212669157+212496046+211351980+209958915+208958819
3574+208311492+206951673+203811519+199213401+196607142+197811720+199392917
3561+199780224+199761522+199510649+198406604+196938520+195925331+194701945
3547+193169652+192562701+193044454+193554251+193303803+192424729+191605210
3534+190955831+190106252+189085295+188232867+187575472+187237566+187530107
3520+188084208+188418204+188581177+188369176+187437217+186265991+185582640
3507+185037244+184082443+183617587+184398056+185301352+185648831+185860337
3493+185676910+184829083+184056805+183770386+183805667+184045924+184195892
3480+184045252+183691262+183349020+183212870+183407390+183836152+184027505
3466+183666633+183023163+182556042+182299914+182162153+182363680+182896479
3453+183299620+183057541+182482084+182587854+183216338+183559376+183773058
3439+184069792+184435124+184819581+184907641+184863496+184975282+185038819
3426+185076116+185127409+185090041+185232508+185828790+186770162+187678377
3412+188291910+188923861+189968191+191166823+192122279+192988207+193913602
3399+194790182+195806467+197084738+198405543+199626115+200858135+202409696
3385+204218005+206025322+208033884+210371912+212874913+215476023+218207515
3372+221011372+223740759+226395887+229200983+232520193+236426750+240472076
3358+244318901+248126181+252366983+257195609+261984142+266293275+270401199
3345+274479329+278583573+282942973+287513666+291888848+295659096+298841679
3331+301968227+305200687+308187706+310796654+312774729+314043304+315352502
3318+317056615+318532448+319487674+320377895+321561153+322956446+323990903
3304+324122612+323626775+323117491+322876862+322429398+320762123+317709108
3291+314072179+310579628+307459237+304478871+301278506+297735953+294339972
3277+291826001+289814662+287309344+284859387+283430848+282201889+280364652
3264+278677701+277613502+276586902+275193395+273712342+272668083+272088716
3250+271512038+270806836+270021448+269118470+268280162+267572412+266752150
3237+265626573+264379231+263465867+262858580+261980514+260907876+260216881
3223+259661754+258941814+258181232+257136460+256096341+255732567+255874149
3210+256191195+256334511+255937491+255390202+255000206+254623020+254282707
3196+253713761+252891377+252449699+252354491+252117649+251782732+251573845
3183+251506150+251304447+250912115+250773188+250891432+250942459+251051061
3169+251123214+250815917+250409484+250290125+250219847+249904057+249740996
3156+250146703+250565380+250474578+250288515+250320929+250348902+250385315
3142+250670336+250953500+250876977+250722426+250799374+251015144+251328085
3129+251604348+251472108+250945237+250701494+251186238+251819216+251881726
3115+251468941+251115588+251201631+251625262+251975094+251937920+251501214
3102+251141987+251344664+251849790+252017098+251676873+251262213+251266353
3088+251545040+251553551+251326510+251091455+250848083+250808503+250827878
3075+250439846+249847138+249501145+249290719+248941966+248520494+248292162
3061+248346215+248430701+248420067+248379478+248201802+247934227+247756409
3047+247636908+247502563+247395465+247298612+247018156+246534757+246044582
3034+245589616+245262821+245332763+245722935+246012628+246049288+246006683
3020+246003392+246004206+245843887+245397909+244952640+244918474+245245888
3007+245755066+246339211+246681381+246643978+246531838+246725933+247439628
2993+248487514+249344896+249816228+250252509+250910045+251642389+252264786
2980+252662266+252819436+252960717+253108190+253020821+252791622+252632329
2966+252449168+252158591+251912389+251739808+251340576+250712040+250444853
2953+250720320+251024503+251233691+251574500+251829407+251764968+251594971
2939+251468127+251263027+251009464+250875826+250889362+250847853+250503595
2926+250057971+249800463+249434123+248650168+247738008+247143389+246974259
2912+247145671+247508260+247861542+248116397+248195857+248068979+247979628
2899+248132020+248336590+248427870+248491654+248450676+248249167+248145626
2885+248289986+248526970+248676036+248691234+248618444+248525802+248360246
2872+248076852+247862002+247871486+248074499+248289526+248317410+248258439
2858+248310722+248375055+248152668+247508596+246691060+246205379+246359576
2845+246798069+246984733+246977320+247121308+247503678+247971206+248413821
2831+248782744+249015040+249171201+249235746+249213895+249371843+249743844
2818+250102629+250307376+250352016+250399930+250587549+250892794+251177710
2804+251365931+251618344+251950181+252121170+252154486+252219597+252275738
2791+252396088+252725714+253009816+252990052+252970183+253196250+253425148
2777+253627825+253896639+254002286+253966174+254033232+254137746+254093371
2764+253943810+254022138+254462595+254862711+255012697+255163515+255330186
2750+255342801+255333725+255564215+255908385+255994145+255885561+255897876
2737+256128579+256495042+256765555+256845423+256925503+257125455+257367906
2723+257616833+257920079+258262727+258640355+259016798+259254437+259357447
2710+259487564+259740507+260026696+260155008+260148037+260247172+260536776
2696+260862315+261079005+261144842+261116232+261231469+261557291+261743353
2683+261696289+261722281+261877221+261977737+262009832+262047891+262030020
2669+261979081+261990830+262044476+262215446+262497637+262677542+262690653
2656+262618376+262595551+262731754+262928557+263093494+263239499+263252061
2642+263196664+263342492+263535331+263573602+263691687+263923328+264006769
2629+263975717+264095359+264405788+264698082+264875652+265004760+265166724
2615+265413068+265602351+265664596+265792572+265982651+266155656+266393843
2602+266628209+266760024+266854294+266944707+267080343+267385659+267756599
2588+267919714+267884256+267845915+267881921+267980667+268039179+268028333
2575+268118516+268288354+268348794+268308913+268211299+268078759+268025820
2561+268096771+268224003+268344813+268476115+268654977+268767329+268694804
2548+268619908+268675978+268689939+268657666+268685374+268702359+268751476
2534+268920075+269090515+269181635+269265342+269388576+269543658+269701235
2521+269814525+269904796+270065062+270302223+270522540+270659840+270718776
2507+270835411+271062380+271197982+271222540+271364830+271721102+272159613
2494+272460452+272576095+272572504+272495945+272473138+272584376+272779905
2480+272995586+273167246+273245928+273236126+273188708+273224236+273407981
2467+273648292+273844670+273890088+273820359+273887488+274063253+274143810
2453+274138414+274081176+274081795+274239177+274430990+274619424+274806354
2440+274906126+274970636+275025202+275003280+274970388+275069772+275323317
2426+275557240+275686047+275810785+275954631+276121355+276266281+276286593
2413+276345052+276618201+276949791+277210750+277464896+277732561+277983717
2399+278216773+278454306+278700278+278854918+278863269+278938041+279161012
2386+279186561+278804032+277960450+276509777+274617885+272501837+270178211
2372+267972192+266103425+264175245+262054667+260432209+259663187+259417056
2359+259807848+261140525+263396669+266666904+270211810+272040820+271109161
2345+268621235+266967283+266844474+267489059+268412154+269199293+269607283
2332+269981036+270787727+271949929+273090245+274172934+275411659+276756580
2318+278157748+279621568+280834020+281688695+282573749+283697751+284802061
2305+285606098+286192896+286788559+287401366+287904475+288265295+288598141
2291+288988986+289360599+289727593+290217415+290629209+290754849+290909630
2278+291220218+291415340+291594467+291870571+292016735+292070894+292240290
2264+292474443+292718504+293023572+293313194+293557892+293859262+294166436
2251+294404623+294612749+294781473+294918384+295098431+295320977+295505978
2237+295669730+295880333+296086584+296294781+296575237+296847856+297028009
2224+297120474+297172705+297293444+297551023+297861116+298064907+298150047
2210+298238762+298408440+298676388+298944441+299079052+299171482+299366851
2197+299635117+299936611+300215351+300365037+300434288+300579126+300827858
2183+301052563+301186466+301294006+301433641+301664397+301953152+302161331
2170+302282637+302397643+302551646+302799670+303146919+303471980+303677470
2156+303847822+304112761+304436584+304667517+304831463+305061547+305267921
2143+305394464+305614356+305972363+306274670+306402805+306458433+306525066
2129+306670186+306978262+307343133+307601880+307709243+307795162+308057943
2116+308415524+308634426+308734676+308921305+309248631+309627126+309984814
2102+310238218+310447246+310763001+311123024+311447626+311810338+312307909
2089+313034998+313960605+314925032+315883301+316837147+317643855+318204344
2075+318671022+319195310+319701693+320123253+320537277+321121792+322003910
2062+322940062+323612726+324031491+324342717+324683207+325085765+325470098
2048+325784968+326043538+326274330+326509261+326890764+327390176+327749243
2035+327983998+328256086+328566886+328777401+328810735+328823156+328891806
2021+328919549+328867956+328904970+329217257+329596424+329842361+330067208
2008+330281438+330434414+330602112+330820235+331093773+331445870+331703166
1994+331639328+331635931+332300173+333361347+334289113+334995606+335582387
1981+336231129+337000045+337812946+338667249+339549437+340288451+340831176
1967+341705862+343356930+345227855+346745693+347991478+349111323+350205300
1954+351389300+352599840+353630758+354243265+354339127+354297548+354925731
1940+356115039+356891882+357200276+357408561+357517552+357565572+357633443
1927+357329826+356296254+355361694+355212362+355297998+355752928+356665407
1913+357082545+356693717+356248695+356345654+356600402+356685719+356722026
1900+356667955+356412782+356160865+356166350+356028590+355832937+356536918
1886+357706340+358502857+359058709+359504581+359927451+360309874+360393775
1873+359693262+357953055+356763357+358170824+360385495+361437432+361759061
1859+362186567+362835876+363424638+363740746+363717851+363191086+362014800
1846+360716041+361053983+363100390+364345928+364430891+364508034+364450956
1832+363160052+361457815+361457037+362409113+363405883+364653509+365429784
1819+365556256+365623137+365580779+364975774+364456334+364975173+365916775
1805+366203194+365517720+364724883+365055111+365864650+365679685+364579692
1792+364886459+367373925+369172838+369565948+369585375+369476030+369437813
1778+369846847+369663367+367988873+366418557+367680691+370439749+372696707
1765+373563325+373269616+373343963+373741461+373972571+374294306+373485580
1751+371168147+369838283+370991072+372639734+373546268+373889731+374290944
1738+374374598+372957754+371673892+373704977+376694933+379116014+380424504
1724+380595103+380078706+377921291+373640432+371841979+375692041+379741826
1711+381461438+380847622+378811194+377303300+376378329+374196108+372009357
1697+373015788+377423048+381486421+382222462+380815986+378299857+374400076
1684+372844375+376802968+380212998+381279055+380649846+379706581+378581251
1670+377746906+380005987+382824494+383262581+383242446+384689121+385476897
1657+383610254+379085121+377223715+380663470+380887609+380608833+385202828
1643+389947535+391642801+390686266+388203294+389348086+396028546+400939640
1630+403335561+405173541+407077588+409496829+413627047+417090653+418342171
1616+420780343+425418182+428561079+430043353+431316599+432886631+434193069
1603+435285100+436518748+437470789+437799566+438097415+438911165+439959600
1589+441129516+442366526+443321787+444139324+444797055+444213742+442417199
1576+443367754+447143151+448497326+448538551+450737970+453821948+455677551
1562+455021342+450671196+449328699+457261774+464102748+468841120+472296763
1549+475444650+477026572+475692144+472844088+473289818+484125231+494073786
1535+498507161+503499043+510894985+516177073+519590182+523347956+526821753
1522+531914628+540089571+548210266+557508096+566842268+572947342+575170577
1508+576135675+586943098+602993330+612496968+618832869+625051003+634072818
1495+644581083+651787565+656413655+663148646+673823652+684691869+693878798
1481+701973908+708986896+714257590+718484520+724742216+736342440+749126983
1468+759468082+768559537+778245842+786767290+791262238+793020174+801199787
1454+814166571+823665539+830434430+836153755+842377905+849563863+856795611
1441+863528195+868802922+871993662+875029974+879230789+883062096+886659852
1427+890301417+892417182+892695958+889546762+880964024+873215915+871376590
1414+870023973+866417582+862009544+857687424+853068764+849541852+847060968
1400+842445210+836690357+833335283+831735313+831402820+830940600+827907261
1387+824660115+825683637+828645567+829935692+829826489+828821934+827053665
1373+827129746+829042888+829238788+827227838+824745043+822801398+823340195
1360+825958591+826944887+825670827+825006267+826394129+827979025+828852932
1346+829699734+830640734+831532123+831112084+829772347+831035861+834457746
1333+837423497+839785765+841381772+841165701+840025333+839859086+840701500
1319+841910023+844415112+848436799+852660474+856953222+861665940+866301656
1306+870199632+873292775+876754575+881559156+886613567+890511118+893900801
1292+897636565+901805177+906092831+909052637+911187582+913849574+915130640
1279+914309317+913906688+914884420+915811903+915670074+914979539+914499485
1265+914067697+913318280+913061727+914525105+916887656+918701078+920333674
1252+921843974+922827297+923853438+924835558+924987083+924452746+924604483
1238+926432626+929517489+932147563+932408645+931723419+932376656+932984810
1225+931921372+929924152+928398706+928052413+928243005+927189050+924250901
1211+920648403+917260277+915053214+914537915+913419769+909709129+905184103
1198+902043895+900256518+899199449+897938483+895950251+894338321+894126143
1184+894923332+895479185+894310932+890421165+885743551+883935225+884948414
1171+885799108+885700804+885977811+886891281+887992653+889379879+890666677
1157+891283254+891339094+891738821+893980704+897653479+899941011+900616612
1144+902196978+904250604+905814692+908461964+911633382+913169727+913662450
1130+915254706+918257684+920991087+922781153+924620124+926676015+927559053
1117+927033066+926662002+927563794+930348366+934236151+937655063+940203536
1103+941230667+941582339+943095187+945540685+949103691+953335292+956585481
1090+960531017+967152700+973762493+978107048+982210478+986350782+987847210
1076+987133533+988149271+993048829+999706748+1004988694+1008089197+1009852866
1063+1011685113+1014925536+1019453181+1023045629+1023632905+1022745550
1051+1023929445+1027237031+1029714659+1029937382+1029330998+1030707395
1040+1034038053+1036379514+1036957235+1037216548+1038345877+1040448832
1028+1041855237+1040298934+1036886108+1035466681+1037050868+1040407783
1016+1044316234+1047401379+1049812835+1051547274+1050658646+1046296397
1005+1041805979+1041477096+1043837453+1044683334+1043627681+1042539543
993+1042580308+1043473679+1045124251+1047080706+1046788130+1044404913
982+1043853377+1046450824+1049451467+1050500255+1049845957+1048828663
970+1049114374+1049805333+1048536369+1048414569+1052662660+1057597746
959+1059286678+1058002357+1056604303+1057444027+1058397767+1057036727
947+1055860830+1057065603+1058932741+1060015501+1060728682+1061773224
935+1062626537+1063039498+1064968634+1066831102+1066811781+1067631264
924+1068182446+1066644686+1064874577+1065011028+1068122359+1071288470
912+1072774424+1073741823+1073187032+1071016913+1068865337+1066958565
901+1064555319+1063114023+1064172790+1066764151+1070251288+1072494233
889+1069912992+1064038958+1061608606+1064674076+1066728340+1064514837
878+1062742180+1063887078+1062844094+1053954342+1042894258+1038642062
866+1037952661+1034370475+1030384811+1026984795+1020801057+1013381052
854+1008074264+1004613737+1001361709+997797641+993979426+989134221+983518863
841+980003982+979063477+976586273+969479510+959673528+953633601+953309885
827+951470347+945622499+940671205+938192444+937891729+938244179+937105509
814+936216668+936847753+936138889+932071694+926799515+923532340+922290978
800+920640830+917090138+912250312+907510701+904133191+903439826+904277781
787+903142083+899470015+896032561+894467482+893099931+890345862+887341540
773+884666242+881299136+877095773+872927868+869412492+867094316+865770857
760+864065364+861571741+858967145+856907220+855450353+854501992+854242042
746+854218687+854206656+853217317+850800200+849932096+851689324+853839343
733+855260257+855145179+853653068+853244494+854560522+856340822+857997057
719+858584474+857859332+857355710+858198760+858675772+856951949+855620634
706+855811509+853594892+847266847+839886617+835559897+835855729+838082183
692+839392903+839430838+837185770+833742229+832493789+833192816+835156065
679+837621237+837394763+835893239+835780355+831701129+819935933+813710650
665+820110884+825109171+826028586+826354638+824189969+818839514+814684773
652+813370373+812888478+811743084+807942068+803418315+804060794+807770230
638+809209616+812185346+817586050+814265088+800639405+789085679+784130351
625+782706889+782426698+781638851+780451276+780215885+781931640+784075148
611+786314412+791816038+799366195+802930192+798150311+787895273+779161081
##END=
