##TITLE=Sample description
##JCAMP-DX=4.24
##DATA TYPE=INFRARED SPECTRUM
##DATE=25/8/2023
##SAMPLING PROCEDURE=Instrument type and / or accessory
##ORIGIN=Default
##XUNITS=1/CM
##YUNITS=ABSORBANCE
##RESOLUTION=4
##FIRSTX=4397.6552
##LASTX=599.8556
##DELTAX=-1.9287962
##MAXY=2.0212371
##MINY=1.2476892
##XFACTOR=1
##YFACTOR=1.8824238e-009
##NPOINTS=1970
##FIRSTY=1.3152984
##XYDATA=(X++(Y..Y))
4398+698726002+702244861+709072141+711946199+708334058+705497111+706728832
4384+708414294+708159211+705388821+702035247+700566111+699915864+697158772
4371+694195802+695081438+698514425+701360365+701345230+699599986+701049300
4357+704635539+703777198+699941258+700168160+703161401+704813680+706110185
4344+706442338+704971112+703292932+701046894+697861391+697672422+702388994
4330+705700582+704757698+706337847+711768881+713224782+708325446+702526162
4317+698762479+697058904+698003435+702050319+706216005+705664105+702638315
4303+702972811+704712926+703209783+701671683+703582402+705163944+704540865
4290+703823427+703014227+702465177+703682333+706777277+710034910+711555911
4276+711980649+711593274+709671916+708390547+708941243+709785083+711195070
4263+713326993+713202807+708930287+704187180+703466323+705328723+706524410
4249+707364514+707902291+707707369+708815031+710692756+710736326+710777742
4236+711717396+711952785+712601639+713106676+711677246+709540638+707441013
4222+705399333+705139627+707789821+709772860+707896592+706097646+707119119
4209+708336085+708752210+709956827+712335916+714120043+713358530+709740437
4195+705966051+705567468+707197709+707627766+708058900+710461104+713471759
4182+715676761+717665753+717638839+713562254+709969746+710750891+712976981
4168+713651800+711865519+708258002+707263253+710298669+712296717+711153971
4155+710221156+711339837+713670038+715390014+714991114+713775478+713319837
4141+712863688+712399877+712349848+711699854+710690287+711666924+714520527
4128+715414839+713390510+711826256+711871219+711394679+710480546+712818789
4114+718587739+721098423+717013479+712756411+714319652+719194290+721289356
4101+719413214+717287941+717717492+718736432+716925517+714064695+713073746
4087+713773008+716324982+719027549+718957825+717462978+716400342+715473037
4074+715117072+716477412+719808504+722525636+720884249+715919179+712403993
4060+712782629+714930573+715190912+714204459+714720895+715698736+715224729
4047+713708921+713067476+714434021+715061724+714616278+717600906+723158342
4033+726383994+725138278+719355965+713618616+713769842+718260272+720786282
4020+720223870+720152373+720602442+718841682+715652380+714590441+716247026
4006+718052115+718536190+718199288+719168959+721728406+722577881+721737145
3993+721900530+722207099+721910029+721383334+719657341+718058384+719592241
3979+723957282+727158047+726438772+723198175+719950738+718465390+719376040
3966+721887294+723738675+723821444+724260811+725345105+725270316+723577760
3952+722668503+725181720+727724638+726695945+723891231+722652355+724968876
3939+726869273+724626908+721018757+719527393+719404854+720184606+721919148
3925+721358826+719260531+719818067+721488267+721927824+723312418+727023792
3912+729932680+729551385+727286665+723589982+717864918+713835133+714792645
3898+719237226+724060316+726627172+724142009+718938637+717710589+718397630
3885+715581200+710902244+708655762+712492525+718764043+720934785+720133691
3871+719301884+717368620+715978580+714858886+715874470+721706431+727397045
3858+728544350+722554323+710426211+709837518+719559754+728582980+733815672
3844+732627204+726286659+720798250+718528971+718502120+720477560+723803333
3831+726519768+727391092+727175968+726461950+722340086+716219162+718191942
3817+723300955+725034547+727894926+732211902+733884129+730811730+727287171
3804+726161081+723904657+723220593+725166015+725736976+726439532+728799497
3790+731000572+731313727+729039888+725972175+724752486+725443453+727974022
3777+732224377+735951964+735679592+731557982+729790826+731477492+733127618
3763+734303484+733045039+729452087+728586969+729559997+726776625+719538349
3750+718993035+725497661+727395525+724798842+727213965+732352236+733681861
3736+728220366+723270558+726185209+731589329+734307980+735138395+737377340
3723+740574115+742259325+741348484+738453592+735417163+732523347+730255207
3709+730170602+732272950+736084635+739216562+740730724+741612370+740897149
3696+739109222+736724180+732726185+729425680+731843082+736798970+738753638
3682+737063616+734483398+731503520+724979325+721665331+724446804+724853684
3669+726599561+731529104+732629990+730442530+729729398+729950538+727072048
3655+724218825+724094323+718735545+707813633+707720794+714027839+718464060
3642+721122614+722272833+721335205+718743461+716070595+713044172+707913120
3628+705544163+708892544+710349901+707620104+701189697+694795514+693897086
3615+694740799+695350517+696514604+693974029+689977427+690415401+692327640
3601+692498371+692448342+693281986+693780057+694119366+693926977+690029736
3588+682712617+680151778+682747954+684445449+684937314+685833336+685200440
3574+682512946+679599245+677011998+675024589+674939604+676253840+675988561
3561+673754112+672209616+672731562+674001469+675166443+677030933+677886298
3547+674609667+669495144+666638311+666629256+668388558+668811143+667177926
3534+666411915+666767753+666974771+667951915+670659611+672980756+672014441
3520+668972882+667450297+667457833+666986550+666337632+665723355+665417736
3507+666839883+668796324+669193072+669369692+670640993+670702610+668127522
3493+665880914+665608416+664962284+663846263+663719481+662946252+662809971
3480+665776234+669636491+673461285+675559074+672213226+666239411+663377766
3466+664735192+667481201+668697470+668267096+668549220+669545616+668278812
3453+666701576+668176854+668821909+666857741+666478283+667198064+666921892
3439+666822911+667647183+669501223+671786778+672850618+672825160+673232040
3426+674120082+674720490+674225459+672685459+672420117+674638608+677557628
3412+679540097+680476078+680973516+681515853+681150580+679912590+680464743
3399+682448288+683412260+684783618+687932897+691426109+694093592+695106706
3385+693526304+690582016+690626282+695078652+698553561+697706745+696896722
3372+698920418+700711131+701396398+704622304+710210074+713597718+714221937
3358+715732300+719287572+721965631+722277582+722913074+726271524+731152179
3345+734829610+738123845+743270476+748536478+751106437+750555044+749810629
3331+752744657+758983055+764665056+765774808+762645034+762330612+767359516
3318+770065503+767251163+765182695+767552539+771584984+772267972+769446223
3304+768865129+772321547+774336250+772425974+770159608+768839545+767719090
3291+767049085+767092084+766369707+762915569+758670216+756223176+754654680
3277+753081687+753672723+757283280+759252577+757115018+754939464+754901277
3264+753806470+750475821+749011941+751828878+755095946+753244565+748811066
3250+748685868+751183633+751684617+752211503+752401232+747794089+742780194
3237+743573055+745859179+745339450+743935922+741878409+740212515+741925652
3223+744767159+745501822+745625121+745465155+744437286+743974108+743922179
3210+744236854+745831948+746258839+744686353+745943215+750440864+751927479
3196+749167411+746437297+745042064+744338051+744291696+744492824+745175368
3183+746459524+746467694+744609410+744687430+748841020+752482165+752206310
3169+750649085+749875096+748637169+746149916+745003751+746673382+749283870
3156+752458733+755319366+755257811+754011905+754420621+755091513+754346148
3142+752979413+753148117+755625048+757397776+755682423+753217778+754515106
3129+758694598+760948045+759174240+756850246+757933210+759744252+759375369
3115+760485437+764201498+766327531+765070099+763038678+761830641+759631339
3102+757270424+757888184+759561172+759716008+760043284+761017135+761505708
3088+761821015+762261395+761904418+760288742+759343325+760472645+762325989
3075+763477918+763339104+762353980+762032149+762439852+762326369+761327884
3061+760059053+759948673+762201677+765476535+767173777+766965746+766210691
3047+766190237+767948969+770074685+768921617+765135706+764356841+767620173
3034+769660523+768616062+766724658+765370778+765873029+767523155+768329125
3020+769134651+770175249+770084818+770479285+771985278+772328513+772847989
3007+775042478+776322265+775467596+773829882+772540280+772734379+774301989
2993+774377919+772921195+773317879+774631229+774728564+775791707+779289097
2980+783282280+785831657+786143165+784191853+782796937+785238721+789579825
2966+791118241+789363878+786892203+785222446+785568847+788308144+790871833
2953+790032933+787342462+786110425+785570177+785669475+787503504+788594511
2939+787422255+786689365+789130389+792782552+792914337+789305173+785048928
2926+782340092+783041635+786244172+788245513+788396676+788948259+790548483
2912+791090060+788836359+785858824+784502032+784401657+784903148+785913856
2899+787022278+788109929+789284085+790389531+792190630+793991729+793397906
2885+791488010+790531574+790188149+789585777+789047873+788980429+789260717
2872+791088097+794421849+795983507+794247445+791371044+790052058+791167130
2858+793313554+794112557+793665592+793848355+793593715+792507141+792893819
2845+794244279+794440151+792995839+790915909+790450072+792321654+794835441
2831+796225545+795905677+795154422+795149230+795179183+794998383+795359160
2818+796483161+798320737+800689124+802353119+802377246+801637011+800672025
2804+799483620+798784484+798823177+799360005+800007529+799982642+799936349
2791+801871766+804341857+803541460+801328479+802545761+806062720+807567826
2777+807361695+808085402+809012834+808194009+806516842+805556163+805091529
2764+805326917+806808718+808361890+809520848+811259125+812230570+810398314
2750+807943801+808172287+810641175+812326195+810785815+807411723+806321856
2737+808667635+811548089+812575325+812644859+812545561+811492677+810896639
2723+812061739+812896966+812623771+812747450+813379142+814220069+815365474
2710+816456038+816911299+815968162+814690909+815165549+816313234+816638674
2696+817716446+820382726+822326375+821437193+818828604+817246112+818377776
2683+821089081+822526110+822498373+823035200+824334049+824546512+823124556
2669+821929185+821254620+820316612+821153296+824194031+825711043+824387940
2656+822400848+821553336+822956294+825590784+826667226+826020715+825746570
2642+825871705+825230323+824834526+825787922+826770386+826633979+826049782
2629+825702304+825929143+826329310+826035976+826212977+827163397+827048141
2615+826757214+828045043+829565094+829304185+827514548+825925660+826032620
2602+827887737+829562181+829844242+829892878+831040373+832874529+834075853
2588+834728000+835726802+837089294+837743658+837101453+836121649+834813682
2575+832723556+830900039+830178105+830553701+831662503+833264120+835121834
2561+835906145+835415104+835187631+835060659+834598431+834562398+834868777
2548+835766192+836835541+835828569+834030890+834907407+836834147+836705656
2534+835766761+836031154+837193531+837653353+836795581+835835219+835564240
2521+835679559+835944522+836691280+838161556+839926748+841325844+841703276
2507+841184434+841024848+841717525+841640392+840271947+839780842+840649822
2494+841847853+843095849+843278992+842422424+842436609+842862107+842209010
2480+841956776+843382026+844948053+844876746+843211105+842829873+845407368
2467+847587736+846888789+845334605+844617293+844048232+843576948+844024738
2453+844899291+846015123+847009808+846883280+846782716+847063067+846528456
2440+846008536+846607615+847987586+848934966+848602686+848309923+848867016
2426+848669497+848055156+848951494+850564954+851433111+851193037+849756134
2413+848414667+848394909+848619468+847805899+846974978+847553032+848348363
2399+847855801+847954149+850122168+852343635+853428689+853962857+853215339
2386+850703958+848567350+848435248+848203153+844909867+839654820+836613071
2372+835705270+832821460+828606568+825233110+820810060+815852969+815116407
2359+819605887+824855108+828217484+830334587+832856607+836299220+838332097
2345+836772466+832809745+829248077+828416712+830400005+831801950+831572388
2332+832189705+833947171+835609836+838093352+841516777+842809355+841583840
2318+840950122+841843230+843965400+846880177+849334436+851237936+853001798
2305+853692575+853310013+853966087+855607663+855822281+855462960+856493173
2291+857215487+856068751+854514693+854621337+856376397+857245251+856488043
2278+856355752+857664352+859251278+860018744+860290039+861534806+863252882
2264+863005588+860899947+859848900+860930914+862150413+862034650+861695658
2251+862307908+863337171+864105588+864623670+864723348+864222554+863894897
2237+864412536+864887050+864721068+864845633+865000976+864375046+864188990
2224+864513860+864272202+863998944+863312600+862568755+864314315+867276778
2210+867635909+866263601+866241563+867587526+868375828+867924809+867378736
2197+866834752+866225478+867181850+869029811+869392805+868183755+866509058
2183+865615886+866164683+866829686+866316859+865995472+867501338+869794555
2170+871077191+871018930+870161412+869540991+869839201+870263876+870443599
2156+870669552+870563795+870692983+871790070+873082522+873332412+872481036
2143+872328164+873174853+873280990+872784502+872361917+871767525+871258751
2129+870579563+869958890+870837876+872216834+871950415+871299028+871557341
2116+871753719+872286368+872884940+871891900+870596218+870482229+870733196
2102+871314923+872990443+874479464+874264657+874271370+875574334+876016550
2089+875248514+874780143+874775900+874365601+873702308+874058842+875525319
2075+876784080+877275059+877201029+876084437+874280109+873396183+873917115
2062+874918767+875642474+876544639+878242450+880006059+880159945+878089958
2048+875582630+874762095+875442486+875941887+876437615+877822399+878443579
2035+877251818+875624109+874889447+875711248+877527166+878390700+877503925
2021+876675790+877649451+879536169+880195346+879843498+880422501+881762956
2008+882453796+882373117+881729265+881236767+882335563+883701982+882587480
1994+880386215+879631287+879882191+880420665+881435932+882305546+882339236
1981+882179461+882360578+882831988+883803369+884149518+882946294+881860923
1967+882085483+882715592+883090365+884242293+886726379+888004583+886335015
1954+884433099+884218862+884176432+883785384+883636755+882923876+882648338
1940+884370404+885347612+884418343+884240203+886067329+888797127+890871674
1927+891092561+889265814+886855821+885327917+884695021+885261930+886442355
1913+886908129+886713207+886938843+888190196+889141312+889462889+891082682
1900+893794241+894909439+893974471+892135122+889297985+886756523+886842395
1886+888236931+889133903+890341813+891239924+890185963+889118324+890654967
1873+893090672+891981743+886870386+885386938+889276833+892746360+894220435
1859+894787407+894868656+894676394+894195801+893659353+893022151+891320540
1846+887764888+884844474+886980449+891449348+893988973+894758023+895400227
1832+895335760+893991633+893655110+894716037+895324108+896842196+899390053
1819+900265430+899556035+899377388+898977031+897476548+897282132+898614164
1805+899101913+898270929+896789634+896297452+897155414+897451280+895711799
1792+892976492+893767896+897161747+899788700+900721072+898900088+896601678
1778+897760509+898964049+896246917+892292998+891893718+894107522+896867843
1765+898762097+897976646+896441332+897596617+899582379+900400508+900353519
1751+898625056+894955605+893630792+895872018+898432731+898907181+896982213
1738+895084540+893726987+891799043+892726791+895980054+899076455+901171014
1724+901496328+901089891+900583714+898415126+894470579+893502681+895979991
1711+898578954+898588390+894754413+890461312+889391266+888282717+887377007
1697+890098381+893186233+895214488+895922300+895855869+896507256+893954206
1684+885820542+885820352+892401605+896476226+894264891+889649959+887143771
1670+882883980+880265132+884008614+888124525+890022768+891909106+893053055
1657+891696642+885858032+874966390+872994940+874019833+872518843+875590229
1643+880684044+882560440+881984412+878495571+873243310+874126476+878290136
1630+880259053+879795242+878671811+878352450+882637509+889359032+891461317
1616+890367080+893971685+899289172+901855205+902006874+902276206+903247271
1603+904642314+907244063+910246422+911963169+912352760+912943923+915132966
1589+918343356+920813131+921719918+922122745+922530004+921408093+917944899
1576+915513628+917757830+919552912+918202896+918223604+920849227+922463763
1562+921366677+914052281+905051663+910672490+917890184+922254466+924971155
1549+927280394+927445615+921739676+912647233+905376787+907248876+915949765
1535+920157627+919467610+920502699+922915732+923314189+922505053+920450011
1522+918813373+923266187+929976944+934780402+937782445+938081034+933566793
1508+921315318+914429397+928621545+941663157+945070560+941310803+937718547
1495+938752433+940176163+936598093+930768539+932108866+937866987+941566773
1481+942047429+941308840+937817908+929898798+923004517+925458777+933232677
1468+936482520+933145475+929072183+928348793+925234597+915545735+913085903
1454+922612013+929300796+931977588+932635688+932447669+933398975+935146626
1441+936494109+936747546+936134789+938187615+941581591+942624660+942590716
1427+942621050+941392242+940355570+940321690+937102877+933368958+935818404
1414+938727989+937406596+934931755+935444645+937290137+935832083+930780951
1400+924652617+920340897+919375532+920070045+921760638+922028830+917866183
1387+912209640+911414815+914973761+918667593+920371674+920642780+919510736
1373+918412130+919240708+919381991+918286995+917296742+915203386+913326104
1360+914226559+916316115+917479632+917692856+917935147+917500277+916031457
1346+915483611+915752499+913586127+909588639+909009698+911529058+913167595
1333+914208510+915246259+915682016+915893467+916543207+918759862+923098495
1319+927844959+930928504+931654364+931267180+932257939+935136050+937357960
1306+937599555+938588985+941564936+944593513+948035429+953109106+958159731
1292+961344284+963211180+965255837+967887540+970188230+971050245+970821189
1279+971515955+973957359+975533202+973352328+969838535+970650901+975464808
1265+977692482+975455372+973641798+974871366+977233293+978909700+980147501
1252+981978934+985404891+989816921+992336218+991955619+991406000+992180622
1238+992906989+993181387+993233316+993098618+994741715+998018726+998630850
1225+995453327+992075562+990770761+991417019+993838094+996852169+998110551
1211+997234984+996047972+996074633+996583470+996383798+996559912+997580309
1198+998554477+999390591+999982197+1000340504+1001164395+1002124631+1001588563
1184+1000588748+1001774176+1004241101+1005738038+1006173731+1006423369
1173+1005793703+1003799581+1002679444+1003818643+1006396644+1008129919
1161+1007961088+1009082809+1012708122+1016300250+1018428943+1018781614
1150+1018182282+1017180250+1014700470+1012148496+1012432330+1014606555
1138+1015480095+1015496054+1018116548+1023257035+1026682422+1026558047
1126+1024176235+1020333899+1017042892+1016289485+1016600106+1016596877
1115+1017201275+1019883640+1025462987+1030302732+1028833596+1022129045
1103+1015789260+1014526889+1018602650+1023403955+1027283844+1030972991
1092+1033025627+1033782644+1032262656+1027851512+1025602308+1027709849
1080+1033040635+1040305635+1043001806+1039204053+1037300046+1038795907
1069+1038120898+1035874417+1035703306+1036657652+1034835338+1032038920
1057+1033460307+1037848146+1043045249+1048028874+1048718891+1048413399
1045+1054774208+1063516703+1063071384+1052909212+1045404960+1050327537
1034+1061368633+1062378770+1054246879+1051167197+1053291583+1053434830
1022+1054402159+1058842560+1061901534+1059762773+1053648751+1049879938
1011+1052089500+1054639130+1053737536+1053933028+1055670483+1053984640
999+1049825160+1047037038+1046259819+1047496986+1049684446+1050218867
988+1048493445+1046318270+1044065772+1041469786+1040145987+1041327932
976+1044662698+1048228925+1050036800+1050008556+1048045466+1044564603
964+1042611012+1044039935+1047247475+1049929650+1050528539+1050364267
953+1050540698+1049347037+1050015776+1054041318+1053982424+1049130836
941+1046834769+1046756243+1043440919+1038642717+1038721940+1045767700
930+1055367524+1060800774+1061599208+1061457038+1060762461+1058984730
918+1057657448+1057306423+1057768588+1062480411+1070994041+1073741823
907+1067556114+1061422841+1061340958+1063829288+1063531142+1058820459
895+1051021670+1045568598+1045303889+1045649784+1045430988+1048710848
883+1053219263+1053954053+1053220466+1053365297+1051771469+1049113168
872+1048477359+1049679063+1052194053+1052837081+1046732685+1038686223
860+1034462022+1031259231+1028555841+1030379865+1034798608+1034563916
849+1029658944+1025314421+1022170144+1020958878+1021785809+1021076668
837+1019282091+1019360174+1018128517+1012195232+1005501446+1002543163
826+1003477244+1006409627+1010705578+1014185933+1010477852+999810389+990763225
812+989934204+994529061+995125860+989839973+985127136+984164874+983405323
799+981759440+982314760+984685300+987925644+984896877+970148017+957272449
785+955433924+956879755+954811350+950208261+945638164+944008050+946364152
772+948695112+946155677+939959646+935126107+931767087+927272161+923621644
758+923609612+924993699+925546232+926021062+923973049+916841290+909215450
745+907756003+911669456+915530726+918216954+918698434+916176034+913247261
731+911445213+908814333+901843806+894764799+894346520+899316847+904486908
718+906091058+905496412+904542509+903538641+904160518+903651301+898954486
704+894272490+892563216+890616148+886902936+885416386+888776545+894404212
691+896640181+891713234+884915021+882163566+879437885+875316148+874473954
677+875768180+877907194+881110302+878424327+868878079+866234660+873209557
664+879606336+880203008+874891346+872591353+872709459+870732183+874800788
650+886334572+893323210+890479740+884172569+880905374+878677004+866778137
637+842761860+819649076+815759308+839948596+874923453+888966085+867511027
623+835013734+830295071+858835089+896104493+908612191+881889674+847801529
609+831752175+832898910+840651279+839245027+832332382+847482802
##END=
