##TITLE=Sample description
##JCAMP-DX=4.24
##DATA TYPE=INFRARED SPECTRUM
##DATE=25/8/2023
##SAMPLING PROCEDURE=Instrument type and / or accessory
##ORIGIN=Default
##XUNITS=1/CM
##YUNITS=ABSORBANCE
##RESOLUTION=4
##FIRSTX=4397.6552
##LASTX=599.8556
##DELTAX=-1.9287962
##MAXY=1.9421402
##MINY=0.62709612
##XFACTOR=1
##YFACTOR=1.808759e-009
##NPOINTS=1970
##FIRSTY=0.73405802
##XYDATA=(X++(Y..Y))
4398+405835166+406679958+407068873+407521355+407770483+407190800+407061590
4384+408122853+409072667+409427442+409364732+408502640+407326964+407011402
4371+407253214+407641009+408633893+409379001+409048775+408204807+407615108
4357+407803502+408140054+407664439+406978845+406723621+406425294+406398668
4344+407087854+407781884+408240990+408519545+408396233+408109177+407805776
4330+407392475+407233903+407736079+408220032+407727742+407072333+407672084
4317+408660948+408627039+408247779+407823208+406866968+406462598+407569401
4303+409334810+410209919+409532003+408276119+407379590+406868154+406887333
4290+407139064+407045213+406898307+407139723+407717428+408327690+408788905
4276+409026894+408848913+408210212+407498585+407456701+408060670+408456439
4263+408509099+408431197+408131387+408048180+408475849+408842982+409159696
4249+409832472+410590662+410978720+410471700+409208830+407994433+407299546
4236+407507449+408214957+408155377+407322877+407076485+407645556+408243000
4222+408997764+409658478+409155050+407735585+406564852+406152671+406187997
4209+406208428+406431094+407301359+408246428+408320045+408011108+408266430
4195+408485669+408111418+407947574+407998882+407548311+407039841+407009491
4182+407268999+407576783+407475451+407176169+407549201+408057770+408007812
4168+408100411+408524092+408459108+407587064+407033910+407996905+409279614
4155+408759116+407079616+406341791+406718282+407226621+407298360+407117216
4141+407469619+408398079+408891390+408055265+406617577+406557305+407887006
4128+408528113+408096556+407981252+408437227+408676370+407954823+406552659
4114+405997362+406457259+406760331+406725269+406617445+406450932+406312858
4101+406532590+407477593+408549236+408753909+408233444+407598598+407073915
4087+406891189+407284750+408041820+408749230+409336161+409643385+409321827
4074+408586308+408121864+408055957+407725930+407041093+406768075+407182035
4060+407638603+407673204+407678773+407818726+407870825+407831051+407767319
4047+407917125+408184311+408142328+407810356+407434820+407128519+406829039
4033+406655968+406963488+407692350+408289168+408459207+408498850+408397683
4020+408037405+408186881+408907504+409023171+408572567+408454594+408571941
4006+408667604+408798264+408713212+408340476+408108221+408059516+407680553
3993+407262078+407584033+408264255+408621799+408747714+408757830+408717891
3979+409001553+409615408+409712456+408916962+408118404+408034241+408451265
3966+408831481+408904407+408675908+408618471+409243530+409769267+409370005
3952+408897651+409028542+409155874+408921839+408240727+407299217+407566238
3939+409392545+410599856+409396268+407001319+406197982+407157913+407901670
3925+407977693+408313125+408645229+408214397+407804293+408076553+408267320
3912+408368256+408986197+409163881+407294175+404598361+404284810+405805113
3898+407275457+408395146+408465633+406933270+405859947+406422856+407187439
3885+407719537+407467740+406221379+406155505+407116425+407358072+406963422
3871+405757198+404659292+405036146+405117212+405271796+406946418+408267353
3858+407703983+404463582+399466571+400254782+404888779+408114515+408692649
3844+407176729+405761581+404440647+402411545+402406240+404149669+405379619
3831+406029426+406378039+406479536+406623179+406082514+404871874+405392043
3817+406522935+407382391+409001356+410195024+409654194+408111615+407658342
3804+407188494+405457191+405442000+407198116+408940425+410449193+411390275
3790+411609085+411331058+410902994+411132052+411787066+411306441+410425500
3777+410829244+411418944+411068255+409962044+409541197+410402828+411419142
3763+411977207+411391725+409576984+409144505+410897721+412314945+412041466
3750+412638250+414564703+415525918+416718467+420172075+423738681+425195185
3736+423977625+423102879+425357843+428999549+431456220+431284830+429142204
3723+426723297+424956603+424166283+423773414+423470935+423615369+425676699
3709+430145468+434955107+439151714+443496447+449988320+458631617+467870613
3696+476640418+482581081+483877762+482614759+483514517+485797755+486086129
3682+482882604+476685498+468876678+458939764+451202782+448204523+444344171
3669+441237166+441082450+440748369+439185755+437022006+435072157+432971514
3655+430705082+428996649+426193968+421631513+421003620+424057999+426672154
3642+427848456+427759976+427036618+426009396+424715714+423214558+420070777
3628+416075745+415086519+414429594+411621970+406982469+402593975+399681065
3615+396882502+394838012+394642236+394527229+393996120+394045451+394000733
3601+393030949+391236541+389393593+388146145+387495646+386670692+384569488
3588+381258700+378832345+377835177+377037806+375671758+373719503+371844393
3574+370946876+370737490+369929837+367335223+363607278+362161450+362829316
3561+363157004+362310894+361133899+360099824+359136202+358590956+358138276
3547+357220822+356286859+355482237+354435343+353838920+354204010+354301981
3534+353568374+352648053+351788135+351679093+352331437+352190858+350969443
3520+350108372+350018113+349971319+349653155+349284901+348983675+348764469
3507+349202913+350241273+350575387+349791691+348586159+347684654+347646066
3493+347802924+347361744+347132916+347764929+348280055+348038211+347768883
3480+347863789+347813667+347589913+347461824+347539725+347824673+347678426
3466+347015932+346699646+346821442+346965283+346965118+346746209+346713388
3453+347285622+347828726+347691443+347575908+347925444+347911044+347556367
3439+347639113+348081577+348715006+349558612+350134208+350143929+349904424
3426+349704496+349669038+349976822+350568203+351204169+351926737+352637409
3412+352953530+353166541+353843896+354751332+355786529+357187573+358619131
3399+359775991+360662041+361459742+362675786+364193056+365371237+366403500
3385+367589030+368681400+369990010+371882816+373984778+376162631+378914432
3372+382185677+385127487+387709150+390317967+392769794+395397790+398291225
3358+401101782+404359384+408185464+411845426+415278768+418874669+422494000
3345+425952980+429558471+433560983+437604423+440738384+442712553+444688632
3331+447336202+450049218+452358620+454199196+455567023+456789987+458208563
3318+459764718+461279286+462825786+464277546+465240145+465653248+465566482
3304+465327505+465293958+465017875+464104310+462986961+461879004+460156566
3291+457537764+454356713+451343822+449261435+447511514+445118179+442743265
3277+441621501+441422495+440836157+439213864+436832392+434673982+433168377
3264+431869949+430703105+429979153+429441981+428529074+427491538+426872477
3250+426606214+425848419+424354084+423352566+423255585+423323831+422910497
3237+421779901+420396422+419602015+419779140+419947103+419339048+418219063
3223+416701792+415573272+415840820+416980380+417373909+416280616+414987131
3210+414881417+415276198+415149525+414901749+414805328+414646756+414372354
3196+413884249+413484558+413378119+412879864+412126057+412554154+414016326
3183+414559595+413520510+412535140+412926296+413541963+413188143+412873933
3169+413738727+414846783+414611859+413679411+414136441+415817259+416505028
3156+415797322+415285689+416016363+417148574+417097793+416211447+416375192
3142+418125014+419232707+418056010+416612818+417292975+419126631+419478605
3129+418389992+418249973+420426574+422787252+422218906+420147459+420335623
3115+423250312+424596950+421858199+419338949+421141562+424955549+425259312
3102+422290678+421279538+423721677+426368851+425656993+422941177+422661963
3088+426170472+428964717+426719903+423238877+423113951+425485208+426809569
3075+425066305+422798654+423190930+425825681+426741850+424310223+422374874
3061+423510874+426057541+426658280+424818364+423132570+422765371+423205364
3047+423214064+422343239+421702560+421929048+422692313+423266756+423117411
3034+422761944+423041454+423808443+424259047+424102321+424032097+426085255
3020+434743019+450571198+462067200+459517897+449598086+441414620+436676457
3007+433511685+431012141+429858181+429968113+430125532+429696413+429452031
2993+430267593+432322168+434608009+435262825+434511785+434328038+435708057
2980+437721968+438092824+436836676+436125280+436666143+438306560+439794205
2966+439361693+437807547+437383570+439299213+441224874+439998450+437741970
2953+437432341+439119980+441755489+442591054+440878897+439511400+440229585
2939+442423618+443578665+442057440+439998417+439846272+441938611+444165960
2926+443574249+441115766+439651979+439983918+441398901+441743659+439890429
2912+437727965+437417479+439068013+440418177+439815493+438753078+438918075
2899+440194160+441630728+442093722+441483426+440963324+441441543+442591548
2885+443069965+442365192+441630398+441860248+442837677+443616660+443520569
2872+442780074+442144964+442405494+443475258+444209853+444079951+443676405
2858+443566143+443721155+443709457+443230118+442383217+441676994+441865718
2845+442791311+443364534+443531575+444119594+445003502+445448503+445579559
2831+446157659+447231279+448011350+448103751+448011219+448148733+448384745
2818+448629061+448887777+449198857+449529774+449674571+449779824+450101646
2804+450519297+450892131+451195104+451479524+451952240+452593380+452848142
2791+452507932+452188021+452466608+453302766+454063593+454345146+454316279
2777+454188552+454358987+454958144+455543527+455938967+456286296+456676397
2764+457081987+457360014+457459171+457568345+457924735+458433897+458689978
2750+458550223+458436369+458703785+459182762+459601665+459959274+460339918
2737+460530026+460409878+460421412+460914328+461684283+462284297+462406587
2723+462238986+462392252+463127342+463904448+464109813+463947617+464046707
2710+464399934+464556990+464640592+465087769+465674569+465889722+465925113
2696+466164157+466489242+466796136+467073307+467193718+467306089+467703243
2683+468311067+468902843+469229839+468964235+468488158+468622443+469225884
2669+469659287+469852855+469954318+469976199+470063789+470395332+470842344
2656+471173789+471302274+471371872+471678700+472116617+472343237+472498513
2642+472845512+473265008+473673827+474225235+474870527+475238616+475138537
2629+474887564+474803533+474875207+475155969+475662198+476079981+476290355
2615+476550159+476815367+476844894+476812764+477025478+477546800+478171101
2602+478614817+478840745+478995428+479336330+479929754+480510689+480968279
2588+481198721+481079727+480778500+480611031+480897725+481444718+481809940
2575+482051751+482187354+482093569+481965809+482065097+482372091+482611266
2561+482673284+482753130+483078149+483601118+483904157+483835746+483793829
2548+483973359+484122605+484157008+484329947+484740809+485134272+485280882
2534+485396680+485773106+486095620+486117402+486260156+486618062+486803524
2521+486875757+487114570+487307940+487172074+486998146+487288366+488131840
2507+488978048+489235546+489096483+489044680+489182853+489417876+489622055
2494+489725595+489842909+490098066+490521846+491055064+491445166+491616259
2480+491724346+491847493+492101003+492334675+492340244+492388653+492697294
2467+493162298+493518425+493516547+493254897+493077839+493296155+493856131
2453+494331120+494614881+494973183+495468175+495828421+495773158+495611324
2440+495755001+495903521+495879301+495954929+496133305+496379335+496705507
2426+496851325+496848821+497012039+497254608+497493520+497779819+497915191
2413+497995959+498366685+498847342+499152028+499310534+499372519+499574029
2399+500114233+500952533+502443671+505615232+512010519+523023228+539035814
2386+559178244+581739350+605139976+628501387+651506638+674358986+697427969
2372+720489044+743118561+765278164+785290857+799353166+806509905+809326559
2359+808331302+800152943+783894360+764323374+746275029+735911534+739670719
2345+754108367+760321652+751508283+741500486+736080585+734436345+737420006
2332+741687068+740367880+734206397+730116690+730731402+732317907+729817672
2318+720615057+708628742+703733788+708304482+712287815+706443738+691271561
2305+673415203+659738909+651691177+645746988+638836278+629800935+618141253
2291+605545236+594809105+586071528+578041591+570690097+564332146+558833289
2278+554270240+550690420+547452656+544113297+541164072+538889732+536895363
2264+535036927+533585233+532519522+531557845+530640787+529771379+528871588
2251+528026533+527459768+527054343+526423616+525695117+525196830+524824490
2237+524592268+524640841+524789164+524892176+524963125+524951624+524848282
2224+524833420+525023825+525329796+525731860+526087229+526305182+526736475
2210+527383514+527822914+528167804+528817347+529523965+529812768+529822259
2197+529888034+530236054+530928140+531514775+531782916+532217835+532894465
2183+533280217+533221791+533083815+533111397+533152457+533157103+533342400
2170+533646263+533849684+534008881+534271816+534494086+534409890+534209831
2156+534230163+534411110+534535739+534361383+533895687+533553960+533532936
2143+533688608+533939580+534370841+534967296+535541244+536152759+536867979
2129+537490039+537980417+538494621+539040922+539354209+539328472+539263456
2116+539417710+539654480+539761941+539934353+540418404+541079942+541551669
2102+541626473+541578098+541808870+542274698+542578627+542512457+542310189
2089+542479932+543195217+544001354+544498258+544836787+545260930+545529961
2075+545509925+545682139+546385001+547275104+547768843+547980733+548389058
2062+548911006+549383919+549990195+550763017+551329649+551697277+552320062
2048+553276499+554392167+555346496+555914150+556405550+557108775+557691126
2035+557865647+558106865+558656131+559032590+559137118+559304192+559544026
2021+559659956+559605715+559448198+559303928+559293581+559535458+559928789
2008+560159858+560149643+559923912+559652245+559689482+559962731+560214956
1994+560391125+560337345+560095995+560074443+560335170+560591876+560819320
1981+561090724+561286730+561443193+561674064+561959308+562185961+562245211
1967+562472985+563088685+563538102+563723564+564176211+564906852+565564337
1954+566011053+566225447+566395288+566716583+566975728+567084936+567392588
1940+567995437+568721530+569497581+570215437+570768394+571025034+571053177
1927+571031823+570977318+571268691+571925122+572390687+573001576+573854210
1913+574186314+574021152+574047844+574477160+575089433+575858234+576463126
1900+576465828+576157583+576125552+576538523+576999408+577398276+578162925
1886+579118110+579758262+580039024+580216577+580370403+580515859+580929885
1873+581202541+580404543+579168661+579536881+581217831+582663098+583287037
1859+583191274+583064931+583439084+584166364+584845466+585054852+584488186
1846+583349714+582932723+583895817+584837096+585230493+585622506+586045495
1832+585477313+583960339+583682806+584780482+585902214+587021836+588002198
1819+588539865+588677214+588375691+587437839+586508753+586903929+588275645
1805+589295089+589428089+588861291+588638065+589134475+588988821+587699093
1792+587470595+589695077+591874281+592761253+592793613+592520562+592532491
1778+592867165+592455841+590526687+588551860+589819508+592817339+594815498
1765+595488207+595074907+594783929+595524456+596563277+597416109+597269269
1751+595327922+593192480+593334180+594713277+595444379+595013020+594632277
1738+594860314+593874614+592081491+593521025+596438713+598436411+599502978
1724+599943103+600047763+598989697+595755525+593508239+595889777+599218591
1711+600906065+600396870+598402996+597095935+596870995+594896036+591508499
1697+591719400+595646449+599412291+600582002+599843386+597921086+593754335
1684+590444370+593826766+597523142+598540609+597739843+596765215+595936373
1670+594555562+595185893+597624111+598391264+597837385+598425668+599092511
1657+597699574+593192414+588423803+590337008+592201969+592023098+594002539
1643+597521165+599313562+598596696+595713542+594587527+599013160+603132525
1630+604887949+606173590+607958277+609968299+613549799+617049180+618029805
1616+619353409+623532353+627097575+628899727+630010979+631718358+634038668
1603+636072218+637508391+638551957+639332160+640358854+642067419+644071245
1589+645872606+647352738+648906752+650640493+651709894+651259620+649090170
1576+648336000+651678655+654413716+655210857+656587318+658611114+660124858
1562+660130263+656065205+651595415+657287642+664741819+670827970+675453894
1549+678981417+680950708+680084562+676020098+672247402+678281092+687729341
1535+692925950+696287586+700511149+703971381+706060755+707664989+708252547
1522+709690235+715052402+722039037+728952251+734728905+739099704+741958867
1508+741989316+744096550+753329020+760880937+764808974+766969461+771012440
1495+777512024+782450872+784462080+786791090+793385910+801356531+807695501
1481+812540366+816437362+819286903+820718330+821108761+825795055+835215425
1468+842872989+847534239+852610107+857888309+858967069+855433615+857567343
1454+868468768+879031170+885526272+886812639+887609253+892048067+897719863
1441+900851683+900142922+899996412+906023181+912236138+913501875+913676462
1427+915787585+916327558+916010151+915708233+909105043+900282908+900143318
1414+903298402+903712296+902206262+900185630+896221409+892461829+891236888
1400+888394069+882267187+876452176+872918919+872753823+874515903+873694904
1387+868910145+866352110+868342425+870299919+869523078+867615409+866995359
1373+868386781+869106284+867480696+865693241+864827557+864217656+864699039
1360+865089008+864014796+863748335+864998914+865518456+865660024+867435022
1346+870100815+871944818+871553596+868244949+865748668+867461846+870712561
1333+873287008+875302236+876354106+876165547+875987995+876389828+876501671
1319+876678631+877878594+879976337+882017994+883143944+885733087+892539863
1306+900417555+904654234+906140100+908153153+910912863+912660049+914393263
1292+918521327+923515999+925655000+925058413+925415429+928248691+932016048
1279+934767718+935377025+935512924+937701026+940816368+941690752+940075380
1265+939170217+940633873+942398524+943190656+943268031+942368602+942421921
1252+945334403+948379093+948783694+948367164+949347262+950362752+950388258
1238+951327955+952872874+952885792+952321037+953040474+954204189+953884014
1225+952681942+953000535+954958688+956039294+955081538+953680428+953670476
1211+955325854+957096437+957179150+955911106+955667844+956829581+957011286
1198+955844606+953896998+950746131+948506161+949163119+950882822+952452455
1184+954835311+957239125+957410285+954902074+952595802+952837811+953603779
1171+952992560+952087332+952421281+954868264+958290666+960532877+961334895
1157+961193591+960636284+960547310+960174147+959123265+959887057+963435143
1144+967063899+968456243+968165529+968214431+970360419+974133576+976433521
1130+976034126+975099108+975509905+978242857+981947537+982927898+981746851
1117+981773938+983271272+984987943+984037503+979809985+977569027+979494029
1103+982949713+986271212+990269243+996987176+1003998987+1006241659+1004072275
1090+1000871254+1000360938+1004759352+1011866727+1018033351+1020520339
1078+1020553622+1022142632+1024824704+1027160964+1028842705+1028568203
1067+1028790111+1031460979+1034253181+1036056388+1036869083+1036745837
1055+1036401211+1036298265+1037653438+1040316331+1041336830+1039079988
1043+1035498883+1035590955+1041278832+1046412698+1047935670+1049855729
1032+1052130498+1053367236+1053175382+1047566395+1039249961+1039282058
1020+1049138467+1058003178+1060751486+1061809881+1062132429+1060033696
1009+1057763739+1056842957+1055219807+1053214992+1053777637+1055441913
997+1052946620+1047597173+1045854403+1047514394+1049160875+1050677783
986+1050785079+1048505499+1046946345+1047822706+1048427729+1047812095
974+1047860602+1047782832+1047182027+1048310283+1050195873+1049910432
962+1049461739+1050910697+1051550717+1051828711+1052714233+1050583932
951+1047286621+1047233302+1049859222+1055658218+1063419718+1067445824
939+1067661471+1067042937+1065015450+1063079310+1062582307+1061090576
928+1058492139+1056886455+1056620390+1057001726+1057344506+1057570237
916+1059557718+1064865578+1069737729+1070176074+1069056781+1068392903
905+1066132239+1064229974+1066532028+1070587859+1072341570+1073060941
893+1073741823+1071985410+1066355794+1059691575+1057897661+1062901230
881+1069143119+1069930308+1066457554+1063200973+1058693880+1053086606
870+1051260398+1050883346+1046615889+1042119670+1041379867+1041303350
858+1039439311+1036198746+1033070947+1032692050+1034259838+1035458021
847+1036558992+1035793354+1031167694+1023919147+1015879851+1008999062
835+1002875014+996944732+995103102+997734887+997998777+993993101+990040810
822+987488508+986544856+985943129+983887499+982714492+981692873+977928152
808+973160595+970026799+970935454+972564733+968007287+960198664+955374757
795+953931730+953413243+952384242+950905757+948714624+946880507+945102609
781+941819732+940263016+941157501+939634003+935675121+932194655+929525765
768+927448320+924292907+920439607+918679438+915780533+908829883+903744326
754+903312572+902715655+900441150+898015521+895737588+895036869+894386106
741+891283747+888901155+889078180+889928772+891666533+894327713+896666411
727+898574937+897697653+894631015+896348873+901993450+903545618+899494994
714+893398626+890886330+893708981+896132831+896323762+896182063+892950791
700+888347605+889355582+894799077+896334703+891850874+888189693+888265947
687+886533919+883344629+884621901+886942870+884817709+880925064+877692671
673+876127651+879854542+889520810+893967072+887579199+881021287+877372562
660+879266325+884728142+882078167+870565523+860451156+855652886+857159842
646+863990212+869149387+867871852+863293381+859724073+860115098+867267949
633+874143003+868446228+856488056+849854879+850145395+857488255+863951921
619+857642213+837497509+812284055+795444571+797030087+820365136+857477315
606+890356374+900089472+873277187+826015710
##END=
