##TITLE=Sample description
##JCAMP-DX=4.24
##DATA TYPE=INFRARED SPECTRUM
##DATE=25/8/2023
##SAMPLING PROCEDURE=Instrument type and / or accessory
##ORIGIN=Default
##XUNITS=1/CM
##YUNITS=ABSORBANCE
##RESOLUTION=4
##FIRSTX=4397.6552
##LASTX=599.8556
##DELTAX=-1.9287962
##MAXY=1.8617331
##MINY=0.89203143
##XFACTOR=1
##YFACTOR=1.733874e-009
##NPOINTS=1970
##FIRSTY=0.95765477
##XYDATA=(X++(Y..Y))
4398+552320843+552262506+551369299+551229833+550750177+549240908+548744923
4384+549745144+550266946+549460368+548401192+547915004+548091321+549179615
4371+550328755+550225763+549912214+549928990+548818695+548020506+550021738
4357+553175719+554026058+552418300+551316737+552231739+554386531+556021859
4344+555610406+554490623+554438611+554342391+553257707+552241433+551572637
4330+550638488+550089734+551136398+553119995+554204301+554524725+554771995
4317+554863334+554794718+553708900+552383889+553136358+555458977+556005702
4303+553211471+550385167+550208024+551237190+552450545+554222417+555767335
4290+556075521+555786895+555580085+555281697+555434019+556297731+557181965
4276+557884278+557751207+555922648+553887796+553856685+555982016+558419075
4263+558873464+557281004+555684212+555321849+556171156+557694966+558581229
4249+558087719+557068419+556430115+556782165+558295216+559494442+558415396
4236+556153143+555700094+556279889+555403665+554550473+555624122+556826133
4222+556711522+556753702+558080362+560061587+560812200+559405201+558263005
4209+559122041+560713195+561843531+562093277+561513929+560287785+558680233
4195+558293119+559749310+561147474+561344177+561142112+561580928+562388950
4182+562396960+561521801+560732033+561022344+561630981+560848123+560249111
4168+561794029+563102951+562037690+560651661+560867340+561873576+562525872
4155+562150926+561150087+561208286+562378981+563670061+564649312+563680306
4141+561020797+560864005+563896706+565670503+565103186+564737145+565235571
4128+566254870+566791523+565821897+564548245+564305237+565239558+566385432
4114+565763904+563846413+563564594+565080051+566101138+565828738+564350477
4101+562539072+562022049+562830345+564018124+564616380+564387913+564262129
4087+564508815+565227389+566466114+567509512+568418291+568858380+567632133
4074+566065352+566251329+566943227+566323451+565107105+564723944+565624198
4060+566824868+567514875+568266690+568934661+568920051+568487388+567898483
4047+567672182+568172911+568505848+567948123+567199779+567076298+567478986
4033+567986040+568243796+568404712+568727096+568668621+568060843+567767405
4020+568577592+569971528+570627845+570283839+569426212+569027169+569900609
4006+570971748+571292447+571578667+571852510+571422150+570933143+571393274
3993+572194110+572186616+571682312+571556047+572078468+573383884+574010328
3979+572372250+570452903+570561911+572279639+573998674+574528692+574213700
3966+573947144+573909914+574321023+575314369+575877423+575141764+573790146
3952+572521650+572183660+573852814+575886842+576142844+575620320+575875016
3939+576272306+575917781+574499644+572576584+572216833+573467728+574107923
3925+573871859+574084650+574806867+574976413+574505660+574857917+576570592
3912+578427408+579359975+578693551+575719875+571821090+570421792+572147565
3898+575036675+576886787+576839210+575179956+574284172+574983769+574606039
3885+573467728+574222466+576496063+579201981+580268136+578564502+576104170
3871+574342921+573747416+575048294+575354486+574927220+577181876+579528627
3858+579235945+575914343+570187172+570437296+575806882+580227296+582022853
3844+580781997+577438463+573176421+570671641+572957236+576441714+578354667
3831+579977035+580947073+580277761+579625225+578723046+576993217+577861570
3817+580032244+582128733+584391743+585425928+584407419+581477641+580037056
3804+580546173+579035942+578052222+579875899+581868503+584136669+586905083
3790+588440891+588037172+586744407+585906993+585725760+584896597+584541281
3777+587024851+589909251+589606944+586158905+583817654+584476997+586198301
3763+587893547+588173578+586862593+586245878+586202563+584250593+578463159
3750+574512260+576897650+579663589+580391410+582072081+583530541+582156303
3736+579222950+579717011+583851825+587881034+589676110+588403420+585908231
3723+585549890+587621284+590472202+592921395+593608583+590629303+585496950
3709+584822206+588894524+593514872+595044974+594461878+596809111+601482330
3696+605045050+606097316+604132214+600219266+599323619+601411721+602923259
3682+602624320+599763021+594965495+589822210+587512654+587593989+586189500
3669+586261760+589442555+591441965+591657781+591702815+590841269+587380167
3655+584029345+582464661+578392756+572273933+572769884+576969635+579236907
3642+577945861+574767747+573080373+572940323+572280602+570541491+566484574
3628+560940459+560240345+562018680+561589798+557595893+553505287+552043149
3615+549943703+547650064+547700838+547573988+546619213+546966760+546920971
3601+545101488+543285923+542234275+540924322+539915026+539792542+538304243
3588+534861154+534068980+535607229+536012219+534911378+533148410+531366913
3574+530050669+529261417+527477135+523261605+519701842+519930687+521690286
3561+523496500+524826358+524925569+523505301+521683170+520704916+519940828
3547+518994235+518805748+519230265+519327241+519322841+519272754+518653907
3534+517822544+517106824+516429915+516197048+516196910+515622753+515062827
3520+515538083+516632565+517455368+517603221+517167877+516631189+516761270
3507+517309164+516694889+515552762+516270923+517636567+517113630+515543412
3493+514759076+514473028+514669594+515771810+516768490+516919918+516550370
3480+516080133+515701750+515941458+517654683+519862725+520293635+518849578
3466+517290876+516627752+516931022+518095803+519403076+519583828+518910150
3453+519336110+520856173+521164084+519795312+518980656+519931615+521459448
3439+521660241+520396937+519780427+520887765+522349767+523385326+524228274
3426+524404832+524267017+524987481+525974570+526275640+526799161+527759092
3412+528166695+528840923+530774983+532605295+533734806+535629883+538288051
3399+540085087+540708471+540796957+540765399+541219479+542658035+544978626
3385+547642294+550124695+551866659+552996858+554993931+558086103+560807284
3372+562949494+565379677+568740606+572319379+574293178+575810079+579297960
3358+583725938+587505917+591427115+596135192+600603184+605299642+611498907
3345+616051396+616624798+617105313+619358973+620829121+622685181+627800208
3331+633584273+637624070+641106692+643621200+644884539+646491713+648207241
3318+648588477+648262244+648578233+649592961+650956404+652232050+652856879
3304+652380007+651059465+649834903+649597911+651211203+653194732+652205786
3291+648477303+644442525+640786027+638440445+637946522+638264093+638765097
3277+638241748+635877259+633444429+632119418+630760512+628773684+627315911
3264+625927785+623233281+621144904+621310806+622557575+624248284+625398317
3250+624491670+622520242+621142704+620471192+619813706+619438932+620530389
3237+621516790+620104532+618099896+618021861+619204966+619435220+618431424
3223+617560528+617099744+616707164+616666049+616963751+616770692+616205678
3210+615696974+614907413+614820784+614874618+612744645+610872085+612260554
3196+614629238+616212004+617525807+618007905+617907044+617842759+617230719
3183+616399356+615932522+616135275+617598548+618981793+618805922+618721287
3169+619778435+619967163+618539848+617671220+618965567+621088870+621598194
3156+621201075+621893901+622577101+622328696+622707044+624221126+625592682
3142+626563958+627998355+629115387+629087267+629589371+630923114+630966978
3129+629972326+629899104+630808227+631584519+631555986+631017374+630664877
3115+630616818+630966978+632000338+633625800+635232011+636006790+635855877
3102+635437101+635237511+635443977+636192767+636768025+636849841+637723556
3088+638863758+639036741+639682883+640905589+641060421+640746013+641068121
3075+641496659+641378267+641150694+641462695+642072948+642420908+642523969
3061+642652056+642458722+641624678+640978261+641180601+641846682+642490417
3047+642789700+643264234+644505778+645477948+645385200+645121394+645428308
3034+645963414+646748093+648049315+649140634+650042606+650882976+650754820
3020+650374340+650748701+651371536+651834382+651922798+652004065+652801464
3007+654039364+655344505+656749063+657736977+657709269+657290975+657605521
2993+658523375+659785477+661484504+662149210+661133588+660615946+661932156
2980+663909909+664820819+664734259+665313504+667040033+668779006+669836636
2966+670805093+671326173+670350428+670135093+672492914+674164371+673094641
2953+671495512+670611965+669950698+669907658+671241538+673031251+673965606
2939+674528282+675066825+675004191+674982809+675956285+677211854+677610691
2926+677509556+677573290+677342898+676732714+675966116+674647087+673275187
2912+673083572+674414839+676323358+677411376+677625817+677977214+678454567
2899+678285710+677792956+678055937+679455751+681211981+681834403+681299573
2885+681091732+681467330+681482456+680446346+679092047+679488890+681942414
2872+684133096+684645788+684557303+685121285+686390399+687822939+688681735
2858+688612226+688114659+687865704+687674983+686786348+685730919+685565361
2845+686025870+687159815+689109792+690343636+689801242+688633952+688440893
2831+689442901+690643812+690683070+689469096+688942241+689834244+690778087
2818+691437017+692524279+694243658+696114225+697548278+698427699+698677686
2804+698482289+698232715+698107103+698662079+699798981+700350518+700442923
2791+701581200+703289303+703580266+703468611+704677154+705811099+705724745
2777+704888913+704180962+704858318+707025898+709418852+710499788+709657631
2764+708486353+708911591+710469743+711296156+710751356+709636043+709044834
2750+709710777+711037026+711508397+710970679+710965316+712519275+714511534
2737+715294151+715419763+716270308+717548842+718183708+718121281+718190102
2723+718414444+718307739+718731327+720220589+721335490+721529718+722055748
2710+723161573+723840717+723914352+724091597+724235223+723955604+723724524
2696+723336069+722615880+723016642+724940355+726509439+726923608+727209208
2683+727688899+728169002+728641405+729126734+730155349+731277951+731011326
2669+729760156+729119858+729262384+729610068+730386979+731919624+733391972
2656+733994250+733971355+733761795+733952723+734637436+735000246+735124483
2642+735594686+735891837+735622324+735230019+734833863+735167591+737588183
2629+741016558+742797333+742351126+741012983+740011319+740166357+741360324
2615+742044005+741727741+741346367+741483736+742481688+743791641+744607054
2602+744989046+745666333+747069860+747724940+746910215+746365140+746759715
2588+747352985+748072143+748743174+748669952+748490300+749249885+750116518
2575+750205553+750027139+749829542+749841230+751213749+753697800+755017448
2561+754491143+753620659+753272975+753298895+753650292+754599910+755896663
2548+756542531+756143350+755143679+754648588+755579987+756690762+756615684
2534+756076453+756108079+756926173+757868435+758279029+758258196+758416741
2521+759426450+760834239+761515239+761094195+760349117+760695839+762157050
2507+763368411+764116033+764945196+765338601+764867780+764220606+764031673
2494+764434566+765225984+765698524+765642353+765820148+766239611+766492417
2480+767206280+768349439+768913283+768958179+769121330+769151994+768964986
2467+769676856+771254328+771697579+770639881+770196011+771483138+773166353
2453+773759899+773427959+772858476+772160563+771534841+771891670+773246382
2440+774031474+773902080+773721947+773490799+773528338+774264272+775115023
2426+775838237+776449247+776468704+776176572+776695452+778129298+779225017
2413+779216698+778860832+778990088+779310477+779835270+781037144+782125300
2399+782464872+782529843+782097317+780890700+779970989+780423522+781487614
2386+781939529+782143863+782161258+781314632+779419245+775894065+771625320
2372+768910808+766697370+763186284+759821987+757261826+755123947+754603486
2359+756432800+759715076+762615564+764535221+767172110+770196080+770833765
2345+768465838+765756208+764165191+764716523+768668729+773075392+774690748
2332+774407760+774172074+775431081+778037444+779739016+779970989+780247514
2318+781308100+783071412+784714268+785873171+787887501+790668978+792039984
2305+792518850+794089378+795646912+796054480+796461705+797273611+797714662
2291+797938523+799085394+800801266+801563257+801404712+800976174+800527422
2278+800678129+801318633+801366486+800988687+801880965+804161645+805488580
2264+805115044+805079293+805971571+806339263+806218945+806660684+807208921
2251+807121880+806757351+806826516+807525530+808274526+808302234+807678024
2237+807592014+808349399+809262440+810253173+810615090+809996105+809177186
2224+808414164+808542801+810397417+812694666+813466282+812975110+812903400
2210+813169544+812912270+812604943+812789751+813277624+814047521+815029110
2197+816056626+817013188+817236292+816974549+817018207+817043440+817333372
2183+818031147+817853695+816980118+817291776+818948727+820228291+820393162
2170+819997281+819433299+819171831+819548392+819850974+819903433+820349022
2156+820619359+820373154+820588489+821832852+823653711+824706802+824401263
2143+823751065+823247792+822817054+822956691+823593827+823942474+824152927
2129+824996528+826000187+826167807+826082622+826546155+826862626+826428244
2116+825847486+826011118+827039459+828330918+829366959+829964562+830281170
2102+830442946+830181478+829725369+829949848+830631605+830757973+830399494
2089+830037990+830033796+830590078+830963407+830900154+831066606+831407621
2075+831704154+832165556+832624139+832763777+832632252+832578762+833153539
2062+834249051+834970065+834947996+834600517+834488037+834861298+835761552
2048+836801030+836908766+835967811+834881030+834108451+834428909+836285932
2035+837903349+837598360+836747197+837145552+838386134+839782442+841227426
2021+841942803+841410516+840587541+840552133+841085382+841325125+841077613
2008+840966508+841143548+841325537+841878106+842564812+842658936+843099299
1994+844403065+845533573+846269507+846402819+845836843+845708412+846125469
1981+846118731+845714875+845890402+846964326+847880874+847852754+847422016
1967+847295922+847719167+848702130+850036216+851094396+850970915+849916380
1954+849503105+850336118+851093090+850624950+850125321+850539352+850911650
1940+851696330+853314435+854122903+853580578+853047535+853484805+854623082
1927+855378748+854870800+854010629+854286467+855223091+855986663+856841746
1913+857960704+858732664+858885090+859060135+859382381+859844059+860707392
1900+860997186+859711090+858272705+858604921+859336935+858861026+859304553
1886+861219121+862211642+862304183+862409926+862310096+862294833+862905567
1873+863870243+863395571+860282222+858459233+860596080+863736586+865650605
1859+866492419+867103222+867349152+867457782+868400456+868794411+867072076
1846+864225765+862309546+863527577+866194855+867980168+869581291+870949272
1832+869445435+865560264+864602739+866649795+868016882+868941474+870146167
1819+871243261+872314435+873192137+873123659+872240594+871846157+872334373
1805+872968690+872914787+872149427+871492903+870937516+870223789+869233469
1792+869113632+871914635+874904366+875613142+875690695+876283347+876371351
1778+876118546+875399870+872852359+868809193+867709968+870406054+874291431
1765+877080128+876390946+874362797+874557781+875387219+876616731+877913003
1751+876275028+872152177+870657622+871931824+873193512+873187462+873088526
1738+874559500+875375325+873227820+872183185+874118036+877340496+880679767
1724+882212618+881216592+877962093+872135333+868526824+872908943+878904424
1711+881859090+881343991+877959687+874519486+873585405+870772027+864685930
1697+863612212+867783053+872853803+875384606+874572907+872554246+868933293
1684+864018956+865915924+871244155+874964318+875239262+873254084+871540481
1670+869345193+869298991+871861695+871890090+869511713+869653551+871739383
1657+872269195+867302743+856405370+855225566+856594923+854674303+857231439
1643+862480948+863980110+861920128+856775606+850848535+853038597+859047966
1630+862167640+862169152+861817205+862269738+865171533+869328142+870089583
1616+869205280+873649002+880007843+883623639+884608597+885894349+888206036
1603+890337796+892949522+896752533+899893589+900697245+900563589+901435653
1589+903642973+906775916+909151612+909221878+908147816+907123532+904740342
1576+903269575+907220887+910800794+910425814+909663548+910370812+909909959
1562+906353772+896090440+885706378+894083674+904903906+911887644+916249412
1549+918990325+918385022+912583082+904583035+898959853+902345670+911530815
1535+916909579+918059751+919875177+922258299+921331369+918121560+915440806
1522+913482579+915978868+921497339+926039172+929444652+930832778+928313801
1508+920030078+916543881+928108435+937061882+938931967+936208174+934340907
1495+937223727+940167186+937631364+931752970+931963630+936758268+940667984
1481+942195129+941511241+938519311+933163372+927870068+928293312+932341497
1468+932605716+928086434+925734183+928926116+929954526+922739090+919594458
1454+929002776+935770423+936114945+933906594+933850973+936831559+940533847
1441+943978998+945667781+944069065+944809192+948364280+949506819+950795047
1427+953884332+954843576+953544073+950459119+944234416+941183289+943669403
1414+944421287+942245731+939659926+937658522+935703870+933963384+932548651
1400+929259775+924466581+921073820+919499373+919850976+920121451+917801239
1387+914812334+914894700+917110476+918949141+919408481+919047183+918429093
1373+918051707+918516409+918707818+918264635+917510619+915010068+912209065
1360+912976556+915703924+917229763+917917500+918741094+918342876+917356956
1346+917822552+918710981+918575606+917911931+918208120+919418794+919681156
1333+919551144+920414683+921195650+921754063+923627105+925580863+926151033
1319+927241939+929114362+930331018+932251431+935823294+939885298+942756086
1306+943394321+943577548+945908555+950316731+955549189+961375743+966284236
1292+968186292+968744017+970316539+972425748+974007346+975210457+976941180
1279+978679190+979144374+979408867+981026629+982899808+982895202+981441073
1265+980563233+981057774+982824111+984363769+984899562+986759472+989265662
1252+989147613+988112121+988985080+990377194+991482194+993404257+995066296
1238+994767426+993641937+993757373+994671790+994740406+994692485+996362224
1225+998732763+999561376+1000053030+1001769589+1003476936+1004322462+1003893030
1211+1002357566+1001674435+1003303610+1006113344+1007395797+1006955639
1200+1005845001+1004261685+1004092689+1004936015+1004049375+1003675427
1188+1006413521+1009592391+1010639639+1010243758+1010179405+1010653458
1177+1010619975+1010498901+1010987736+1012062691+1013463880+1013511045
1165+1011495340+1009765305+1009351342+1009490086+1011512666+1015161945
1153+1016143053+1014115591+1014088640+1016113558+1016131090+1015888666
1142+1018656668+1023077563+1026080838+1026631138+1026639870+1025937488
1130+1024176376+1023969910+1025112038+1026236220+1027753671+1030178801
1119+1033883289+1036645721+1034469822+1028751898+1025555427+1026033261
1107+1026917976+1027313995+1027756490+1029014741+1031627154+1033981949
1096+1034111962+1032358413+1032021110+1034716577+1037109186+1037720608
1084+1037796167+1038301297+1041810595+1048010066+1053588146+1056947837
1072+1056660861+1053265350+1050713370+1053191440+1059179426+1059538180
1061+1052639283+1048640876+1051280103+1056862514+1063285983+1066371899
1049+1062379335+1055740806+1053456002+1055583431+1056463264+1055476588
1038+1055698042+1057576240+1060941432+1064597586+1068195713+1072175970
1026+1073741823+1071097165+1066348660+1062180432+1060928987+1064130271
1015+1069256299+1070528439+1066593696+1061551547+1057308791+1054207268
1003+1055163830+1058330325+1057172178+1054028097+1054409264+1055438636
991+1054205686+1053790830+1055413266+1055011542+1052020643+1052036250
980+1054923125+1054727798+1052510784+1052747707+1054865441+1057251038
968+1057758230+1055571055+1054284752+1054510469+1055668478+1059041370
957+1060918124+1058877050+1057471117+1057722753+1056122318+1053329221
945+1052572524+1055225914+1059922991+1063084330+1063879185+1063013995
934+1060041728+1056923979+1056841819+1060986052+1065400554+1065100584
922+1062874083+1062730045+1063144351+1062794123+1063383887+1065337989
910+1065765908+1062718219+1059928079+1061596993+1064563347+1064544165
899+1063400457+1063958113+1064669640+1062746958+1061486850+1063252225
887+1062677105+1058543735+1055450806+1055062144+1056115511+1056245455
876+1053673812+1049892939+1048430354+1047588884+1043407318+1039682616
864+1040006787+1041638918+1041092881+1035837803+1027421250+1021539006
853+1021280975+1024288925+1025448172+1023305205+1020393510+1018029639
841+1015275663+1010764357+1007298648+1008787017+1010825410+1008199040
829+1002811062+995509066+987380726+984142728+987736317+991962022+991454831
816+987751855+982636552+977804375+976663486+977782237+975459068+968326342
802+961146383+958358649+960430319+963978256+962924614+956994655+952764275
789+951359854+949906000+948972745+948282120+945549595+940104002+934640671
775+932861821+933246014+931723750+926923612+919876965+914506382+912627496
762+911174742+908443730+906037851+904644156+902624120+899986543+898776901
748+899049782+899249922+898199787+896162287+893531242+890696412+888551864
735+886249872+885052398+886979205+888148765+887074359+887991733+890239342
721+889267722+885595342+883155087+882933151+883157149+882575566+881998384
708+881289264+879220825+876856817+874139762+870230596+867363315+866443948
694+865633211+864994356+865952225+866672964+864111635+859769874+855966038
681+853359537+854526828+859596272+864958261+868497948+865084492+853427603
667+849756941+858398524+863840816+862906599+858056614+853778313+852443333
654+850788857+845917078+841271153+842027507+843723715+840571865+836205078
640+833360142+831945271+832258991+833274475+831991404+828103483+827320453
627+829324126+827525200+820180646+812081869+811722771+818983447+825679178
613+830463641+831543821+822417392+806788565+798590027+806145173+825354526
600+843681364
##END=
