##TITLE=Sample description
##JCAMP-DX=4.24
##DATA TYPE=INFRARED SPECTRUM
##DATE=25/8/2023
##SAMPLING PROCEDURE=Instrument type and / or accessory
##ORIGIN=Default
##XUNITS=1/CM
##YUNITS=ABSORBANCE
##RESOLUTION=4
##FIRSTX=4397.6552
##LASTX=599.8556
##DELTAX=-1.9287962
##MAXY=1.8052387
##MINY=0.75235629
##XFACTOR=1
##YFACTOR=1.6812596e-009
##NPOINTS=1970
##FIRSTY=0.81605673
##XYDATA=(X++(Y..Y))
4398+485384137+484937224+485416505+487353835+489657424+490365372+489113124
4384+487382126+486379072+486428883+487506032+488411238+487782135+486730334
4371+487104959+488608034+490018826+490792325+490745847+490014181+489218453
4357+488896474+489078097+489537701+489866097+489932180+489832913+489301234
4344+488983191+489289393+488929090+487982796+487567010+488037038+489569218
4330+490798849+490366684+489292406+488556982+487909126+486881609+485817613
4317+485950949+487248471+488706095+489880526+489902719+489120817+489391638
4303+490256215+490193109+490177156+491648181+493353582+493263143+492089741
4290+491927652+492876606+493388503+492187518+489728010+488703897+490070302
4276+490986250+489987167+489084301+489626013+490795020+491703203+491933254
4263+491797329+492223715+492630177+492455432+492357158+492203862+492114664
4249+492839204+494080179+494388862+493195075+491803356+490951294+490981747
4236+492459899+494116943+494873142+495412514+495606155+495136695+495007436
4222+495596831+495991239+495546347+494141476+492681086+493073119+495089189
4209+496327363+496298753+496183781+495866978+494951244+494338343+494947769
4195+496355264+497004681+496502037+496368594+496965683+496382952+493842222
4182+492116011+493255946+495158888+495807773+495829328+496185943+497021060
4168+498120934+499125264+499519601+499100838+498229347+497855502+497791156
4155+496851668+496310558+497590070+499147387+499288452+498349035+498013655
4141+498822324+499186774+498143234+496824299+496437762+496640514+496793845
4128+497127488+497927080+498833562+499213151+499250376+499442244+499567107
4114+499705797+499908585+499667260+499668678+500619546+501085852+500246942
4101+499495671+499473194+499719517+500348371+501198732+501349121+500448347
4087+499823286+500854560+502161158+501806173+500730335+500562185+501216706
4074+502076639+502662986+502407020+501895477+502371993+503175485+502909876
4060+502132937+502024489+502297826+502072633+501379433+500962300+501215359
4047+502130668+503438578+504306452+504446949+504127630+503424928+502957276
4033+503214519+504136883+505077824+504977742+504181695+503507320+503007264
4020+503197111+504580534+506282957+506766067+506195425+506037237+506031068
4006+504955336+503466018+502986843+503636402+504697066+506052410+508139208
3993+509661143+508898988+507450049+507575728+508730128+509061820+508051818
3979+506919398+506603305+506965238+507579344+508038700+508090815+508344938
3966+509263013+509693227+508866691+507853214+507484261+507046672+506704450
3952+508064722+509932779+509981632+509582439+509249576+507659112+506814601
3939+508415311+510176479+510495656+510099618+509632852+509685499+509986170
3925+509658484+509239011+508966737+508251982+508408965+510213385+511209277
3912+510776226+511010460+512008480+511282699+508472708+507719700+509773669
3898+511474390+512283839+511933286+510011200+509792671+512109058+512927406
3885+511956011+511770949+511547032+511796510+512262142+511197613+510528663
3871+511330737+511883404+512497758+512318724+511060767+511186836+512345065
3858+512746279+511129190+506291749+505260865+510117628+514518721+515831948
3844+514703605+512742415+509909806+507835913+510093166+513993033+515922954
3831+516109894+515763383+515518265+515389219+513349395+510114969+511179249
3817+513958254+515666421+517461871+518661544+518502362+517850252+517968733
3804+516857479+513781985+513896319+516597577+518798709+520855053+522279423
3790+522453282+521909513+521210179+521494543+523041011+523687698+522875165
3777+522608031+522987088+522991697+522235533+521876081+522785931+523743854
3763+524001203+523172433+521016078+519009261+517973094+516210650+512074386
3750+510757649+514747211+518339884+519751208+520852890+521481674+520986369
3736+519363288+518005001+519035814+521810955+523912359+523549611+522273786
3723+522949189+525148548+527421577+528743809+528016575+524844544+522510253
3709+524958594+529447149+533513465+536767603+539918894+543501215+546846253
3696+549563252+550952524+549490929+545683167+544814761+547458586+548990306
3682+547310466+543538901+539087004+533031419+528757352+528135765+527221342
3669+528704280+532802539+534800670+534003240+532180420+530236531+527714059
3655+525441988+523983087+520441076+514259493+513125407+516165377+518135714
3642+518237817+517662496+517101675+515738992+513115587+509525183+503932500
3628+498572952+498021632+498914819+498620493+496029634+492101582+489901443
3615+488598887+487640397+487505217+486244566+484237110+483718300+483185168
3601+481006229+478478368+477169963+476614318+475844328+474995775+473670105
3588+471476808+470796016+471570650+471372224+469993942+468568933+467389256
3574+466138425+465164548+464312840+461618460+457873342+457569231+459314339
3561+460246347+460074970+459599872+459718602+459891504+458761105+457007985
3547+455647181+454527134+453609130+453317960+453856375+454730914+455399085
3534+455734146+455191192+453668938+452670812+452917738+452972866+452197310
3520+451510598+451424555+451697077+451724411+451166781+450339889+449960549
3507+449901663+448868261+447495616+448128831+450154863+451408849+451602809
3493+451422747+450832536+449879399+449162268+448955297+449061973+449579188
3480+450602166+451238324+450871427+450345172+450711466+451740435+452216419
3466+451737564+451204573+451416862+451989985+452256516+452586825+453109606
3453+453554994+454084936+454427903+454660222+454938559+454559537+454143858
3439+454760375+455814091+456619569+457135365+457410476+457774891+458749157
3426+460273042+461336826+461554681+461641610+461645226+461795793+462711776
3412+463686255+464234101+464765744+465556758+467123859+469422733+471736780
3399+473404637+474131659+474576445+475094368+475603074+476861067+479419062
3385+482512459+484523176+485051558+485948893+488434211+491781234+495920901
3372+500869308+504908362+507444270+509492390+511405364+514099036+518417490
3358+523357955+527758233+531295636+534616530+538920697+543546487+547396013
3345+551986741+557534151+561964634+565427658+568448767+571209869+574984980
3331+579207606+582430936+584833011+587050841+588588375+588478721+587861991
3318+588529028+589546050+589332698+589503720+592061609+595064141+596109419
3304+596115446+596434305+596497835+595739509+594963244+594004505+591866053
3291+589171354+586871913+585134711+583779757+582003593+579523841+577089007
3277+575155541+573539906+572188248+571576518+571246066+569871010+567764714
3264+566089518+564624555+562387723+560090374+559679410+560597307+560864547
3250+560391577+560043966+560383565+560689519+559588971+557714001+556460157
3237+555969177+556117013+556632668+556850984+556705771+556977726+557916788
3223+558089087+556826486+555750790+555369890+554782869+554113458+554077403
3210+554972327+555741005+555206206+553981965+553047192+553015639+554049218
3196+555260484+555659039+555347803+555060958+554830695+554512864+554314260
3183+554459402+555240914+556025050+555966092+555620361+556366598+558620766
3169+560670268+561009973+560106504+558817456+558059626+558697662+560241188
3156+561698848+562888275+563219294+562584803+562269028+562387829+562729413
3142+564053949+565623107+566195911+566381185+566838698+567313050+567800201
3129+568552501+569535241+570761467+572322790+573466909+573620701+573004752
3115+572055621+572305383+573955585+575078964+575571504+576273638+576443632
3102+575508930+574421925+573927719+574072967+575509143+577834181+579072071
3088+578652882+577762709+577389112+578024205+579613181+580913220+580959946
3075+580401642+580192331+580574047+581058645+581461987+582336207+583110380
3061+582868773+582612558+583047913+583487842+583889836+584061284+583625397
3047+583522904+584506176+586242031+587864544+588230164+587343039+586695360
3034+587196834+588442382+589783191+590304944+589584303+588842604+588920777
3020+589265374+589703317+590408110+591075430+591585448+592214444+593238521
3007+594562277+595385553+595553100+596054893+597168736+598272652+599024242
2993+599862620+601177194+602497015+603502090+604269421+604760082+605021437
2980+605287472+606048705+607424825+608831787+609896422+610450897+610324758
2966+609899471+609339749+608800731+609442206+611055644+611815672+611744129
2953+611997330+612722827+614001169+615453369+615967429+615844338+616144903
2939+616788860+617139201+617229746+617788050+618720022+619396170+619962911
2926+620912610+622039357+622115863+621101854+620263831+619602148+618569420
2912+617771813+617994596+618717753+619293358+619812310+620377491+620714927
2899+620388056+620294178+620993087+621361011+621422344+621885139+622766060
2885+623774963+624262859+623961372+623511552+624063262+625315795+625763771
2872+625755971+626201891+626904912+628160635+629933892+630948184+630871891
2858+630899898+631297603+630771915+628953634+626982340+626009243+626646322
2845+628252102+629524771+630558350+631973183+633106808+633264004+632961808
2831+633139070+633933629+634517671+635001383+636431532+638402684+639566373
2818+639718464+639715698+639673581+639102018+638951700+640361924+642218140
2804+643018725+643383176+644196382+644808503+644677896+644512688+645232655
2791+646651176+647809546+648680257+649883156+650986646+651263530+651144764
2777+651260055+651429376+651379317+651511838+652292570+653254535+653634230
2764+653653020+653925507+654540605+655580282+656861743+657853204+658522191
2750+658858563+658898553+658823039+658538995+658475039+659089145+659962195
2737+660885517+661940083+662439607+662166057+662355798+663551819+664928860
2723+665870617+666207911+666178060+666381060+666938513+667731796+668790616
2710+669783141+670487367+670999938+671103033+671143165+672313803+674337353
2696+675147440+674142152+673066031+673283212+674179661+674882327+675761830
2683+676628427+676925447+677285147+677712207+677794102+678081833+678447772
2669+678422034+678802367+679901036+680774228+681385356+681964932+682005915
2656+682280670+683604604+684679307+684659170+684383209+684371297+684643429
2642+685303695+686061808+686479012+686698816+686987257+687443883+688362738
2629+689467718+690228171+690661257+690535118+690356792+691021241+691778220
2615+692136218+692788116+693822475+694823295+695595661+695847018+695357066
2602+695200579+696383058+697701248+698053787+698332939+699053827+699371977
2588+699080416+698898049+699222226+699894474+700337345+700448382+700946842
2575+701903773+702758317+703550394+703975326+703364198+702655505+703207073
2561+704682601+705900177+706498897+707122504+707926139+708380425+708382694
2548+708332281+708748208+709338987+709257304+708830600+709062671+710017120
2534+710916334+711295320+711393523+711197967+710887334+711734078+713907096
2521+715600869+715809399+715525071+715753243+716029417+715994390+716365931
2507+717329597+718447127+719451067+719959313+719915494+719938112+720206699
2494+720483795+721143635+722314768+723467467+724325556+724549261+724073206
2480+723747683+723949548+724145387+724036052+723893250+724142055+724721063
2467+725288230+725743439+726064992+726504885+727320927+727990552+728024019
2453+728289132+729382908+730194201+730544116+731337043+731826924+731327684
2440+731084835+731716029+732391113+733004936+733729582+733986258+733705120
2426+733328616+733136748+733440787+734129131+734837611+735835950+737017506
2413+737745911+738239053+738620096+738879678+739501016+740188154+740449722
2399+740555441+740881532+741236339+741099989+740816937+741089495+741625323
2386+741891783+741875687+741373965+740145611+738614140+737340123+736050791
2372+733510841+729416021+725325810+722647879+721559207+721208725+720953681
2359+721488728+723625939+726774039+730074442+733358821+735104355+734053475
2345+732109267+731766372+732078140+732086507+732767759+734237331+734908090
2332+734704806+735403289+736788980+738586912+741357444+744004815+745681145
2318+746802220+747757874+748579731+749417329+750831524+753137489+755752739
2305+757467358+758127127+758177824+757722757+757818691+759116815+760867312
2291+762330857+763058694+763257794+763579773+764296265+765241142+765975432
2278+766182615+765888857+765733576+766172192+766520547+766505374+766230831
2264+765626155+766085121+768099738+769551300+769540239+769145441+769018664
2251+769340004+770271054+771379650+772209945+773159855+774071974+774171595
2237+773957108+774101825+774367576+774826117+775344005+775506023+775662368
2224+776111053+776760966+777332316+777675779+778202318+778999287+779777183
2210+780370159+780653566+780742268+780879681+781057156+781290361+781823140
2197+782293876+782306001+782423065+782928757+783380562+783604621+784016223
2183+784925364+786025239+786853973+787343712+787877413+788464433+788607235
2170+788305606+787923288+787856921+788663746+790017389+790408996+789596498
2156+789192412+789955347+791128821+791667839+791617567+792210898+793188746
2143+793367709+793331831+793757118+794392425+794985756+794928464+794247424
2129+794212752+795152382+796322381+797373473+797560094+796878203+796885365
2116+797610791+797915540+797760967+797657943+797971555+798466470+799134392
2102+800480094+801604147+801361723+800659270+800470309+800514199+800789947
2089+801166452+800995004+800927006+802095020+803881253+805022181+805245247
2075+804851655+804370708+804371205+805214900+806841171+808030670+807776689
2062+806908106+806070720+805839855+807189597+808735179+808810976+808660942
2048+809405229+810205956+810166959+809516762+809303197+810308130+811867467
2035+812872046+813500120+813936893+813936610+814019923+814199950+814054312
2021+814281916+814972174+814972741+814874892+816030923+817532544+818324692
2008+818765223+819213341+819364085+818708216+818048093+818737358+820089228
1994+820574925+820078379+819324378+818919370+819551770+821208955+822388952
1981+822508994+822629461+823007242+823437917+823884333+823703172+822737591
1967+822205522+823374954+825421903+826742929+827111138+826775616+826475689
1954+827247771+828548235+829384273+829802966+829983205+830072475+830557109
1940+831308557+831586007+831371733+831252755+831792907+833008711+834318322
1927+834922005+834274574+833536739+834017615+834303716+834263513+835461803
1913+836477372+836049603+835186692+834885773+835393734+836232254+837162099
1900+838248714+838734979+838151787+837744652+838544812+839152679+839039444
1886+839720980+841014992+842050343+842550434+842610420+842778038+843499352
1873+844546687+844107786+841266775+840090678+842383028+844713384+845695060
1859+846322354+846759411+846566337+846563430+847565811+848256281+847315801
1846+845037560+843427526+845126333+847904665+849183361+849472369+849907724
1832+850035920+848988160+848898111+850729793+852156042+853499262+855506292
1819+856757123+856543912+855602084+854141730+852780146+853374186+855401424
1805+856675582+856301560+854999890+854888073+856518244+857963638+857729865
1792+856894820+857929462+859723565+860638519+860699498+860044763+859305865
1778+859912029+860797488+858931417+854359762+853572719+857419515+861066642
1765+862980645+862895843+861615303+860730979+860625615+862122272+863218885
1751+861250357+859052451+860301013+862405395+862965472+862224375+861753780
1738+862421774+861752929+858762238+858961268+862010597+865080135+867353696
1724+868159670+868559360+867526491+860968936+853326751+855819691+862312297
1711+866535171+867811244+866454907+864424550+863530157+861046080+856514274
1697+854863399+857350454+862398234+865452385+864605853+861871979+856894394
1684+851082899+853284421+858024545+860111272+859069185+857218713+856169110
1670+854655648+856099623+859956558+860372698+857565649+857083923+858751248
1657+858490389+852728315+842738899+843835370+847233268+845760009+846385601
1643+850613793+852942872+852159375+847512561+841537489+843797082+850163477
1630+854274747+855817280+856640201+856838025+857692782+859870621+860627884
1616+861438041+866270129+871204816+873816876+875906156+878526157+880192419
1603+881015268+883181905+886736927+889712445+891363675+891884966+891920064
1589+892594439+894061104+895758564+897345483+898311560+898398489+897345696
1576+896137762+897497006+898799881+897975684+898906238+903089619+907407931
1562+908919336+901677763+888313778+892719374+901823614+907362835+909899523
1549+910113656+908093225+903412164+895731833+886828040+892227649+905575965
1535+910479879+910040482+912086368+914469618+914632557+915461717+915664434
1522+911916551+910461302+914368650+921257472+928441328+931103093+927154123
1508+916909451+911741487+922184339+931244477+934148806+933065381+932851178
1495+936785541+940173228+936974360+930491114+932664344+939401572+942828824
1481+943203555+942869027+941424201+937942706+932778288+931176763+934970521
1468+936428890+933340137+932211617+935307035+936370181+930316050+924838587
1454+930576554+937485442+939831467+938685434+939356760+943682446+947864337
1441+950125915+951115816+951103621+952535755+954455430+953342084+953147166
1427+957315302+960445534+959926724+956333201+949686306+947892274+952303754
1414+953326130+950028137+947841577+947811655+946217433+943675285+941809213
1400+936753279+927861682+920235451+917986565+921390914+924433579+921236484
1387+914246835+911681289+913471634+916464949+919791516+921298526+920256438
1373+920207940+921476142+920708244+919300784+919374667+919417281+919504281
1360+920838354+921861722+921713247+921781954+922326644+922532977+922565523
1346+921800389+919460674+916576836+915741153+918563517+922139881+922773699
1333+920904224+920080169+921761108+924122874+926459470+928641351+929514472
1319+929647702+930538053+932095830+934650032+937809193+939979375+942633481
1306+948168519+955058120+958956322+958982911+959369626+962043798+965075543
1292+967925985+971231139+973954236+975136006+976233328+978620903+981299117
1279+982844628+983351384+983016289+982034683+982029224+983841124+986006129
1265+986714539+985858718+984857898+984574562+985208238+986592157+988034147
1252+989420335+991248543+993439854+995120013+996003132+996964387+998588106
1238+999985922+1000051084+999328423+998953124+999554538+1000826215+1000618393
1225+998392196+996933686+996996082+998036538+1001248665+1004580834+1004948333
1211+1004756607+1006220081+1006970466+1005350434+1003791877+1004591611
1200+1006525467+1007580956+1007531322+1007076114+1007281170+1009944069
1188+1013808094+1014966820+1014805724+1016252465+1017222158+1016564587
1177+1016176100+1016141641+1015800447+1015723515+1015533916+1015276603
1165+1016149015+1017069075+1016601812+1017145794+1020192003+1022665941
1153+1024679069+1028542030+1031499964+1032132718+1032067769+1031285477
1142+1030047338+1028973911+1028143688+1027882404+1028682138+1029989338
1130+1030637478+1030504745+1030028690+1029799668+1028320595+1025282468
1119+1025786672+1030214957+1033461331+1034602756+1034395217+1036114658
1107+1040789691+1040649796+1035435461+1032075994+1030135898+1027746975
1096+1026469768+1028620593+1034344237+1041528732+1048454282+1051808077
1084+1048608571+1042212466+1038774578+1039775683+1043908082+1050530940
1072+1057094593+1061593783+1062731379+1058478158+1053028560+1052597672
1061+1056611448+1060642950+1060537870+1056318895+1054370149+1059434450
1049+1068279676+1073741823+1072568846+1068758708+1065705975+1062385860
1038+1060477317+1062254828+1065672437+1068252945+1068711273+1066759265
1026+1064471169+1063764107+1063391006+1061743676+1059979566+1060974643
1015+1064639851+1066469265+1065378679+1064814135+1064987923+1064260085
1003+1063438228+1064760106+1066782238+1064338010+1058725402+1056565360
991+1059108926+1062308574+1062770802+1060154346+1056227499+1054192107
980+1055342466+1057639638+1059571367+1061370079+1063997454+1066474512
968+1066670351+1064406645+1061146091+1061005841+1064555758+1066675739
957+1065265657+1061694610+1057629215+1053829500+1052425444+1056078883
945+1060688471+1062035378+1062501789+1063780131+1065145615+1066411123
934+1066329866+1064081831+1063013367+1065946342+1070255011+1072034437
922+1070177299+1067164769+1067626076+1071260086+1072013520+1068760126
910+1066768766+1067761504+1068432263+1067488024+1065750361+1062856171
899+1060506530+1061297543+1063812960+1063806649+1060952379+1059604763
887+1059124596+1055825469+1052970277+1054970641+1058970024+1060411943
876+1059690487+1057270862+1051964776+1045135656+1040016121+1039368051
864+1041173428+1039937700+1035807711+1033664402+1033923134+1031960490
853+1027852694+1026019523+1024350212+1019555350+1014741343+1011877145
841+1009388814+1006990035+1005751258+1003146502+995476593+986412130+982704024
827+984383474+984786497+979950296+973635803+970665958+971771575+974624428
814+976242474+975553635+974116679+972493457+970992970+970044477+966236325
800+960157590+956530883+955353297+953499209+947074955+939394623+938385223
787+941722497+942838041+941279697+937785014+932771127+927494324+923509265
773+922448813+922806457+920740151+915901681+911289611+908201638+905792224
760+903892189+901802201+897267204+890791544+886672262+886389848+886739763
746+886215281+885993278+885477659+882903249+879791736+879415374+880460722
733+880402439+880687405+882175554+884036449+885881745+886465007+884606665
719+880586507+875674652+872393180+873401162+877008299+877822498+876205728
706+876044987+875334167+871545797+866111232+861168320+858424022+857955696
692+858162100+856464215+852988677+851290579+853137861+857292241+859477029
679+856179603+850999373+849451026+848789981+842550434+835776478+841020026
665+848903216+847590131+841538623+834710851+829781411+829292735+831296432
652+830280084+826094647+825369292+828710820+828203709+820587830+814059204
638+814797181+824516237+850678387+877805907+868472289+837428842+816480672
625+806041862+797483943+788814064+782329896+778628597+780852099+791554533
611+803045286+804240952+794487721+784452430+779093449+778290807+789207940
##END=
