##TITLE=Sample description
##JCAMP-DX=4.24
##DATA TYPE=INFRARED SPECTRUM
##DATE=25/8/2023
##SAMPLING PROCEDURE=Instrument type and / or accessory
##ORIGIN=Default
##XUNITS=1/CM
##YUNITS=ABSORBANCE
##RESOLUTION=4
##FIRSTX=4397.6552
##LASTX=599.8556
##DELTAX=-1.9287962
##MAXY=1.7902086
##MINY=0.30491284
##XFACTOR=1
##YFACTOR=1.6672617e-009
##NPOINTS=1970
##FIRSTY=0.4328841
##XYDATA=(X++(Y..Y))
4398+259637768+258832088+259525370+260736277+260819860+260190303+259886946
4384+259787257+259798035+260013733+260248754+260437139+260322989+259735026
4371+259079299+258740907+258503456+258174234+258257406+258796713+258988154
4357+258708124+258411292+257840436+256923805+256612976+257094279+257307224
4344+256994983+257076100+257607649+257566036+256918174+256567484+256837504
4330+257467634+257954746+257760731+256997236+256238012+255911293+256204211
4317+256506870+256183762+255617267+255183512+254918872+254823098+255018829
4303+255578853+255837809+255530215+255348444+255291334+254726662+254028518
4290+254308673+255285077+255424377+254725071+254554472+254938695+255038277
4276+254847730+254490390+253820917+253100090+252837577+253080177+253358509
4263+253465169+253548037+253630280+253710879+253774389+253681975+253293622
4249+252718869+252389629+252620843+253284917+253691985+253187069+252231865
4236+251615927+251382891+251512252+251830410+251694399+251287671+251459539
4222+251966170+251908631+251341117+250909418+250761931+250715206+250506050
4209+250021333+249751081+250068917+250676113+251029109+250879119+250622559
4195+250543766+250448957+250420196+250691414+251076853+251224393+251004387
4182+250409704+249528805+248717941+248511771+248838168+248947975+248741554
4168+248674094+248691593+248440610+247952068+247613962+247597160+247827497
4155+248077801+248025231+247657131+247375867+247445187+247520387+247399427
4141+247279807+247215600+247277430+247270119+246865750+246383464+246265990
4128+246396477+246413423+246212168+246019654+245864499+245551633+245332164
4114+245507303+245814396+245749509+245050418+244253550+244262380+244934641
4101+245160921+244619612+244087598+243935535+243910224+243881642+243945170
4087+243965351+243583380+243076176+242800901+242525447+242400590+242667106
4074+242886469+242832701+242759377+242618969+242302992+242016992+241782383
4060+241522748+241430316+241549024+241646872+241576284+241364608+241136809
4047+240973556+241010093+241318991+241478579+241219499+240862713+240484478
4033+239871383+239253748+239105796+239387632+239679477+239799901+239749976
4020+239577107+239395747+239230957+239041804+238815560+238520658+238269710
4006+238388115+238606243+238259325+237669146+237449390+237497170+237570279
3993+237547846+237581862+237802100+237938487+237799723+237488233+237342623
3979+237350685+237130715+236861803+236827984+236834919+236681784+236364091
3966+235921613+235397875+235079754+235117810+235305783+235481941+235203699
3952+234094126+232813327+232491577+232820549+232753982+232779329+233494562
3939+234017692+233589013+232063685+230275791+230234338+231601115+231912248
3925+231269266+231327288+231374031+230397216+229950447+231442618+233382235
3912+234183608+233421596+230682233+226304642+222956491+222727262+224674030
3898+227901274+230155224+229558985+227765942+227865238+228170150+226787553
3885+225442781+224608446+224678445+226983070+228274719+226849669+224495047
3871+222652062+222668525+223504110+223242867+224084083+226485823+227091554
3858+224600242+219262888+214901296+219234217+225344700+227975241+227304356
3844+224422832+220683451+217103533+215969507+218587606+221725725+223985645
3831+225526257+225740650+224885134+223017034+219440923+217338590+219525508
3817+221817102+224212122+226982230+227697964+225684933+222808129+221485164
3804+220136994+218806879+220191317+222400525+224850045+227360001+228439634
3790+228219270+227220647+226012564+225732910+225791325+225257738+225769196
3777+227456383+227908960+226256433+223736593+222635957+223139013+224271878
3763+224818621+223279547+220982304+220387513+219752360+216380972+211620963
3750+211334051+213605733+214943463+216984075+219216985+219370550+216534286
3736+212209301+212442678+217859771+222273863+223244547+222133008+221586050
3723+222666166+224778384+226930375+227839319+226729138+224251107+225858249
3709+235567009+248161724+260447166+273742940+289987537+305702389+317385497
3696+325057131+328554448+328385172+327761227+329823360+332620799+333702130
3682+331150794+323346349+311462004+299480312+294715209+294356207+291405061
3669+288699052+287948534+285656814+281256773+275773345+269743549+263468437
3655+258480719+253624382+245485763+237531133+238496366+242445170+243853221
3642+243107654+241392707+239171576+236666161+233817438+229799386+224369422
3628+222349259+224875749+225784980+223439635+219064547+216206690+215894235
3615+215523525+215089288+214723332+213890607+214105125+215292938+215246963
3601+213849995+212418600+211149367+210338771+210505670+210195324+207858809
3588+205415188+206170801+208003561+208659431+208362527+207616174+206655160
3574+205628508+204076117+200859741+195896601+193168838+195205035+197888825
3561+198973963+199244627+199239175+198515129+197399621+196714258+195933048
3547+194857688+194741411+195711505+196623202+196819542+196463364+196470282
3534+196911902+196665262+195490427+194386234+194014148+194226271+194773353
3520+195324905+195668838+195976645+196050451+195499704+194752082+194488390
3507+194362496+193795626+193572188+194286152+194935158+195091761+195268044
3493+195567468+195626653+195298610+194872524+194696830+194919857+195550630
3480+196272602+196672001+196715223+196545661+196492858+196953515+197591188
3466+197606257+197091528+196948528+197414619+198063392+198724446+199198884
3453+199248934+198934048+198444577+198271618+198650622+199124918+199728324
3439+200583179+201051808+200967367+200913384+201146939+201437408+201656430
3426+201971692+202308779+202542084+203171731+204440696+205634640+206261087
3412+206662846+207269631+208070432+208947791+210126290+211596349+212717113
3399+213255240+213775510+214685223+215957852+217540685+219238310+220856642
3385+222671188+224969003+227372227+229471987+231549457+233933983+236506233
3372+239087242+241728722+244623044+247793267+251161598+254636447+258159487
3358+262147491+266785235+271414219+275736916+280124999+284674636+289210242
3345+293737696+298109567+302091315+306209146+310911382+315485348+319402192
3331+322893682+325915346+328185436+329618691+330734127+332225153+334008651
3318+335693156+337039144+338155618+339298403+340424028+341512295+342203772
3304+342150862+341714425+341140709+340210279+338592054+336271270+333565207
3291+330448699+326801839+323083515+319690122+316407055+312905769+309391577
3277+306565288+304334629+301956394+299796360+298501387+297522784+295991664
3264+293917912+291927816+290428120+289440025+288525539+287253464+286055302
3250+285300708+284344199+282891782+281700198+281106802+280618563+279727959
3237+278220952+276624499+275848670+275768554+275330795+274167793+272754416
3223+271340360+270085713+269276314+268736668+268236739+267978910+268027369
3210+268194125+268172443+267654157+266782142+265860775+265050751+264493837
3196+264006850+263467579+263235990+263249092+262994552+262373700+261569020
3183+260879366+260563676+260541028+260507066+260217705+259991336+260041511
3169+259879814+259474855+259131172+258770598+258486456+258344296+258083411
3156+257739013+257631083+257769400+257833858+257576493+257204961+257149942
3142+257253653+256988209+256470566+256090686+255899603+256157950+256694969
3129+256489299+255485635+254712880+254676022+255031109+255130888+254814303
3115+254440412+254147190+253761519+253384821+253288260+253175665+252747380
3102+252378797+252388843+252586630+252597391+252382068+252099071+251674289
3088+251268956+251067075+250726806+250141436+249716475+249557477+249270458
3075+248637968+247900731+247304296+246781523+246092745+245262791+244651733
3061+244362426+244109352+243614643+242797451+241911637+241412781+241396139
3047+241401681+240999064+240303118+239747384+239510969+239260469+238678494
3034+237893656+237130697+236520515+236109909+235889367+235915339+236120079
3020+236244025+236124870+235785406+235224488+234479010+233931552+233958830
3007+234315418+234396338+234067921+233761668+233731263+233883755+234184627
2993+234586296+234929514+235173455+235374602+235684233+236206577+236692652
2980+236960402+237092462+237071888+236861303+236433714+235791251+235144050
2966+234669522+234298044+233837887+233193207+232523681+232051190+231771125
2953+231492757+231141334+230975973+231177960+231443422+231408673+231007915
2939+230388546+229767622+229250176+228910140+228706990+228326038+227672098
2926+226995869+226440653+225893320+225101690+224149273+223463552+223161965
2912+223077738+223020538+222899238+222811775+222658479+222332761+222099081
2899+222054072+222029029+221900203+221578614+221178607+220874267+220664772
2885+220566102+220532979+220401437+220179519+219929519+219559345+219090752
2872+218683023+218382884+218165506+218041328+217929788+217578919+217072788
2858+216809811+216614026+216097206+215382045+214634601+214012729+213778173
2845+213815103+213905318+214041812+214078652+214033428+214193267+214442534
2831+214469740+214383546+214367655+214278995+214069268+213983897+214064334
2818+214125395+214196842+214377737+214476264+214354231+214224477+214159751
2804+213981913+213814460+213907857+214032481+213904264+213720777+213690407
2791+213762533+213812958+213698254+213470294+213380848+213459194+213479178
2777+213354321+213204457+213082478+212911056+212707657+212598119+212567606
2764+212491709+212389088+212386407+212464557+212502881+212467881+212419529
2750+212386210+212248680+212020166+211849316+211691105+211585803+211637694
2737+211741941+211822200+211832246+211751469+211719741+211740422+211678574
2723+211670102+211890804+212219848+212448952+212398258+212083944+211825221
2710+211784609+211800875+211793600+211852927+212001629+212132296+212166044
2696+212150975+212079797+211906552+211753417+211685510+211592220+211413184
2683+211190336+211013999+210915025+210823827+210748949+210721367+210633655
2669+210466720+210327956+210232665+210166724+210097565+209976212+209841327
2656+209704833+209545299+209449864+209453189+209427181+209320807+209183205
2642+209055720+209007440+208998806+208903407+208762874+208700311+208685850
2629+208618015+208532501+208535522+208540384+208398188+208238117+208180309
2615+208109578+208045657+208121679+208300930+208444609+208481271+208449525
2602+208385568+208303093+208272759+208328118+208404283+208445360+208428325
2588+208350801+208257369+208159610+208040831+207917189+207808724+207746751
2575+207718902+207667475+207570253+207416796+207250469+207132726+207013732
2561+206855950+206689909+206526710+206362868+206168387+205994750+205916117
2548+205857076+205791421+205761820+205757816+205773046+205779159+205786792
2534+205826349+205844170+205806973+205751953+205698739+205620697+205540688
2521+205529266+205584983+205646938+205654695+205592794+205538025+205589898
2507+205749737+205920640+206009443+206036559+206149744+206398546+206566982
2494+206508299+206407662+206384210+206303290+206154356+206072291+206105861
2480+206247699+206395329+206376917+206225158+206102232+206033860+205990281
2467+205974479+206002883+206062120+206021848+205808385+205615567+205627490
2453+205698561+205645561+205514502+205401156+205387625+205443574+205430632
2440+205409772+205490692+205547928+205450759+205264091+205147313+205161220
2426+205217544+205288204+205412739+205522867+205532287+205479216+205524744
2413+205740620+205960590+206068520+206152961+206246537+206277622+206269238
2399+206330800+206546962+206830567+206940695+206894167+206897956+206868444
2386+206516485+205661774+204302540+202532574+200406771+197986101+195468280
2372+192933550+190299327+187827624+185819527+184248653+183223700+182882413
2359+183280972+184661369+187080395+190414478+193871577+195528912+194425899
2345+191932835+190366037+190143296+190440111+191008465+191778752+192336918
2332+192664012+193355328+194390470+195283274+196102253+197195900+198657164
2318+200247022+201534416+202380315+203061782+203828191+204745536+205746287
2305+206659986+207355252+207858041+208275655+208637356+209005098+209447987
2291+209839164+210082372+210269487+210460893+210604072+210671621+210683758
2278+210601122+210468811+210445502+210505437+210528854+210559277+210662487
2264+210816641+210986651+211112133+211151905+211175625+211294726+211458801
2251+211492084+211424696+211401118+211428056+211507368+211604733+211605698
2237+211560832+211621785+211736758+211810027+211908983+211991369+211953689
2224+211902763+211911968+211908626+211874538+211818411+211785878+211850371
2210+211930594+211934777+211910002+211923122+212014714+212126880+212173051
2197+212177484+212165096+212142645+212157678+212201740+212218328+212243764
2183+212329529+212405176+212421138+212434473+212496606+212594579+212657750
2170+212671674+212694107+212734255+212795906+212889303+213001021+213102426
2156+213167170+213245873+213338108+213356430+213338913+213374895+213411217
2143+213419958+213510137+213622589+213612651+213590307+213645004+213667259
2129+213671656+213791347+213968846+214054074+214022453+213948486+213979875
2116+214148776+214293635+214342720+214380311+214446323+214508511+214626521
2102+214853355+215068624+215229017+215401493+215520111+215582835+215754756
2089+216095079+216527994+216959371+217320268+217587714+217774865+217951649
2075+218189851+218516642+218912502+219223939+219347151+219529637+219953043
2062+220315369+220479319+220737273+221164897+221549192+221809917+222050908
2048+222337462+222642374+222949073+223291219+223756398+224307932+224794954
2035+225217538+225591233+225836460+225952737+225985305+225946159+225893660
2021+225781012+225426961+225122371+225384544+225920312+226189670+226222328
2008+226240757+226367562+226619510+226875856+227048296+227213890+227236324
1994+226815832+226416808+226766050+227576163+228341214+228979316+229537570
1981+230079523+230609821+231186576+231866524+232580398+233055212+233155151
1967+233578378+234887991+236338709+237334365+238031329+238491968+238852329
1954+239309303+239757609+240011255+239925330+239339870+238483245+238509647
1940+239738053+240817329+241252371+241495292+241888846+242425561+242837688
1927+242797362+242221000+241984549+242492736+243088152+244190200+245722035
1913+246443668+246337776+246481527+247385502+248368574+248870558+249014201
1900+248930207+248538172+248070186+247826604+247256301+246505211+246821903
1886+247721695+248126189+248136681+248011521+247959898+248008696+247794911
1873+246612837+244136129+242316631+243732171+246336560+247619325+247842065
1859+247964456+248282363+248567594+248685659+248520208+247714938+246091333
1846+244316916+244574799+247002065+248573511+248859672+249104113+249041944
1832+247452194+245505158+245670180+246816987+248036063+249800327+251103701
1819+251545160+251746647+251618180+250688018+249919750+250565574+251748077
1805+252029412+251053883+249907684+250066200+250729488+250151303+248591565
1792+248986191+252077871+254226019+254579962+254318468+253859974+253735260
1778+254098999+253292121+250592440+248547217+250316593+253687194+256175414
1765+256888716+256337880+256323044+256579318+256619090+256773333+255499292
1751+252442057+250714705+252085075+254042460+254846121+254743107+255132943
1738+255472265+253615158+251849500+254416870+258064624+260952708+262449186
1724+262530481+261745965+259008049+254115551+252552703+257228252+261816553
1711+263711287+262928022+260594778+258958929+257937282+255979307+254726859
1697+256384659+261417887+266179129+267076347+265645238+263145257+259159933
1684+258008604+262915330+266945323+268330744+268153156+268102569+267732324
1670+267661575+271512532+275691674+276707833+277544240+280523558+282384043
1657+280535498+275399292+274437223+279733357+280248426+280186274+285895517
1643+291253767+292693152+290880233+287089604+287395982+294201481+298715887
1630+300093961+301013023+302154378+303589420+306856757+309666888+310145938
1616+312050735+316534432+319243211+319905695+320345242+321396578+322257475
1603+322689335+323275993+323798837+323722046+323552591+324018271+324790972
1589+325509476+326249537+326960927+327559918+327713357+326385137+323676822
1576+324092380+327818141+328775062+328475476+331046046+334376876+335761439
1562+333986486+328320786+327578329+337137600+344499888+349796970+353964564
1549+357694329+359423057+357775195+354389525+354967567+368720852+381286556
1535+386815655+393091250+402125031+408501619+412891472+417968762+422678399
1522+429506725+440368297+450958920+462776055+474679669+482824847+486346797
1508+488867996+505211083+527361798+539941624+548555986+557495744+570367433
1495+584972784+594974246+601934668+612733321+628279791+642149013+652976980
1481+662764693+671909406+679402611+685275840+693224429+708709623+725144910
1468+736920182+747095997+759158341+769656407+775082689+779377983+792816703
1454+809150317+819464485+825319982+830354085+838016817+846295164+852660027
1441+857647012+860721729+862857006+867471405+872855645+876627701+880586230
1427+884068926+882686830+878316175+874107825+866738101+859095818+856882534
1414+855059211+850749188+845874887+841321049+836321122+831738755+828203006
1400+823343935+816342721+809761285+806281664+806662902+806965204+803798896
1387+799262861+797861031+799578534+801967708+803245915+802896637+801500598
1373+800708092+801048361+801299326+801722463+802269152+801510966+800907720
1360+802157898+803390702+804417872+806301469+808226536+809707517+811460841
1346+813597620+815628936+816008816+814396347+814772080+819326561+824996801
1333+829373820+832193996+833507667+833499015+833833850+835032977+835199000
1319+834395125+835067226+837518962+840167110+842850435+845954395+849101541
1306+851981420+854433157+856565646+858961612+862641791+867770490+872736955
1292+876254614+878493638+880301016+881897326+882186830+880972402+879383027
1279+877889177+877279281+878195268+878658017+876734594+873641430+871651441
1265+870833695+869166600+866559350+865331194+865808886+866154803+865664456
1252+865115478+865251472+865977698+866365299+865720297+864163813+862913348
1238+863405769+864725231+865030751+864021385+861958251+859876598+858654520
1225+857190127+854994361+853168035+851650089+849264490+845501371+841502516
1211+838743472+836657673+833774219+830115919+827035983+824849797+822286020
1198+819205726+817008387+816244337+815725533+814471637+813678201+814532626
1184+815828279+816186923+815898849+815807043+816427163+817569376+819071092
1171+821136228+823318338+825217164+827070160+829332421+832469343+836010740
1157+839000515+841664321+844507735+846851578+848371955+850238106+852928653
1144+855515024+858232812+862008658+866163097+869483273+871430220+872871875
1130+875262694+878074004+880228086+882700844+886186042+889323178+891843698
1117+894209635+896084223+898283350+900924347+903178458+904843336+905578786
1103+906516580+909829035+915573349+922285058+928607092+932949934+936526581
1090+941328667+945140978+948256950+952916537+956998403+959700890+963704822
1076+969762520+974970727+977337664+979307705+983997107+991168777+998051514
1063+1002870260+1006344590+1009065024+1010949337+1014049793+1018453338
1051+1020415514+1018711882+1014689004+1012640313+1017393993+1025122720
1040+1028856524+1029321417+1028478717+1026572169+1027069094+1029969136
1028+1031398779+1032035058+1034258138+1038326276+1042260066+1044411002
1016+1046359306+1047946107+1046005167+1040694644+1037260139+1039261354
1005+1043766357+1045553143+1043672049+1040598190+1037998305+1038408644
993+1043078241+1047179055+1046996229+1044781300+1042555647+1040723601
982+1040073737+1040414506+1040645738+1040940389+1041282660+1041033840
970+1042890124+1048218022+1052204936+1052791308+1052988576+1054839927
959+1058451609+1061067510+1060874317+1059505019+1058046347+1058117704
947+1061310753+1064195208+1063559787+1062732317+1063276933+1062140082
935+1059873388+1059515172+1060010525+1059790376+1060631574+1061567939
924+1061486286+1063545201+1067445743+1070271568+1071528611+1071343497
912+1071308176+1072646442+1073330269+1073289013+1073741823+1072429440
901+1070404344+1070345785+1070198924+1069026180+1067646015+1066437521
889+1066537335+1067734103+1067643941+1064542841+1060171829+1057308967
878+1055525684+1053961120+1053967126+1052127501+1043186349+1032649673
866+1028638020+1029541780+1028157468+1021539209+1014472215+1011126585
854+1009102562+1005753929+1000700663+993649256+986835373+981790973+976547017
841+969930331+963441272+959198603+956449783+951593500+943764173+937524864
827+936009063+936034374+934258242+931614885+930509137+931749305+933340253
814+932524723+929285127+926187030+924466811+922116246+917955373+916014861
800+918639914+919630619+914756890+909277841+907556835+907316237+905160654
787+900851346+895635417+890750748+888082724+887418131+885815028+883717432
773+882449164+879143716+873010514+867656590+866494071+867644078+864659809
760+858232741+855254335+855448028+854387611+852620559+851523248+850228596
746+849099897+849354008+850911493+851870666+851835131+852968621+853787082
733+851262773+849229884+851641437+853839563+851996936+849919430+850571582
719+851845641+851196350+851573441+856039191+859336201+855695347+847577661
706+840372672+836123710+833879252+833307681+834388118+835258488+833448393
692+829133937+825767858+824892054+823755560+822220168+823762281+826912288
679+827396700+825906282+823987221+820572879+814059081+804744127+801108850
665+806544498+812198150+816786737+820841147+821754989+819253989+816132583
652+814161684+813596691+814030910+814097906+813415152+811962700+808640522
638+804492947+800951192+798415514+798776447+802418945+806211951+804755066
625+794202302+780216464+772096633+771127878+773897719+774502180+769951631
611+767976800+771152903+775199306+778827361+777298190+771045796+767758582
##END=
