##TITLE=Sample description
##JCAMP-DX=4.24
##DATA TYPE=INFRARED SPECTRUM
##DATE=25/8/2023
##SAMPLING PROCEDURE=Instrument type and / or accessory
##ORIGIN=Default
##XUNITS=1/CM
##YUNITS=ABSORBANCE
##RESOLUTION=4
##FIRSTX=4397.6552
##LASTX=599.8556
##DELTAX=-1.9287962
##MAXY=1.8198925
##MINY=0.65910184
##XFACTOR=1
##YFACTOR=1.694907e-009
##NPOINTS=1970
##FIRSTY=0.74510401
##XYDATA=(X++(Y..Y))
4398+439613511+439209584+437958170+436926513+436242376+436516326+437999807
4384+438990248+438828234+438464397+438367583+438857352+439576691+439151524
4371+437878059+437146447+436914310+437028673+437679999+438324574+438813358
4357+439723830+440718667+441021700+440855220+440645519+440516914+440472885
4344+440004075+438690309+437077801+436107651+436081593+436724479+437756769
4330+438905707+439692707+439714827+439305027+439200265+439699318+440600576
4317+441062318+440119352+438251462+437379850+438256209+438938940+438392411
4303+438396701+439487790+440557356+441052717+440487936+439300842+438860341
4290+439134714+439157783+438982511+439108585+439659123+440377759+440507243
4276+440122587+440257242+440632754+440073283+439233111+439294864+439689612
4263+440147767+440583309+440189440+439826201+440728689+441867710+441805992
4249+441184312+441163915+441362080+441235796+441022333+440856204+440603565
4236+440667569+441368164+441757814+441462025+441338202+441320830+441088236
4222+441235937+441704360+441737347+441401081+441575790+442415470+442728807
4209+442240937+441757919+441610359+442098792+442865009+443451171+444029280
4195+444132530+443868813+444049571+444078760+443587407+443496958+443427820
4182+442808355+442806843+443688372+444358934+444701847+445099690+445068181
4168+444581224+444228289+443493758+442381851+442037988+442333777+442584201
4155+443061135+443873596+444611714+445024925+444814029+444341034+444566208
4141+445008115+444715597+444037438+443429965+443439425+444374548+444815752
4128+444241864+444257056+445234344+446191377+446450733+445927343+445421081
4114+445392912+445522080+445776091+445791775+445127366+444478291+444524219
4101+444963418+445215354+445408631+446024263+446559152+446764843+447086656
4087+446849666+445603386+444457753+444287756+445117520+446655826+447805081
4074+447571432+446773705+446630576+447009148+447323821+447712064+448386144
4060+448803047+448526882+447886879+447459706+447421550+447538445+447644931
4047+447528036+447177949+447231579+448083110+449232857+449723260+448954195
4033+447631251+446867812+446531124+446494199+447482811+449156229+450160560
4020+450309035+450084248+449246643+448384174+448393212+448379884+448016328
4006+448164662+448553257+448851402+449288913+449672584+450009483+450408522
3993+450525276+450573561+450988601+451314949+451205018+450804009+450361856
3979+450419037+450879337+451168268+451381169+451396959+451073740+450989585
3966+450910038+450283469+449667626+449618357+450339349+451482907+451719474
3952+450734766+449683134+449588360+450190945+450603699+451576767+453433404
3939+454029132+452876044+451543183+450628984+450362911+451062592+451708186
3925+451485474+451215111+451340023+450924210+450196853+450705120+452012907
3912+453035983+453655940+453198946+451121707+448677959+447410051+447416346
3898+448906368+450979844+451869707+451371814+451479073+451994093+450726291
3885+449443859+450759875+452887614+454475505+454831605+453500643+451658776
3871+449889986+449169979+450672380+452222889+452968216+453897607+454230919
3858+452732704+448783108+444102568+446212090+451961458+455637315+456239407
3844+454367262+451266208+448202502+447241285+449090220+451159582+453393630
3831+456351027+457848364+457009563+455303721+452500110+449719180+450814876
3817+452854029+454402956+457174566+459759299+460120533+458218320+456431067
3804+454514857+452053771+452893944+455549995+457527360+459680665+462330000
3790+464676793+465126051+463094669+460740983+459558249+458678619+459145706
3777+461540749+463171544+462679172+460909819+459610578+459405695+459924267
3763+460788775+460803861+460107662+460461617+461184543+460323798+458349633
3750+459355969+462452099+465293445+469935689+475688890+479448831+480583491
3736+480868484+483965247+490162043+496606204+500331752+499109948+494361957
3723+489789731+485566537+481251275+477975724+476461823+476689705+479766317
3709+485907621+492368591+497318756+500619417+504794890+511883344+519942404
3696+527144377+531699230+531131812+526064506+522536632+521341414+518971797
3682+514845382+509316335+502288474+493384388+487365746+486080290+483961484
3669+482340676+483565856+484399769+483382179+481681648+480196655+478158521
3655+476312540+474776344+470283278+463886312+464829805+470429256+474741669
3642+476922580+477554811+477650043+477855136+477853730+476992984+473768495
3628+469145242+467531186+466333753+462290437+455016689+448164768+444420195
3615+440902062+438126021+438244358+439811360+441696131+443577842+444148003
3601+442626823+440258015+438495450+437077344+435639826+433951287+430999200
3588+427450507+425994245+425386772+423550532+420813597+418357012+416687604
3574+415463690+413842319+410970870+406947952+404269815+404525584+405465737
3561+405959691+405997636+405614035+404800097+403029338+400958956+399645331
3547+398517458+397820450+398260845+398646556+398084589+397232213+396844041
3534+397023955+396999162+395486985+393137905+391991183+392056628+392495195
3520+392924583+392869160+392476697+392099567+391675173+391303669+391225529
3507+391246207+390586300+389364882+388871983+389260437+389953084+390816748
3493+391373581+390964098+390213917+390222955+390745535+391108317+391457208
3480+391971384+392094819+391766220+391716494+392113106+392583604+392605584
3466+392146761+392113212+392585644+392358114+391702919+392309513+393717983
3453+394345045+394401347+394289692+394164181+394616182+395189543+395462755
3439+396287489+397782118+398816201+398703702+398008417+397894265+398287326
3426+397907523+397013545+397246807+398585330+399586708+400180079+401342522
3412+403136456+404696073+405617411+406316530+407110176+408295477+409776461
3399+410687460+411294195+412266630+413290761+414954508+417786394+420474377
3385+421710880+421908835+422870931+425706264+429345300+432324676+434753233
3372+437188823+439713315+442624502+446176114+450121736+454009895+457840311
3358+462420062+467596245+471649794+473878849+475992521+480287667+486351814
3345+491732035+495806122+499509057+502948803+505992605+509695364+513865597
3331+516193014+516958773+518671015+521371271+523638095+525383921+526714145
3318+527630419+529237757+531798295+533921709+534604932+533953183+533083963
3304+533129785+533817052+533783468+532566692+530826950+528223473+524819844
3291+522599440+521814374+520887234+519637999+518071806+515913718+513724402
3277+511950653+510781494+509895499+508616056+507295222+506021758+504183408
3264+502815661+502639053+501657826+499027974+496479392+495262054+495397342
3250+495932371+495671186+494603554+493968686+494416747+494779635+494365685
3237+493996784+493543272+492416242+491011852+489331612+487659742+487021990
3223+487061447+486876223+486809652+486932209+486449437+485626848+485164614
3210+484987971+484987725+484823390+484908283+485964486+486778705+486419018
3196+485773002+485330039+484764063+484504250+485122590+485489029+485023947
3183+485117948+485931077+486532748+487115886+487821510+488497769+489372792
3169+489670586+488794754+488226914+488906831+489684723+489631762+489528617
3156+490319310+491302647+491511679+491425133+491863313+492810182+493619654
3142+494265389+495308018+496038470+495686027+495346807+496119635+497298183
3129+497664939+497697680+498408051+499189390+499270414+499125808+499399125
3115+499876270+500397162+501193482+501451290+501102821+501572546+502300923
3102+502154312+502131207+502701826+503384134+504435941+505547462+505899377
3088+505970485+506628282+507730342+508412827+508036365+507409374+507423335
3075+507341220+506737862+506384891+506749010+507359226+507505098+507228651
3061+506956213+506967185+507498874+508621437+509765592+509966008+509498007
3047+509447859+509785075+509818132+509729300+510510181+511814874+512021655
3034+511150254+510643745+510967316+511413338+511590860+512087734+513176361
3020+513942964+514131810+514520686+514638284+514032218+513801066+514508518
3007+516154752+518334503+519469972+519177594+518971657+519470605+520316510
2993+521598942+522939610+523864675+524960406+526422928+527773478+528828696
2980+529611125+530270926+531013546+531871196+532276530+532139415+532590711
2966+533671637+534266274+534397271+534744368+535121287+535088195+535079228
2953+535339850+535367948+535211912+535262236+535470846+535751092+536204710
2939+536881391+537791124+538880701+539758783+540127825+540122972+539842621
2926+539483110+539374514+539342055+538701771+537282259+535988996+535726545
2912+536459494+537470472+538276357+539088642+539813960+540014763+540127051
2899+540821176+541758163+542400697+542860329+543101996+542699335+541831873
2885+541509251+542226410+543403306+544642307+545927481+546848151+547088341
2872+547000811+546976264+547004433+547052330+547149672+547535629+548358148
2858+548851188+548608431+548534756+548853826+548740764+548038692+547505315
2845+547988122+549149790+549837901+550073907+550615829+551531434+552199219
2831+552334752+552562915+553244063+554157101+555115541+555979240+556520107
2818+556582388+556484202+556341600+556368713+557405997+559007427+559994633
2804+560536450+560951841+561056990+561137628+561491899+561945306+562558653
2791+563768676+565334623+566128622+566000157+566016650+566386008+566810051
2777+567499076+568118014+568155889+568285795+569070615+569677280+569642535
2764+569710442+570250465+571001560+571929826+572872932+573366746+573698405
2750+574290545+574709805+574915426+575470923+576433722+577141984+577168148
2737+577124963+577387168+577637662+578040499+578801264+579694574+580724402
2723+581860153+582892829+583804707+584126906+583614876+583365332+584182189
2710+585381802+585992265+585980308+585805212+585751512+586102337+586853889
2696+587709676+588376687+588595847+588531457+588628236+589152188+590204452
2683+591471938+592335778+592820941+593264536+593616135+593756240+593443184
2669+593025542+593320100+594076751+594658130+594899305+595033432+595757729
2656+596853460+597279753+597340311+597752467+598188466+598438644+598684461
2642+599115466+599587899+599809661+600424941+601478683+601695311+601314946
2629+601789488+602875583+603292944+603114155+603269452+603876855+604651934
2615+605624721+606534348+606973864+607112281+607276862+607636831+608221094
2602+608729959+608929989+609123758+609802339+610913613+611980015+612869386
2588+613676537+614247437+614387260+614074415+613672458+613875300+614707279
2575+615459992+615896343+616385655+616931868+617098207+617069300+617489826
2561+618343960+619039139+619120094+618772504+618622623+618975276+619726090
2548+620591126+621007713+620779128+620699440+621320980+622193260+623046550
2534+623758469+623719715+623367483+623985788+625316504+626165714+626164518
2521+625890779+626043685+626598337+627156225+627394798+627610582+628438411
2507+629321522+629670871+630378077+631630863+632186993+632136985+632510106
2494+632950677+632985282+633129958+633550062+633516161+633088321+633405245
2480+634254174+634654725+634775418+634971368+635332392+636142919+637486084
2467+638888329+639657429+639637525+639495099+639615722+639500374+639136748
2453+639182676+639746613+640500521+641203578+641594001+641807253+642410647
2440+643140712+643431753+643684604+644103301+644241014+644173213+644302627
2426+644533462+644844690+645431766+646137777+647087424+648286757+648719450
2413+647925381+647216206+647720499+648636878+649101996+649529063+650049815
2399+650641744+651708216+653019309+654575163+658091010+666044992+680387043
2386+702124345+730708222+763588299+797628323+831465785+865469023+898997931
2372+928765807+953293814+974185069+988138878+993783660+999088799+1004867145
2359+1002220835+988356209+969951114+949509432+928514575+918087374+925949359
2345+944580508+954457065+952501222+950555648+951038278+951737467+952229874
2332+951362588+947776758+942993355+938460551+932974653+924898713+914556757
2318+902998026+891530659+883454507+879320777+873313777+860628016+842447356
2305+823638122+809061789+798993572+790103729+780310940+769373960+757220697
2291+744468190+732739392+722740806+714002039+706640972+701582422+699162165
2278+698511999+698387087+697715328+696558970+695954943+695671990+694990877
2264+694258632+693697649+692982636+691951331+690747005+689721397+689315993
2251+689427331+689483739+689360303+689007157+688177007+687253946+687022688
2237+687530498+687857058+687430905+687001096+687275749+688054767+688977898
2224+689458630+689163368+688707183+688670609+689034798+689536560+689970590
2210+690381269+690850606+691289419+691719581+692159659+692519980+693138284
2197+694098200+694663122+694653205+694886713+695848387+696974150+697490401
2183+697642603+698277436+699181437+699417477+699110962+699047310+699193042
2170+699240798+699518547+700086774+700712112+701417771+701948580+702248273
2156+702456461+702345333+702116467+702449287+703346887+704261297+705133366
2143+705848239+706229800+706477657+706279597+705642302+705382629+705855554
2129+706922518+708274475+709279897+709594148+709710269+709892293+709906360
2116+709813801+709942863+710725046+711808116+712309245+712263739+712233144
2102+712541628+713040365+713321982+713395480+713747079+714440219+714635044
2089+714280139+714436351+715256935+716233450+717197164+718016131+718438486
2075+718360697+718100743+717905004+717860272+718234729+718921609+719437156
2062+719582114+719874492+720837502+721781453+722070806+722248258+722687212
2048+723243200+723748268+723965248+724185744+724903290+725674711+726155513
2035+726513723+726659877+727015133+727960771+728818070+728945515+728675433
2021+728875181+729494189+729616078+729527457+730088510+730793536+731102443
2008+731315413+731590630+732037742+732573404+732908404+733283987+733731802
1994+733720127+733273226+733274281+734331328+735783299+736533620+736664652
1981+736965892+737572943+738230565+738704333+738840711+738718752+738504656
1967+738584203+739477372+740784878+741549125+741752812+741929280+742312810
1954+742966352+743605546+744077275+744518197+744582131+744221389+744535711
1940+745597048+746122231+746419672+747384301+748649044+749574004+750098835
1927+750449519+750511694+750562053+750997279+751033712+751117761+752242610
1913+753137326+752944119+752376314+752701749+754252328+755756417+756641920
1900+757074403+756751711+756158375+755986338+756058853+756319721+757228434
1886+758630046+759654036+759994522+759985731+760087855+760546713+760868701
1873+760334094+758727177+757227590+758402868+761428137+763514097+764163911
1859+764098993+764012834+764484001+765151398+765463540+765523675+765228484
1846+763887851+762511911+764054894+767075028+768687009+768947666+769133207
1832+768589316+766726665+766261266+767966580+769555843+770978837+772727125
1819+773926105+773852185+773272071+773006631+772682885+772713832+773888406
1805+775159550+774946368+773710181+773911195+775430898+775872453+774820611
1792+774503405+776634942+778715487+779026292+778498226+778232575+778619130
1778+779758186+780367207+778987116+776652877+776880407+778944775+780977423
1765+782263477+781921584+781683504+782631252+782982992+782934884+782277122
1751+779753755+777682705+779062444+781602269+783293234+783945229+783714393
1738+783254058+781147701+777376753+778438302+782534825+785347334+786849242
1724+787578323+787868098+786180508+780256501+775553489+779491551+785282838
1711+788235944+788067705+785650683+783497132+783129286+781861378+778822324
1697+777794325+780546769+785518245+788210131+787242619+784732124+780599027
1684+776146685+778543521+783328683+785837068+784659258+782188993+781571251
1670+781213885+781900695+783835016+783957397+782715864+783400564+784863718
1657+783940728+778311419+770377061+770754402+771213822+768596419+770629629
1643+776129383+779265638+779213802+776077195+772590818+774851980+778959686
1630+780825713+780976860+781696024+783703140+787578112+791595720+792373823
1616+792143550+796688803+802639608+806325100+808120441+809726022+811142686
1603+812486906+814802436+817321160+818458740+818467039+819329402+821593588
1589+823472697+824428252+825698270+827593837+829152927+829042573+826530671
1576+825498663+829610941+832678269+832251554+832308876+834248753+835930927
1562+835801372+830498413+823030016+827265167+834088040+839520836+843697610
1549+846953785+848677737+847161551+841331158+832115317+833266963+843708020
1535+849481371+851540394+855124535+858184479+858831691+859073287+858300952
1522+856041126+857289340+861637729+866390959+870879734+873437001+872368701
1508+866601257+865218564+875840660+884562968+887973033+887045541+885846279
1495+889018897+893453937+894724377+893407025+894737600+898195000+900347285
1481+900476699+899867819+898886311+897463387+896377011+898244304+903579757
1468+908176002+910435336+912488521+914409267+912648671+905146584+900921561
1454+906736691+913938734+918970345+920861833+922029866+925574058+930495878
1441+934906513+937616897+938193493+939468435+942063331+943177981+944193602
1427+946498582+946564133+943679954+940597433+936515188+932922677+933608783
1414+935046125+934396733+932628752+930581053+928042635+925727667+922420712
1400+916089261+909804863+907093283+907750623+910596189+910679886+904700878
1387+896623531+893553389+895477863+897894674+898481680+898645066+899050540
1373+899648237+900679261+900498643+899530217+898905653+897009734+895305194
1360+896596453+898629311+899489072+899974938+900742913+901745521+902796309
1346+902461027+900711403+899260276+898544488+899154283+901083258+902902864
1333+904484109+906270800+908189295+909899955+910760067+911192901+912686932
1319+914224781+913838508+913688697+916595031+921427035+925835630+929389949
1306+931861058+934181441+938667684+943611167+946044225+948196792+951981596
1292+955017977+955998079+956128407+956751002+959066181+962574784+964750631
1279+965077824+966025572+968341806+969752210+969124551+968264509+968451948
1265+968480785+967849821+967450043+967523261+968715067+970809819+972053955
1252+972544674+974387279+977888216+980380565+980532978+980253261+980864532
1238+982001267+983254335+983854634+983089894+981572090+980078270+979339132
1225+980361434+981605147+980795112+980260013+982467299+985193579+986734804
1211+987949539+989110821+990084874+990329495+989024451+987259142+986911412
1198+988512421+990848278+991005614+989416492+990429088+994188782+996728889
1184+996586181+996323977+997682826+998846007+998631840+997066561+994483763
1171+994080468+997478225+1000064189+999571571+1000033453+1001435206+1001499913
1157+1002095922+1003361579+1003318324+1003387884+1006283598+1010351706
1146+1011463192+1010518960+1011612018+1014177444+1015134125+1015460755
1134+1016665995+1017670503+1017868212+1016869049+1016189132+1018111637
1123+1019245348+1017379321+1016899293+1016795621+1012398561+1006978004
1111+1006876653+1013965528+1021824911+1022280182+1018733599+1017443817
1099+1018350069+1021284677+1025876913+1029288525+1029837762+1029776713
1088+1032374070+1035853625+1036181733+1034985847+1035920864+1039035316
1076+1041711026+1041681838+1041306325+1043282213+1045506872+1047435496
1065+1051446704+1056433232+1057672162+1055228906+1054760553+1056169972
1053+1056737918+1056937666+1054741492+1051635269+1052096940+1054325608
1042+1056245792+1058809952+1062234506+1066573470+1071200873+1072027577
1030+1065079931+1056942238+1057585159+1063805975+1066430130+1065456217
1018+1063689150+1060878400+1058282871+1058634047+1063056638+1067749100
1007+1066697750+1061414062+1057704375+1055893842+1056092042+1059917077
995+1062675570+1060642359+1057016510+1053984278+1052235357+1052280090
984+1053598849+1055732144+1057733493+1059294201+1059840202+1057402291
972+1053265467+1051220651+1052264827+1054652028+1056970441+1060269449
961+1066020646+1071437828+1071999795+1069623918+1067453487+1063098065
949+1058976362+1062043268+1069311284+1071572447+1068697481+1065927384
937+1065067834+1067534019+1071805814+1073569294+1073741823+1073108748
926+1069548028+1066132618+1066669405+1068645715+1069677653+1070571245
914+1069472701+1065721094+1062964431+1062127247+1062310185+1064886724
903+1069104011+1071001758+1069514409+1067799881+1068740736+1070992826
891+1070499363+1067460169+1066100405+1066612716+1065014802+1061498463
880+1059909411+1059523700+1057449626+1055534717+1055025782+1052438411
868+1046848982+1042027247+1040865191+1040857736+1037178644+1031524016
856+1027619996+1024438446+1020724327+1017161990+1015765230+1016639128
845+1015944230+1012929863+1009913878+1005605158+998820476+992369950+988739740
831+987349381+985822293+982461743+978912065+978266893+979342156+978555754
818+975762094+972116059+968511873+966667579+965724262+962734793+957566664
804+953055663+950448881+947852508+944591339+941273974+938722615+939489183
791+941118607+937604799+929584704+921446377+916955351+917003530+918644700
777+918964156+916772343+913787094+910851853+906243369+902594240+902732094
764+903128777+900558919+897524929+896383482+895037925+891609855+886271166
750+881008438+879219637+880529816+882281550+883609453+882958302+879098241
737+874069724+870907516+870058446+869940426+870138204+871342249+873726777
723+877868384+883462877+886337772+885173747+883967944+882629421+880175544
710+877960310+874491657+870080320+868669142+871256020+874050242+872582164
696+868951884+868890412+871056553+870618092+869942395+872859983+876633463
683+878736936+879339346+876827865+870709174+864513257+863785161+870718669
669+879446534+876339186+862650817+850539122+843556591+843312251+847493175
656+851014086+851197024+850693645+850409919+847064139+843850024+842726159
642+837860747+832095202+830917884+828284093+819121636+808168479+803101560
629+805651443+810171375+810901441+805745971+799092392+795724034+791331406
615+786319910+786922389+788504760+788938016+796371317+807826516+808657370
602+798555533+790045422
##END=
