##TITLE=Sample description
##JCAMP-DX=4.24
##DATA TYPE=INFRARED SPECTRUM
##DATE=25/8/2023
##SAMPLING PROCEDURE=Instrument type and / or accessory
##ORIGIN=Default
##XUNITS=1/CM
##YUNITS=ABSORBANCE
##RESOLUTION=4
##FIRSTX=4397.6552
##LASTX=599.8556
##DELTAX=-1.9287962
##MAXY=1.9219728
##MINY=0.6761502
##XFACTOR=1
##YFACTOR=1.7899766e-009
##NPOINTS=1970
##FIRSTY=0.73303276
##XYDATA=(X++(Y..Y))
4398+409520861+409459324+409064496+409475341+410394463+410903806+410508213
4384+409536478+409420730+410504949+411107730+410642941+410190106+409863608
4371+409571808+410179717+411061611+410998409+410858187+411586272+412826298
4357+413756509+413675925+412889999+412359677+412359344+412243097+411659863
4344+411286513+411407589+411311154+410674775+410232862+411114923+412769456
4330+413442664+413191556+413044240+413181300+412992560+412396240+412318053
4317+412689938+412887735+412923797+413296881+414564745+416187144+416943567
4303+415893646+413694672+412700527+413759705+414827641+414427453+414381367
4290+415700877+416335126+415650463+415261529+415940465+416664521+416289373
4276+415456129+415054508+415109152+415862811+416523865+416075060+415581500
4263+415905001+416495561+416603184+416234596+416479844+417618108+418687942
4249+419160090+418955700+417976606+417064210+417211492+417583343+417409422
4236+417452977+417828058+417672119+417050491+416849764+417244192+418128916
4222+419464610+420506740+420683491+420195426+419309103+418620744+418605227
4209+418873085+419503570+420499247+420910358+420834669+420815189+420434247
4195+419725442+419511662+420022004+420642267+421053678+421267991+421287238
4182+421427926+421633349+421248644+420241679+419588017+419823275+420116907
4168+419879750+419832599+420678030+422086983+423170935+423373228+422570386
4155+421312012+420734106+421051546+421883325+422957188+423502728+423147460
4141+422411349+422503621+423897389+424807587+424478625+424286722+424341699
4128+423910243+423092250+422469290+422389971+422575447+422852230+423160280
4114+423118423+422721897+422262735+422012725+422566523+423844976+424733463
4101+424943814+425089664+425450593+425839960+425901596+425752583+425502074
4087+424850876+424107074+423916370+424328579+425019270+425893205+426886085
4074+427763250+428196572+427651898+426469646+425865067+425873026+425766402
4060+426197526+427826785+429434400+429867755+429211063+428515477+428857859
4047+429409958+429337699+429343960+429499433+429432502+429362574+429478455
4033+429428140+428738049+427796017+427493228+428197537+429169006+429152889
4020+428460068+428303562+428724729+429403565+429993126+430135713+430367308
4006+430919974+431067322+430751214+430741424+431207445+431539703+431051272
3993+429707186+428998881+430103479+431385562+431242509+430862799+431190729
3979+431362186+430980045+430492313+430335208+430775156+431792677+432987616
3966+433502120+433110323+433029206+433737279+434164773+434116123+433779902
3952+432776533+431744893+431786616+432609071+433119713+433197433+433779302
3939+434936646+435625239+434704851+432437881+431254596+431990207+432901171
3925+433289839+433730586+434202967+433942035+433553767+434786234+436811087
3912+437745427+437732707+436998694+434302098+430689377+429695698+431304612
3898+434225544+436720380+436751781+434963519+434901716+436678956+437255597
3885+436257090+435159984+434330469+435058721+436266513+435651479+433784330
3871+432332456+432689023+433906705+433372787+433393665+436415294+438920087
3858+438858384+436195886+431549460+431554555+435771156+439339456+440397036
3844+438898676+436969058+435510790+434382183+435556776+438180547+439943069
3831+440803086+440947304+440467897+439988323+438244181+435592672+436258122
3817+438322301+440229042+442706996+444003863+442628244+439706146+438649232
3804+438369319+437179475+438433720+440894025+442351228+443831774+445084886
3790+445641248+445854862+445793658+445901480+446142733+445577247+445253879
3777+446587842+447772791+446949370+444656227+443728180+444857586+446071972
3763+446622207+445827690+444214381+444355968+445134602+443509804+439076593
3750+437184837+439392968+440970913+441611089+443983351+446190950+445149020
3736+440759697+438810400+441757938+445494299+447748816+448401978+448141978
3723+447796866+448154898+449308713+450346247+450222041+447665301+444239288
3709+444855455+448046576+450631354+451625965+451993321+453429479+455046984
3696+455586962+454829407+452423879+450064170+451573752+454642333+456107594
3682+455770074+453984509+450745603+446790833+446367835+447695104+446454379
3669+446216390+448630943+450008261+449609138+448471973+446661832+444099565
3655+442710592+442116369+438328262+431636737+430829766+434203034+436783549
3642+437993106+437717856+436358719+434678478+432803005+430237508+425457186
3628+421605011+423434098+425485191+424055926+419701467+416017485+414909357
3615+413551919+411477284+410557529+410097834+409493988+409243845+408227489
3601+406154453+404507811+403533146+402503371+401716779+401078568+399011425
3588+395947740+395725635+397431549+397916950+396995996+395734626+394618672
3574+393985889+393637014+392324762+389013764+385686550+385642262+386841730
3561+386634875+385807958+385876555+385892238+385097189+384645253+384379826
3547+383319282+382283013+382464194+383401131+383766523+383081060+382284179
3534+382222276+382259038+381317506+380009150+379735764+380159962+380322994
3520+380078212+379956004+380621454+381264926+380708831+379828036+379578592
3507+379170578+378140603+377742479+378525374+378990463+378840351+379003283
3493+379364612+379322322+378920801+378558374+378255651+378192516+378606757
3480+378851106+378696832+378761598+379334177+380277408+381095001+381295328
3466+381181645+381210782+381162598+381009888+381113116+381410010+381722956
3453+382081221+382321174+382151449+381949956+382329299+382996247+383571556
3439+383980936+384220589+384458545+384774387+385578894+386853284+387478975
3426+387228932+386890613+386738635+386773999+387277881+388650971+390729934
3412+392727748+394205164+395354350+396227686+396690943+397357059+398630051
3399+400147891+402068618+404022210+405190110+405915465+406939413+408731605
3385+411033773+413124491+414771532+416134632+417673817+419787412+422551339
3372+425424686+427823955+430241804+432841299+435075504+437155200+439589299
3358+442713256+446382952+449595851+452220155+455193100+458330177+461053845
3345+463941844+467467455+471219667+474896689+478546472+481626674+483628850
3331+485345985+487355387+489650363+492355017+493897499+493108243+492283191
3318+493174841+494577201+495412476+496137731+496810639+496646807+495834176
3304+495487499+495833809+495943264+495372217+494408973+493268645+492264677
3291+491357209+490378681+489495122+488275609+486200208+484145985+483237519
3277+482999064+482288827+480535495+478069628+475907650+474417081+473387373
3264+472818790+472362992+471464915+470371704+469467134+468604221+467907736
3250+467789358+468125612+467851394+466692252+465841093+465507502+465429749
3237+465830737+466256433+466395490+466308379+465469708+464151196+463502995
3223+463168938+462423072+461952655+462204429+462725761+463155153+463710116
3210+464235176+463850938+462836180+462265467+462498461+463724801+465568007
3196+466716460+466537844+465687218+465163556+465297052+465856111+466936201
3183+468308624+468887463+468272761+467667350+468041366+468719968+468928421
3169+469140936+470121961+471341475+471774796+471517161+471075415+471113376
3156+472157070+473424002+473927951+473824590+473610144+473575646+474161744
3142+475265043+476221927+476865466+476999295+476687215+477048245+478551200
3129+480019825+480393407+480207432+480392542+480782341+481051198+481374932
3115+481847380+482563578+483226463+483500149+483996439+484599486+484474148
3102+484128603+484232197+484620231+485261739+486185589+486993992+487292452
3088+487348495+487727172+488559251+489364856+489585396+489394026+489569246
3075+490472385+491286482+491290411+491242627+491694496+492212630+492683979
3061+492951105+492564236+491752803+491264205+491384148+491662662+491795326
3047+492220422+493258422+494321763+494619757+494312306+494099858+493965662
3034+493576962+493506134+494497449+496056880+497263407+497752039+497567695
3020+497428238+498222722+499659279+500515266+500434382+500332121+500820952
3007+501673210+502548810+503094616+503144964+503382087+504520251+506024772
2993+507188110+508325941+509574092+510429846+511093464+512221805+513583372
2980+514540189+515133446+515958865+517019342+517382635+516963866+516962966
2966+517723319+518262165+518182647+518295597+518856687+519203298+519402360
2953+519897651+520419315+520972647+521854674+522606468+522909190+523094999
2939+523519297+524361098+525239130+525752768+526131979+526660003+526956132
2926+526211331+524878334+524280115+524633752+525024417+524388337+523043652
2912+522283700+522586755+523710134+524978164+525694362+525911439+526111533
2899+526453981+526886870+527500639+528160328+528625583+528886981+528989210
2885+529055508+529343246+529877897+530253344+530584271+531241928+531623670
2872+531458606+531405860+531692932+532106474+532516219+533183467+534439277
2858+535628854+535876866+535506780+535160769+534752089+533974488+533056797
2845+532772289+533442667+534512435+535449838+536045859+536252847+536551540
2831+537235970+537917303+538774889+539933831+540200590+539210374+538551751
2818+539321993+540999236+542544349+543352718+543640289+543897525+544340836
2804+545032959+545743295+546459193+547186679+547428464+547687032+548687537
2791+549717279+550190160+550262319+550422188+551211377+552104692+552193301
2777+551690651+551612698+552558793+554097845+555251592+555311031+554949803
2764+555686546+557105921+557610169+557483866+557653258+557914656+558193936
2750+558758955+559400563+559899250+560290648+560639157+560948040+561058659
2737+561122127+561662772+562796740+563911661+564426798+564669882+565011398
2723+565094446+564916296+565107233+565908543+566763997+567105912+567217598
2710+567488852+567822043+568204517+568575602+569065299+569940999+570895419
2696+571937215+572975681+573165020+572764831+572778750+573257725+573819747
2683+574364188+574948654+575432091+575802310+576380317+576770382+576409620
2669+575941834+576097074+576763190+577515617+578117398+578619283+578962130
2656+579225526+579662078+580235755+580900672+581660758+582305562+582581745
2642+582637621+582701888+582553773+582229640+582440423+583517117+584727007
2629+585331253+585434280+585491289+585655653+585640868+585354895+585212908
2615+585583794+586392829+587438288+588504259+589030785+588896856+588993490
2602+589857735+590788646+591465151+592583934+593833983+594140801+593724829
2588+593649639+594220187+594906548+595198914+595029222+594947439+595364810
2575+595874620+596199886+596786150+597929309+598740342+598318709+597602378
2561+597843930+598657960+599366232+600062783+600575856+600809017+601281331
2548+601968692+602226760+602000792+601807324+601847350+602199588+602883086
2534+603660220+604285511+604361899+604070932+604178155+604766883+605415217
2521+606018997+606920404+607918578+608317169+608248306+608215540+608430186
2507+608789750+608966768+609162833+609837540+610924956+611975077+612483754
2494+612364144+612083233+612208904+612922570+613755048+614379873+614974462
2480+615191572+614599914+613923542+614098695+614829677+615458498+616083456
2467+616759428+617229545+617430139+617524042+617935819+618863266+619946753
2453+620632382+620520697+619840129+619404177+619632942+620145349+620523960
2440+620655425+620759052+621486971+622605688+622945206+622737219+623097716
2426+623737192+623979876+624200050+624519188+624592113+624931631+626085512
2413+627452708+627963116+627571053+627478015+627936277+627969177+627695525
2399+627814935+628122952+628302634+628308029+628340862+628851670+629578590
2386+630049173+630343870+630291790+629897729+629304338+628053157+626514205
2372+625799872+625446369+624090296+622049592+620689923+620445840+620820389
2359+621111423+621615905+622812342+624498543+626877499+629305870+630204280
2345+629142371+627888660+627850166+628475190+629026690+628890497+628484914
2332+629246132+631234955+632997344+633827957+634400902+635409665+636618224
2318+637383038+637687458+638103631+639029812+640423447+641885545+643071393
2305+644088615+645083259+645763693+646241602+647268481+648652858+649573912
2291+650066273+650481246+650773346+650778408+650710477+651022956+651593370
2278+651622807+650983064+650806179+651633396+652717682+653492153+653887480
2264+653960938+654220604+655136929+656255513+656921895+657101444+657033447
2251+657173970+657936719+658772927+658843721+658491749+658322057+658409434
2237+658905124+659632244+660334389+660966606+661128174+661147354+661828920
2224+662736921+663385254+663681017+663182263+662709615+663468169+664676661
2210+665235686+665461521+665743831+665835204+665890147+666212483+666406417
2197+666147416+665847125+665989712+666522964+667251549+668028617+668657104
2183+669274670+670256994+671355865+671703175+671418401+671401551+671657555
2170+671912959+672206724+672523132+672867911+672962681+672633752+672704013
2156+673788565+675093358+675780852+675943018+676164924+676609933+676658150
2143+676319432+676225794+676515097+677106823+677868240+678624796+679137936
2129+679430502+679867319+680219624+680186725+680086960+680089158+680288753
2116+680792635+681150734+681162855+681430913+682109815+682805700+683404752
2102+683874935+684351579+684761491+684657797+684555769+685205834+686041842
2089+686275868+686226452+686545791+687011179+687247337+687524852+688074154
2075+688631315+688648097+688367119+688759783+689579807+689884028+689783131
2062+689343982+688562852+688663881+689885360+690987028+691763896+692336641
2048+692658910+693090866+693313104+693210277+693740665+694970801+695783766
2035+695835579+695702249+695734616+695866348+696001742+696331403+696960357
2021+697496006+697447590+696941643+697064783+698351461+699770802+700339618
2008+700392697+700787491+701479180+701905409+701969677+701908140+702288682
1994+703163583+703574361+703235110+703041775+703571697+704444267+705067161
1981+705540341+706039628+706571215+707406224+708348989+708700894+708031448
1967+706955354+707191045+708668527+709592777+709864698+710400148+711052278
1954+711526590+712061041+712520569+712799216+713148257+713059349+712661558
1940+713095512+713805782+714177467+714975314+716417032+717727885+718317280
1927+718036768+717112984+716382534+716278375+716191930+716502611+717931609
1913+719231474+719508189+719798491+720764965+721748887+722454029+722953250
1900+723045555+722788353+722786488+723367158+723810169+723529990+723560559
1886+724556269+725374362+725422646+725490776+726109473+726659708+726671096
1873+726026092+724160143+722115178+723155575+726526578+728939033+729831982
1859+730472657+731538096+732561910+733096961+733220900+732585153+731191452
1846+729771977+729503187+731386585+733639270+734926015+735807243+736433466
1832+735833083+733966068+733208646+734105058+735263934+736942476+738636935
1819+739305315+739688655+740350042+740143987+739430253+740025708+741303862
1805+741680608+740978196+740220108+740710005+741844173+741886197+740447275
1792+739914556+742495637+745209449+745874366+745666179+745512271+745052943
1778+745135391+745402650+743514324+739768839+739495586+742661999+745703741
1765+747825561+748381123+748122189+748686410+749407802+750052140+750077647
1751+747986062+745055141+744814521+746860352+748950072+749638032+749204810
1738+748964590+747765755+745065930+745822552+749671930+753057918+754917274
1724+755596110+755749552+754589677+750367216+745879693+747782205+752653733
1711+755628876+755498943+753182656+750855714+749694307+747236433+743923836
1697+745007390+749585020+753892860+755622483+754489580+751672941+747171499
1684+743921106+748040740+752828354+754444826+753774781+753408624+753383717
1670+751567716+750791114+752436623+752746571+751735277+752520004+753701657
1657+752100835+745760682+737760969+738780787+740400456+739681728+743180533
1643+748847710+751112650+749601336+745477573+742345724+745456728+749977883
1630+752408985+753601693+755120932+757108223+760318391+763861817+765385318
1616+766782816+771465072+776476256+779687890+781743844+783845551+785649564
1603+786871242+788484318+790389094+791521930+792171330+793262542+794746084
1589+796455794+798479049+800856073+803597390+805750644+805820239+803156909
1576+800663138+802699579+805044303+804887531+805702027+808474912+810201871
1562+809792691+805058555+798926189+803668184+809465827+812893705+815990656
1549+819345476+821339161+820195735+815147722+809144624+814074225+823904525
1535+828064983+829105581+832075929+834915078+834747584+833281357+832082389
1522+831761452+834808455+839297176+844435496+849454140+850867621+848074291
1508+842562621+842638276+853342611+861940644+865968239+867508123+869130057
1495+871020181+870274015+865583434+862776518+868470534+876477973+880983744
1481+882051314+882051580+881095696+877689329+873027519+873233108+878291976
1468+881589655+881454860+882000166+885500303+886556485+880979082+879296011
1454+887496119+894335958+897504969+898791514+901560602+906759726+911287075
1441+913262045+912608916+909756314+910024172+915078179+920024897+923702185
1427+927046282+928158540+926759244+924407061+919975148+916891117+918671221
1414+919591342+917123145+914291055+912208128+909455690+907708551+907457809
1400+905278848+901366068+898187001+895910141+896439197+898790048+897924205
1387+893308614+890360043+889800485+889816069+889980100+889285681+887561918
1373+887846026+891104945+893172687+892797139+891925169+890491175+889713641
1360+891517188+893891615+895318948+896008640+895535659+894067434+892686320
1346+891926767+892356459+893190868+892921278+892218600+892501709+893589792
1333+894355138+895326141+898059799+900908072+901890263+902266876+903151367
1319+905070662+908315195+910820288+911906238+913427808+915618224+918401165
1306+922557894+927736573+932449997+935493203+937249799+938512568+939788856
1292+942034949+944988847+947311394+948831099+949680426+950045651+950769441
1279+951326535+950733145+950332157+951840873+954635335+956762084+956987385
1265+955330554+953861064+954768066+956810567+958137004+959579389+961819487
1252+963670052+964249590+964342628+965026925+966097159+966878689+967991079
1238+969114592+968711939+968182150+968272990+967005892+965836693+967005425
1225+968619633+968847066+968936774+970405465+972697044+974359736+974958454
1211+975839948+978397254+981122920+981580450+980372691+979181448+977968694
1198+977299382+978090036+979489199+981035743+982814182+984327827+985667384
1184+987342130+989410538+991185448+991708444+991074628+990901939+991450042
1171+990679035+989652623+991474551+994548526+996309117+998226413+1000558151
1157+1001645434+1002530458+1004391279+1005283762+1003704052+1002286375
1146+1003075498+1003320046+1001320035+1000179606+1003140631+1009587806
1134+1015256182+1017103617+1016893367+1016809253+1017238412+1018146413
1123+1017451660+1014489037+1013589561+1018179112+1023959839+1023197623
1111+1017750153+1014122214+1012478037+1012541305+1014697889+1015558405
1099+1013512840+1012350434+1016029521+1023428918+1028317962+1028278602
1088+1028445031+1030708838+1033379561+1037839112+1042497126+1043068406
1076+1042438187+1045494513+1049252385+1049402098+1048182551+1048997647
1065+1050884708+1050741122+1049152222+1049556340+1052131361+1054601556
1053+1056467905+1059250712+1063701939+1067120293+1064615866+1057903230
1042+1056030488+1059994481+1062542796+1062746187+1061714847+1058847460
1030+1057490587+1057075014+1054245721+1052575304+1055476657+1060203533
1018+1063712994+1066163343+1067781281+1067938919+1066423010+1063625484
1007+1061094085+1059079355+1057193892+1056439534+1056086097+1055642420
995+1056545625+1058508142+1059214283+1056937356+1053142189+1050912546
984+1051181670+1052449367+1054279620+1057171782+1059299862+1060128344
972+1059795086+1057739465+1057198221+1059106993+1060158047+1059737812
961+1059245051+1059724093+1060163641+1059266030+1059255574+1061749745
949+1063730376+1062376301+1061530037+1066104137+1071854895+1071818599
937+1069438644+1070506414+1071968379+1069630181+1066380786+1066243061
926+1067654211+1068432012+1068942687+1067842951+1066395371+1067893166
914+1068447196+1065019984+1063128395+1064816327+1067294115+1070712269
903+1073741823+1073676024+1070369555+1065342720+1062826172+1064463956
891+1068151500+1071907708+1073259252+1072720672+1071658164+1068628677
880+1063948219+1060110362+1058282973+1057962836+1060268533+1065135133
868+1066766057+1061951071+1053831347+1046708932+1045497643+1049558604
856+1051819747+1050023660+1045967028+1041081181+1036074059+1029219369
845+1022457383+1020235266+1021751375+1022449125+1018404614+1010673091
833+1003915901+1001590290+1003679677+1004755305+1001271018+997675180+995514933
820+991146954+986382116+985161171+985223906+983553023+980020386+973581935
806+966523121+963797322+963428301+961057337+958227378+957561262+957368460
793+954837727+951328933+949898602+950023008+948674393+946189014+945442381
779+945583702+944069591+940479147+935591969+930972648+927890881+926024865
766+923845172+920353359+916139356+913266507+912654869+912370894+911210220
752+909920346+908897397+907546252+905713734+903902595+901228809+897769630
739+896188921+898155567+901655637+901812743+897475799+893412507+892011280
725+891218295+892007551+896164679+899322435+897472469+891317260+884836052
712+884622472+888606112+888322270+886413099+888392931+888725523+883922857
698+879355750+875362520+870460623+869089498+870720889+870309778+868503700
685+868347927+867904316+863677659+859988316+862970985+870525889+875422391
671+875279405+874974185+874341169+868910016+863459949+861863922+862601165
658+861499097+861037105+865595954+869523919+867988629+867615679+871004597
644+870280408+861056752+848071560+836651827+826291872+819121173+821138900
631+828094886+833088155+838329104+847742099+862270571+874308935+869994235
617+842015316+806547026+792670950+807869800+833922964+847244011+837887757
604+817205741+807404545+811440931
##END=
