##TITLE=Sample description
##JCAMP-DX=4.24
##DATA TYPE=INFRARED SPECTRUM
##DATE=25/8/2023
##SAMPLING PROCEDURE=Instrument type and / or accessory
##ORIGIN=Default
##XUNITS=1/CM
##YUNITS=ABSORBANCE
##RESOLUTION=4
##FIRSTX=4397.6552
##LASTX=599.8556
##DELTAX=-1.9287962
##MAXY=2.0430343
##MINY=1.2650143
##XFACTOR=1
##YFACTOR=1.902724e-009
##NPOINTS=1970
##FIRSTY=1.3497064
##XYDATA=(X++(Y..Y))
4398+709354812+708045888+703951774+702755937+703609883+704060726+705766737
4384+708417915+707239433+702080737+699345292+702285922+706528021+708262163
4371+709573342+711031064+711123037+709586311+706570123+705605033+708917188
4357+711049797+709241788+708976332+710696189+710582539+710822997+711580396
4344+709438703+706618803+706527269+708331769+709712554+710016917+709376552
4330+708095070+708231463+710310191+711284616+709767563+708031478+707232604
4317+706640857+706921349+709092050+713002970+716862265+716880183+713031853
4303+710471332+710474026+710919543+712904293+715152494+714197178+713445418
4290+716083815+718112860+716325338+712594981+709078455+706540739+707288114
4276+711264630+713095632+711661781+709694448+706902240+706103617+709758666
4263+713542779+715354923+716335550+716066022+715576585+715907262+716840400
4249+716600568+712980979+708443540+706543182+708695338+714309952+718352503
4236+716593488+712011253+709697643+709814677+710433678+712282410+714857404
4222+716278224+716909567+715902939+711992207+708875588+709194799+710364072
4209+710506667+709046627+707521617+709142359+712121082+714079017+716441307
4195+717964061+716909379+716131744+716740344+716844722+717210986+718410707
4182+718267046+716838144+716413740+717261107+718421295+718856413+718913363
4168+721468747+724281128+722113435+719205509+721152167+724076131+723852276
4155+722301641+719979010+716407851+713638260+712185613+710665741+709451233
4141+710601084+713557878+714475039+713459765+714866113+717894831+718209093
4128+717239430+717928601+718504309+716910382+714438012+713793700+715536989
4114+718320676+721622369+724691248+724485624+720503469+718004785+718923262
4101+719008469+717532954+718020448+719641817+719533680+719989222+722755867
4087+724545018+722690334+718590831+715707089+714736987+713566900+713526552
4074+715921233+716201413+713857542+715145979+719764051+722265616+723386584
4060+725372900+725279486+721735330+717573615+715367578+716262436+719526475
4047+723112545+725023052+723989734+721200221+720024370+721559968+723147567
4033+723823205+724840234+725621816+724829082+722795526+721506776+721905806
4020+722596857+722176525+721474009+721119086+719849195+718991866+720776819
4006+723768134+725346649+724701272+723610001+723453872+723387775+723573538
3993+724046246+723292356+722201523+722119261+721404591+720772183+723502553
3979+728052648+729573773+727657941+725796615+725601830+726573248+727560454
3966+726838015+724746193+724851511+728037737+729431366+727305649+724815173
3952+722357464+719524533+718138234+718343795+718514145+719247799+721989697
3939+724929325+726568737+727875907+728333015+727782179+728003779+727055793
3925+723886233+722791328+725467818+728866120+729781715+728870506+729126877
3912+730172099+730619998+730221030+730486674+733215854+732176396+725316827
3898+722966002+725687162+726616353+723623283+721419502+723457945+725290952
3885+723756794+722894453+722898401+722496175+723819947+725856573+726922909
3871+727385906+728383638+730930939+731777116+728194930+725388375+726328906
3858+728879590+729988153+725670935+723532250+727542097+730157439+729392897
3844+727867386+728183841+728697211+726484658+724487316+726256606+729926566
3831+732704427+733227320+731122090+728888174+726769474+721841024+719380308
3817+720590743+723116680+727679806+730898360+730660721+729434122+730198225
3804+730823053+729165596+728485635+730370017+733599848+736561717+737001846
3790+736227406+736487036+735218773+731387859+729321286+729760539+731602129
3777+734762918+736935498+736501634+735222658+735100298+734477162+733958781
3763+736130108+738000142+737126398+738174252+742393169+743373984+733264597
3750+722051597+724742685+730570753+729068173+729004518+733444784+735593870
3736+732463467+729639182+732205279+736537408+737996070+736049475+733529364
3723+732766389+734634481+737545665+739088468+739147862+736648866+731616476
3709+729996423+732413033+735061392+735665481+734780460+734665431+735952803
3696+737537646+736887883+732485208+728551608+732770149+740494377+744593566
3682+743993486+740706015+736941951+731994267+729823817+731769786+729768308
3669+727082922+731115010+736589221+738891428+738464581+737604307+735909949
3655+733414210+732214551+728939861+721376899+717889192+718575168+720222851
3642+722635200+725019356+725599011+722978658+718864683+714527479+707973901
3628+703694024+707198208+710692305+709960468+707463414+707185615+707752991
3615+704513824+699017686+697519992+698606125+697931803+697129107+697347636
3601+696977927+695102818+693514029+693297128+692981112+692406782+691255490
3588+686645563+681776632+682889455+686768674+687273711+684812493+683209105
3574+681589679+678960679+677076987+675130518+672485855+673579068+677096660
3561+677829875+676648323+677182806+676499086+672322772+669840504+669857294
3547+668786323+668452952+670651846+672612600+673257852+673960180+674296120
3534+672516116+669917440+669437151+671244596+672345578+670828462+667943717
3520+666854702+669161796+671601022+671067855+669600046+668518987+667541680
3507+667705953+668782313+669809303+670576852+671215588+672031692+672203232
3493+670633865+668435848+667089020+666616687+667430097+669634442+671437877
3480+670982084+669151458+668417679+667838086+666016419+665709237+667063520
3466+667965583+670053959+673412164+674857230+674380010+673062315+671315204
3453+670498098+669037807+665819880+664843826+667829127+671245786+672772300
3439+673303149+673962999+674994438+674832232+671726201+668905111+669752227
3426+671579407+671339513+671196918+672662910+673272763+673689900+675748015
3412+677445568+677243328+676732151+677626883+678591221+679268300+681152807
3399+682754566+683079854+683065946+683622545+685797193+688299385+689474985
3385+690675020+693145322+695560679+697120836+699398860+702738081+704396791
3372+703869136+704296360+706463928+709477860+712570108+714101759+715515938
3358+719460001+724468708+728210155+730842663+733188538+735020167+735199727
3345+734799945+736210803+739224861+744988211+753371349+757505811+756321690
3331+756845335+759715857+761585954+764295963+767665445+766985045+764627579
3318+766127403+771126274+775052732+774233119+772579923+774064648+774497134
3304+772057469+770863825+771952966+773243470+774150544+773916351+772915236
3291+772955960+771187046+765767217+760904865+758435503+757719768+758408563
3277+758738864+758587622+758468082+756969448+755788021+758285013+762021009
3264+760675559+754588551+750731511+751277021+752592523+752857478+753297733
3250+753983897+752887990+750486855+750314876+752961606+754384807+751616093
3237+747198382+745349712+746841830+748863231+748854710+748082526+748196615
3223+747479752+745700250+746225774+747945443+747057728+746697793+749689422
3210+751853106+750429717+747654488+745715850+744778327+745304164+747266046
3196+747766384+746565911+747656743+750400082+750790905+749946984+750602010
3183+752342292+753139663+751161303+748801958+748859347+748880022+748726211
3169+751017517+753612183+754145977+754057952+754079065+753811730+753860473
3156+754171539+754434740+755142393+755317631+754459676+754298159+755817656
3142+758039731+759165711+758353116+756938498+758218352+762233775+763978819
3129+761750791+759026561+758244916+758453547+757854845+756380771+755326903
3115+755481090+756541035+758969736+762027776+763703777+764314633+764183377
3102+762686310+760497189+759592997+760835447+762296615+761705807+760466615
3088+762286277+765216507+764792103+763362449+764075553+765680883+765673427
3075+763364078+761988430+763678152+765195205+764836837+764917219+765525632
3061+764810397+762486012+761609449+764013089+765543738+764295775+763103509
3047+763476288+765777304+768363826+768335006+766064563+764651575+765761704
3034+767724150+768474720+768582293+768853388+769569374+771184289+772270110
3020+772133904+771876906+770879926+769352473+769072544+769649255+769941338
3007+771011871+773201368+773917291+772913044+772899699+774260373+775962688
2993+777687808+779140957+779944781+780551251+782287085+784224344+783674825
2980+781359649+779702694+779662283+781752852+784811456+787218291+788638798
2966+788244530+787615254+789659084+791775654+790302457+787706036+786509134
2953+785466105+784599692+785239055+786741322+787451607+787825200+789542928
2939+791476491+791693329+790770905+790999835+794234992+798646062+800817452
2926+800089249+797774762+795127969+792254628+789181238+786949765+786568403
2912+787836854+789802557+791129963+790242436+788178996+787969112+789812143
2899+791123573+790503569+789296894+789563728+791017566+791581558+791624036
2885+792422973+793094852+793078500+792235206+791914616+794403087+796821826
2872+796426242+796673341+798290638+798471201+798125174+798979370+800381144
2858+801757356+802715867+801700280+798753573+796836362+797157202+798235629
2845+798285187+795965813+792969862+792703215+795055356+796698528+795469172
2831+793016913+793039280+795558513+796572910+795424939+795405580+797356874
2818+799072596+799162251+798391507+798557974+800864691+803993716+805322876
2804+804387420+803279735+804175532+806884350+808646810+807160707+804182235
2791+802900189+803877183+806748332+809919333+810554373+808786336+807018362
2777+806801023+807845618+808478841+808390564+809265059+811542958+813236627
2764+813419821+813770609+814778741+814568230+812934268+811452613+810169064
2750+809448003+810727355+813089833+814506518+815118690+816435884+818001430
2737+816504926+812200427+810620408+813179300+815518660+815541214+815153148
2723+815857920+817377855+818702943+818263064+816430496+816698333+819202341
2710+820239669+819545736+819161806+819060685+818804564+819365675+820709370
2696+821216726+821685926+823601758+825227763+825028342+823954426+822700573
2683+821434566+821472095+822991216+823347830+821588377+820657119+822766922
2669+825451807+824868079+822300541+821672518+822944164+823668232+823552702
2656+823696425+824167067+824781243+825667392+826091859+825872389+826590693
2642+828284237+828787018+827789099+826715308+826089227+826028330+826309073
2629+826390896+826270730+826376862+827351162+828807568+829941442+831199618
2615+832017977+831185647+829343743+828057562+828557775+830161100+830719767
2602+829675798+828544618+828826802+830141929+831300237+831696134+831106831
2588+830765942+831646013+832273534+832216834+833066833+835109410+836990409
2575+837415502+836856146+836803831+837274974+837298092+836439949+835709302
2561+836687612+838158366+837268646+835157464+835207461+836764361+837299032
2548+837524203+838724175+839397996+838561969+837829756+837857010+838163002
2534+838490546+838220830+838149281+839282153+840581428+840816310+840219300
2521+839902532+839851032+839914875+840642013+841384250+841347410+840150007
2507+838413860+838917331+841775260+843104483+842217583+841580663+841391392
2494+841645446+843018086+844119757+843820407+843672423+844888120+846014539
2480+845636184+844452815+843546868+843561654+844248883+844338287+844003225
2467+844338788+844979780+845893621+847200226+847774995+847470883+846699951
2453+845377745+844462025+845071064+846714236+847564171+846990029+847235875
2440+848739459+847832697+844911490+844679615+846537244+846890099+846034588
2426+845846131+846234447+846379925+847059636+848384160+849467724+851104067
2413+852614792+852098603+850729659+850168235+850211716+850865050+852110382
2399+852525827+851573706+850635368+851047805+852769417+853629189+852271898
2386+850249683+848929607+848365615+847464116+843933744+838165508+834552999
2372+833995835+832174732+827757647+823044407+820121257+819229658+818489801
2359+818454215+821072501+825125891+829005047+833167452+837444823+840291600
2345+840057784+837217835+834200770+832226546+832505472+834201459+833935564
2332+832689731+833870218+836248986+837227734+837770237+839508138+841909273
2318+843547307+843960997+844408395+845993112+848711892+851982196+854326505
2305+855486881+856703017+857624314+857344197+856765732+857146656+857911259
2291+857784703+857274465+857373080+857940518+858871525+859934102+860242600
2278+859919190+860207515+860696826+860234016+859517968+859316354+859567588
2264+859657619+859408891+859969124+861058954+861225295+860560433+860353869
2251+861126806+862138196+863125339+863327893+862164823+862106932+864179332
2237+865717374+866035395+865883339+864799586+864140613+864427434+864026650
2224+864311778+866475149+867763773+867178605+866602082+865601155+863539907
2210+862524006+863800288+866048427+866713101+865793120+866384930+868725480
2197+870114097+869962354+869389778+868494671+867943208+868855796+870118483
2183+870913097+871493943+870835033+869090052+868021022+867816213+867918837
2170+868177652+868066946+868271442+869688565+870683791+869866246+868658129
2156+868890380+870046245+870308694+869650536+869656550+870473218+870440514
2143+869468908+869034667+869667702+871689166+874352373+875125623+873865756
2129+873002851+872508841+871187763+871456665+874444221+875848877+874316098
2116+873481324+874560002+875833089+875488691+873822464+873205530+874620774
2102+876478278+876876493+876044163+875284383+874813303+874773645+875827387
2089+877216004+877355091+877065514+877577882+877759823+877191319+876776501
2075+876353726+875858337+875420902+874277755+873172262+874033287+876113644
2062+877065013+877209676+878147638+879099133+879231453+879430749+879517522
2048+878982036+878868887+879529238+879743382+879623028+880238144+881069473
2035+881140081+880032959+878307400+877546806+878392419+879545653+879450610
2021+878723785+878897581+879580988+880019552+880926564+881532658+880086088
2008+878656184+879840367+881561666+881448642+880593193+880267403+880250675
1994+880395526+880815482+881232180+881482850+882108179+883534575+884900010
1981+885015791+884240160+883114744+881525578+880842234+882008562+883205715
1967+882881804+881932878+881740788+882170267+882712206+883715200+885349224
1954+886713156+887189937+887461721+887777675+887603064+886437112+884775584
1940+884812360+886144966+886188321+885469516+886324527+888210036+889102324
1927+889145116+888787561+887580635+886487108+886455845+886781134+886627511
1913+886291196+886585284+888072264+889908842+890187769+889409256+888766260
1900+887283101+885797123+886583968+888716075+889768627+889822069+890376977
1886+891063329+891809827+893947196+895947045+895836277+895186075+894805402
1873+893244117+890272223+887421687+887453827+890477847+893295554+894216036
1859+894129889+894348795+894978196+895048993+894209144+892767461+891140704
1846+889686491+889804464+892986304+895890533+896273838+896292383+897215371
1832+896865585+894303122+893122259+894128010+894789739+896188882+898285716
1819+898796955+897939689+897453824+897420242+897199081+896903991+897276957
1805+898688317+899524783+898777909+898287721+897990249+896587599+894307821
1792+893243803+896173093+899725645+900067724+898267547+896691789+895888027
1778+896883441+899113473+898598537+893671904+892216563+896618173+901100729
1765+903500360+903339031+901619737+900076871+898422924+898757923+900863717
1751+899742623+895368392+894135340+895335437+896249153+897115566+898072449
1738+898813871+896771294+890844047+891046601+897698542+902768711+904178566
1724+903975449+905013090+905692362+900167905+891942586+893177079+897596357
1711+899331877+899141353+897592848+895597385+894276558+890531477+884769193
1697+883968126+887802297+893533255+898129650+899398351+897621919+893316417
1684+887147146+886798990+890855513+893897639+893821266+892522868+890852067
1670+887176655+887260985+892598865+894956644+892525374+891957936+894273613
1657+895318396+891539484+880307876+875479231+874284020+870480673+872275525
1643+878932666+882243569+880173863+872717347+866019544+871305674+879621023
1630+883565838+883359212+880637300+877809318+880122614+886682582+891124352
1616+892475566+895437122+899160023+900265328+900435428+903755854+908187286
1603+910713662+912637514+913508814+912027472+911269760+913706418+916772979
1589+918509815+919212268+918917052+919561740+922976207+926353270+924623889
1576+918259332+916782000+917852722+916225589+915988201+918900387+920745235
1562+919851192+913168113+903383576+908241480+917240738+922796521+924132949
1549+924600207+925492433+922670653+916368686+912753608+917289606+925156932
1535+927873205+925084381+925377404+928795441+929506290+928251184+925188571
1522+919940158+920469880+926678559+933243288+938349106+939942657+936130539
1508+926301519+922491594+933919490+942317540+942862800+939117907+938781028
1495+943066105+945150409+941978217+937071758+937689381+941784310+944525895
1481+945026421+943866671+940384478+935357101+932320927+933264339+935130176
1468+934831827+931520611+929565684+933053578+936037563+930668859+922352883
1454+923254381+926571236+929318835+932766570+937352314+940694417+940432219
1441+938473532+936991125+936224078+938547712+940816714+939792104+939796741
1427+942800586+944708901+944965836+943876382+938976126+935507779+937996375
1414+941373689+942613508+940763961+938342277+936541535+934221598+932918563
1400+930861889+925062077+918647398+917100397+921155605+924591686+922214485
1387+916785509+915312876+917172823+918896816+919569133+919908205+920573255
1373+921126910+921396815+921341180+920583593+918742128+915830005+913907969
1360+916006871+921466421+925452586+924352293+920268892+916684639+916049412
1346+918409196+920247215+918998938+915903182+914136210+915272465+917918819
1333+920569308+921676618+920293577+919177997+920610784+922738631+924596824
1319+926948776+928422287+928058342+928955078+933667943+939500272+942857725
1306+944135323+944937142+946183288+948794870+951163426+952651722+956250573
1292+960906299+963549708+965358845+967543454+970040634+973026123+975873151
1279+977598960+977908210+977359693+976505496+976655610+978845671+980915376
1265+981462140+982340206+984638403+987725514+988840467+986074949+983184816
1252+983974293+986681607+988291949+989037257+989091952+987595072+986443593
1238+987358937+989319190+990885926+991049824+990881729+992266712+993296521
1225+991228695+989569798+992823061+998314751+1002211261+1004567099+1005353944
1211+1004479887+1003323521+1004110491+1007390569+1010061546+1010408011
1200+1010280075+1009130538+1006811603+1006875571+1008811703+1009522865
1188+1009606380+1010223000+1010884917+1011839231+1014493166+1016866169
1177+1015376620+1010572723+1005797895+1005670524+1010075517+1011925941
1165+1010178454+1011966602+1017688914+1020805596+1019968441+1018052045
1153+1017958631+1020830281+1022819229+1023136059+1025171557+1026869674
1142+1026100685+1025710865+1025855591+1023827235+1020017874+1016931014
1130+1016700956+1020211531+1025356819+1029636132+1032947912+1034460705
1119+1032947098+1028996393+1023622238+1018798354+1015512262+1014308781
1107+1017692110+1022440498+1022119469+1020755036+1024419108+1029281710
1096+1031060085+1031966846+1033600306+1036591872+1042459600+1048658567
1084+1050252181+1047649997+1045166287+1044819572+1046796365+1049496537
1072+1049376370+1047761956+1047478832+1048508015+1052992764+1058811873
1061+1058209162+1052608332+1051169217+1056082004+1061097039+1061539487
1049+1058912617+1055777641+1051724439+1047977478+1048751793+1053454634
1038+1058264295+1062188435+1065392328+1067398443+1067342306+1065393581
1026+1060632913+1053758370+1050369340+1051739099+1054547784+1056985069
1015+1057548059+1056510668+1055221167+1053463029+1051787090+1051614296
1003+1051788343+1049963669+1047325397+1046660097+1048534642+1051978680
991+1055114283+1055190217+1052752431+1052838264+1056078120+1057656823
980+1056788968+1056010706+1055252618+1052428145+1047733700+1045378427
968+1047864768+1052225278+1054826209+1054940236+1052923095+1050085465
957+1048849781+1051513302+1057048598+1058905350+1055046117+1051755639
945+1051965022+1054083032+1055866356+1055510619+1054463705+1054908409
934+1056371080+1057603568+1059230638+1063746212+1070713230+1073741823
922+1068481193+1058843074+1052001485+1053003164+1058909109+1060818739
910+1057019527+1054704790+1058291361+1065134453+1070282435+1070675639
899+1067905547+1065925997+1065257376+1063807110+1059875452+1056999479
887+1060707720+1066371828+1066674938+1065877881+1068119315+1068799966
876+1065272914+1061011206+1059985970+1060443830+1058346871+1056544876
864+1056412054+1053054789+1047754876+1047960312+1052400954+1050624334
853+1041801942+1034346553+1033466920+1038515975+1041196474+1038826729
841+1036580595+1033888443+1032544246+1033093828+1029066313+1024558759
829+1025167046+1022626825+1013513916+1005823207+1004271820+1007839470
818+1011021310+1006298484+994672921+988228734+994132298+1003041838+1002070420
804+996270169+997208068+1001292158+998998785+993666857+990647912+985133729
791+976746017+972735606+971791817+970221197+970542413+970238739+966175700
777+963337005+963010776+960644101+957977635+958087464+955564660+947790811
764+940495247+936727862+934600517+932747022+932430881+934190773+935148220
750+932643709+928775894+927888743+927664073+921759381+914391016+914006396
737+917986295+919459743+918269294+917784995+919434118+920591174+918207143
723+914892043+916102728+920085260+919027257+915398709+916458027+918342033
710+917124017+916033059+913863424+909502037+907209728+907704929+908087231
696+905802379+901099476+897430956+894377615+890275293+888075334+890269780
683+895370272+899896622+902834683+902662704+897052476+891377403+887804866
669+882128916+880256000+885965782+889062415+888779103+890673697+893718517
656+893763188+893029346+891045599+887780682+893217490+902813068+897423187
642+883935923+880858273+889009224+897429953+900895794+906686397+902542224
629+866332992+825089867+817356178+843597303+869513641+874680669+864510636
615+844307087+841979693+866978682+886412177+893705861+895820175+877891079
602+860845687+860982017
##END=
