##TITLE=Sample description
##JCAMP-DX=4.24
##DATA TYPE=INFRARED SPECTRUM
##DATE=25/8/2023
##SAMPLING PROCEDURE=Instrument type and / or accessory
##ORIGIN=Default
##XUNITS=1/CM
##YUNITS=ABSORBANCE
##RESOLUTION=4
##FIRSTX=4397.6552
##LASTX=599.8556
##DELTAX=-1.9287962
##MAXY=1.884181
##MINY=0.97038192
##XFACTOR=1
##YFACTOR=1.7547803e-009
##NPOINTS=1970
##FIRSTY=1.0349259
##XYDATA=(X++(Y..Y))
4398+589775212+588993632+588040381+588539764+589904491+590760935+590512025
4384+589088399+587139576+586539651+587610902+587555196+585583955+584640555
4371+586540874+589546207+590674048+589859519+589477797+589937711+589930306
4357+589508911+589608570+590340288+590975675+590880839+589674466+587249969
4344+585775053+587462670+589964680+590718816+590851355+590922346+590440694
4330+590225072+590238115+589313465+588017080+587090256+587015393+589385339
4317+593616949+596708151+596487706+593814909+592103719+593151466+595625555
4303+596769700+596007412+594856949+593382781+592109561+591320576+590303739
4290+590356592+592103379+594207976+594971826+593651256+592160444+592351271
4276+594323871+596562365+596811275+595348248+593368787+591548902+591388306
4263+592785301+594069594+594541871+593843442+592600045+592976128+594915033
4249+596207478+596401022+596179285+596425818+597185116+596894087+595683435
4236+595196144+596330914+598564856+599316274+597037020+593745141+592873412
4222+595304159+597039669+594987926+592734487+593331762+595098591+597134369
4209+598653103+597736673+595484728+594257364+594091129+594030396+594146971
4195+595391726+597547612+598760846+598637885+599358597+601788869+603035255
4182+600900564+598118530+597434230+598310240+600012734+601982481+603070241
4168+602365561+600767481+600489223+601917400+603489462+603555290+602013731
4155+600254240+599030340+598821307+600733378+603677979+604562004+603394218
4141+602016992+601124271+600860347+599973808+598199303+597028868+596661617
4128+597084166+598997188+601452867+601974397+600199281+598249642+598505890
4114+601239011+603462220+603515480+602806861+602277519+601632077+600730525
4101+600720335+602127860+603885381+605728499+607237178+606653489+604276817
4087+602451090+601971408+602129355+602072698+601852727+602324801+603611879
4074+605266004+606406549+606497105+606225437+605746705+604977285+605095626
4060+606128359+606221632+605233939+604482997+604434696+605297458+607048797
4047+608275414+607305452+605435703+604766961+605110300+606361508+608352926
4033+609781851+609601622+608160537+606933920+606391739+606264091+606749412
4020+607535408+607521957+606508586+605885563+606214363+607081745+608349598
4006+608909170+608179491+607690977+608161352+608500615+608247221+607850418
3993+607771819+608687637+610642371+612006894+610724639+607495463+605654179
3979+606112123+606763882+607019925+608166040+610197199+611644670+612351863
3966+613269040+613328754+611841746+610648077+610359969+611200924+613270535
3952+614065227+612103564+609554204+608795313+609422955+609921047+610017446
3939+610595361+612119596+613329705+612419457+610515878+610172064+611236046
3925+612898664+614512980+614883424+613535409+611156224+610565945+613063607
3912+615436951+615495102+614305441+611682916+607829699+607148592+610135379
3898+613041393+614993341+615056248+611531152+608963585+611444536+613734932
3885+612109134+610074714+609570983+611196509+613267342+613311770+612349349
3871+610809421+609475740+610876132+613150223+614909715+615804270+614825341
3858+611779790+605504589+597921929+601941177+611934408+618099625+619606469
3844+618255737+615735385+612535217+610348149+610856499+611896229+612946625
3831+614923505+616716963+617711246+618523873+617492091+614718548+615481447
3817+617694262+619638262+622766556+624644932+623540665+620652314+620018625
3804+621221057+620129969+618915241+619042277+619268294+621417251+623999831
3790+624653220+624734129+625153554+625175429+624734605+623765458+623666750
3777+625372302+626695589+625945325+623445217+621847681+621964663+622280692
3763+622800931+622685103+621821934+622279266+623046377+620899525+614347085
3750+611091347+615282197+619223661+619575831+620048176+620202930+616815740
3736+611072393+610862817+617579658+624726113+628693664+629171104+628767576
3723+629345423+629922998+630196568+630484609+629906422+626367603+622312417
3709+623883528+627752031+629915118+629984818+630614227+634398084+638043560
3696+638267606+635106025+629027424+623753434+626558905+633392457+637604366
3682+637532492+634447132+631040920+626808495+622637685+621137295+619917675
3669+620765628+624354242+626795655+626848916+626210608+626298922+625539487
3655+622973959+620106803+615157878+607026379+604181166+607855649+612037056
3642+613857009+613327871+611670009+609019699+606161375+604284154+600691599
3628+595658978+595758026+597855557+598041153+595181266+591953449+592101477
3615+591931642+589325489+587443717+586838560+586509828+586301406+584861884
3601+582031821+580134287+579287558+577775414+576939011+578012708+578330571
3588+574732717+570447439+569719662+570786362+571774258+572650471+572936474
3574+571472020+569129383+567210587+564450563+561471860+561692374+563051971
3561+563422314+563779035+564628788+564550766+562415531+559925104+558423151
3547+557102785+556770622+557872206+558379775+557676556+557145685+557340486
3534+557300948+556655779+555649133+554552304+553728366+553363526+554043818
3520+555821074+557580225+558273730+557521428+555786190+553897488+552993388
3507+553446372+553819262+553776090+554347177+555067210+555110484+554502440
3493+554139435+554761405+555568835+555760748+555690708+555341799+554358590
3480+553712300+554759672+556671811+557425302+557013010+556500788+556009794
3466+555582999+555298253+555285108+555670634+555916045+555944238+556291924
3453+556913725+557438481+557315826+556790628+557196806+557739700+557366403
3439+557856275+559529966+560800196+562097193+564014087+565071038+564729466
3426+564372065+563901316+563183593+563947851+565759550+566838240+567543429
3412+568843245+570253419+570503756+570121424+570985612+573044217+574505818
3399+575107985+576279507+577726366+578168956+578422214+579628858+581758114
3385+584113455+585924916+588293436+591556646+593131697+593798130+597654472
3372+603566567+606805050+607219787+607465232+608748506+612099895+617705404
3358+623823881+627978862+629199569+629852822+632707546+637729705+643018708
3345+647102698+650266793+653988491+658382259+661374481+662846000+664961466
3331+667292826+667681952+667486302+670426894+675169980+677380621+677962136
3318+679534741+681408361+682431040+682587084+682373024+682827707+684099635
3304+684761381+684312541+683661325+682923086+682095514+682358554+683409969
3291+682446801+679198060+677176275+677610034+677585306+675056870+671453241
3277+668997426+667984598+667203221+666489234+666014987+665127497+664078867
3264+663065631+661791325+660635495+659505141+658029478+656821136+656843622
3250+657932672+659235715+660259412+659963899+657931517+655814421+655233382
3237+655844924+656019786+655264020+654448811+653953233+653313974+652456510
3223+651807061+650650552+648729650+648094399+649078831+649278964+648475101
3210+648497044+649296627+649427672+648174017+646627431+646688164+648233663
3196+649622778+650715769+652969820+655901377+656128208+653312819+651605637
3183+652751548+654407236+654690249+653818791+652559566+651908894+652225874
3169+652873489+654434409+657329826+659439109+659249030+657802578+656548516
3156+656808160+659048624+660840792+659768114+657763041+657926898+659364653
3142+659066491+657766302+658699851+661759124+664376418+665126817+664091435
3129+663212504+664324449+665881904+666179659+666687602+668554361+670800327
3115+671854188+670625533+668161158+667257092+668663463+669991097+669648574
3102+669010809+669751494+671245227+671976333+672341886+673305123+673926244
3088+673771218+674676031+676448906+675915691+673228154+671943725+672974420
3075+675092603+677351002+678081021+676584978+674843353+674898923+676550603
3061+677890330+678194470+678490867+678785836+678844123+679362868+679925837
3047+680019314+680214353+680147166+679729440+679904981+679837251+678400922
3034+676549856+675758424+676780831+679170750+681953803+684110437+684649629
3020+684134825+684485433+686129164+686663262+685241403+684301400+684181224
3007+684178099+685669998+688585998+690419198+690301604+690566411+692224137
2993+693541786+694176086+694648159+694864189+695463435+697019804+699133639
2980+700693268+700980086+700947545+701541017+702374364+703148404+703609540
2966+703468849+703432368+704208718+705343420+705622969+704886904+704602736
2953+705119170+705219916+704760954+704349681+704142415+704729161+706403463
2939+707795771+707517852+706803390+708064450+711019172+713329404+713643463
2926+713201485+714093390+715048203+713795636+711137921+708684823+706909639
2912+705768415+705504152+705867124+706177310+706808621+707768529+708313767
2899+708856492+710095949+711351709+711456939+710628144+710008857+710066397
2885+710653551+711723444+713171322+714436593+715277481+715743440+715546024
2872+715197522+715409137+715789092+715895952+716218639+717394373+718735119
2858+719177573+718765077+718353533+718546534+718704344+718561343+718153332
2845+716936905+716074279+716840982+718456317+720035172+720961452+720831902
2831+720551063+720855068+721431420+722199958+722834054+722910004+723232079
2818+724227449+724735527+724543614+724525679+724857469+726183065+728242553
2804+729343492+729680377+730210602+730644564+730208088+729272501+729572430
2791+730892184+731637488+732400183+734100708+735904560+736922144+737173568
2777+737121870+737145783+737185796+737305428+738089318+739225719+739113084
2764+737906916+737690817+738620834+739263898+739324767+739436042+740133181
2750+741016799+741254568+741345532+742109178+742968680+743088651+742802173
2737+743338309+744813836+745887329+746445271+747008920+746717143+745602754
2723+745106224+745604384+746640921+747851709+748629146+748386690+747773585
2710+748423306+750550321+752457297+752674142+752110697+752584877+753734728
2696+754538455+755085664+755331925+754899525+754246407+754141313+753922837
2683+753535613+754299667+755898291+757131565+757655812+757647456+757583938
2669+757634141+757626261+757996229+759270468+760711281+761399588+761357469
2656+760893344+760485400+760679284+761495035+762571926+763886585+765009466
2642+764916668+764040931+763971095+764925772+765633576+765768629+766321340
2629+766839337+766258298+766129291+767231792+767218001+766242944+766901769
2615+768966148+770514092+770804239+770254652+769353643+768743936+769290465
2602+770620273+771621145+772216859+773128398+773928660+773527850+772958087
2588+773703187+774946040+775098416+774200872+773864463+774929872+776448741
2575+776939904+776004316+775000387+775205480+776424760+777992134+779061144
2561+778990153+778858768+780130289+781594268+780875933+778623581+777795669
2548+779603054+782153229+783297238+783349411+783126452+783006344+783489423
2534+783399546+782225714+781810026+782067836+781642229+781340194+782462736
2521+784687236+786333277+786483819+786530218+787451403+787916955+787482042
2507+787659757+788772924+789702533+789735821+788885491+787952960+787511933
2494+787558875+788610154+790191115+790874191+791027654+791348643+791623436
2480+792219421+792854264+793093800+793884076+794751322+794559952+794466339
2467+795334875+796031403+795649002+794942964+794573131+794144535+794088965
2453+795065381+796567334+797466849+796732482+794852136+793374367+793183812
2440+794564707+796560473+797497623+797915689+799047741+799852760+799340945
2426+798419623+798298565+799036736+799681294+799925993+800417359+801263342
2413+801780931+801549616+800866064+800504043+801438883+803666168+805368799
2399+805210716+804377166+804190211+804446458+804794213+804861331+804312968
2386+803574797+803014137+802230450+800895071+799418661+797849929+795740509
2372+793119003+790195055+787135103+782526594+776628834+773782942+773992926
2359+775202763+778516788+782769934+787158472+792435247+796202597+795919176
2345+793262820+791616642+789686501+787340535+788282237+791330912+792624783
2332+792796792+793877351+795143098+796403138+798540206+800068926+799870083
2318+800437196+802969641+805648415+807699819+809514880+811574300+813861503
2305+815133092+815280577+815495112+815807405+816209778+817326681+818016687
2291+817242036+816634434+817136059+818144947+819541059+821059113+822230635
2278+822912149+822670440+821298852+819776926+818841882+818721435+820143566
2264+822432671+823846649+824544332+825272449+825450232+825079788+825188143
2251+825650705+825656820+825351864+825375573+825845948+826213471+826412178
2237+826938938+827189071+826501443+826074410+826972566+828299997+828875466
2224+828867449+829242241+830548069+832101517+832767202+832732692+832520805
2210+831892348+831276866+831374215+831937592+832380658+832731944+833385877
2197+833996061+834056318+833524938+832392614+831543710+832246556+834007745
2183+835305897+836117776+837118988+837575369+837164232+837039505+837332097
2170+837352749+837565314+838629297+839897965+840444630+839904283+838567953
2156+838160348+839264208+840035667+840079756+840641027+841928649+842756425
2143+842066962+840452171+839264956+839560061+840763444+841534020+842611046
2129+844238542+845218897+845646610+845450077+844326584+843076802+842412475
2116+842702417+843516675+844088611+844922705+846331453+847346048+847363982
2102+847012831+847196593+847783882+848235915+848652079+848805270+848581700
2089+848568520+848503779+848339379+848582311+848440872+848129599+849025920
2075+849864702+848953299+847916625+848428372+848863626+848036937+848055279
2062+849287534+849366881+848548004+848867226+850571827+852112503+852187230
2048+851932002+852651151+853511740+853648831+853291294+852643950+851665429
2035+851051237+850987651+850650087+850887584+852684099+854617638+855637531
2021+856542888+857443693+857322838+856662927+856322782+855131559+853276144
2008+853143877+854935773+856887857+858315355+859363373+860171652+861000719
1994+861579924+861188013+860218119+859757118+859697880+859263917+858883351
1981+859658614+861109413+862244047+862652806+861810492+860369476+859449649
1967+859330696+860221447+861199290+861151125+860740056+860839443+861939023
1954+863926229+865171324+865029342+864711003+864529959+863650893+862365717
1940+861813481+861885627+862648662+864443751+866291624+867111928+866810776
1927+866007388+865511674+866001410+866874838+866407248+865538508+866133338
1913+866681837+866457859+867362332+869753406+871685858+872170635+871815815
1900+871473360+871137426+870663858+870986884+871746930+871212969+870576359
1886+871497680+872816551+873890045+874780320+875232149+875417202+875408846
1873+874462117+872023626+869414144+869588327+872631024+875844846+877717652
1859+878473689+878109903+877540344+878509966+879526871+878359560+875872156
1846+872960096+871526348+873595619+875950552+877667448+879808457+880505800
1832+878121519+874290448+873275310+874882697+876352110+878087484+880139975
1819+881943420+882920243+882801494+882135741+880915714+880163073+881492202
1805+883971386+884899773+883276965+881886151+882592869+883242047+881548791
1792+879463216+881398317+884899297+886295137+885987464+885836039+886078700
1778+886552268+886427405+884096045+880794995+881551237+885234891+888115294
1765+889301558+888185130+886113822+884968182+884698280+886485624+888113527
1751+885368993+880357160+879234279+880875904+881924059+881760473+881660339
1738+882425547+880927466+876277314+877390685+882664064+886139365+887771887
1724+888331800+888743004+887789482+882217398+876209720+878951469+884646243
1711+887779700+888118826+885449291+882175686+881622839+878880139+872967841
1697+872326611+877016165+882906724+885122189+883550875+881225289+875138129
1684+867168653+872172809+881075902+884434357+882264000+879979243+879194469
1670+876115292+875348249+879012950+880574549+879117908+879028099+880921828
1657+882320250+879087066+867745752+864053402+864540557+861965857+864035467
1643+869928404+872413023+870473167+863821000+856667615+859824169+866921169
1630+870579076+870062778+868311642+868891527+873198205+876860188+876410737
1616+876338251+882100959+887598520+888250618+887437040+890628921+895386001
1603+897114038+897803637+900475482+903625379+905691932+907087501+908769479
1589+910922988+912641175+914080018+915559892+915929386+914421794+911062932
1576+908891692+911584325+914405490+915057045+916818982+919254620+919521873
1562+917085147+906675684+891563013+898163823+910168512+916633318+918054905
1549+917751648+917161505+914399919+908077299+899459121+902961460+916403769
1535+923333515+922501663+922893642+926458888+928003707+926491632+921596714
1522+914545502+913839803+918272906+923989486+930122094+932428522+929551924
1508+922569257+919911882+928845274+935997029+937615828+934861715+932598697
1495+935782968+939567845+938607393+935290447+936790294+941855523+946104253
1481+947576655+946081223+941434196+934674897+928467629+927126136+931217326
1468+934459002+934059890+933343118+934655603+934261450+927310169+919613040
1454+922880259+929674545+934223883+936765498+940050244+943601835+946541272
1441+948416795+946770889+942199405+942216592+947104785+951497059+954015645
1427+954449132+952469467+949980228+947163548+941736299+939622532+943458494
1414+946262879+946417700+945192374+943636074+941592618+938448428+935668500
1400+932365751+927892703+924745116+923264222+924229497+926443874+924664682
1387+918614614+915405071+916037129+916888071+916331963+914799711+913819762
1373+915318455+918833769+920907931+920326144+917988262+914140683+912391450
1360+914932793+917987243+919936950+920659428+919937493+919307337+919958824
1346+920753584+919836951+916869525+913859708+913781516+916348335+918869230
1333+920759766+922974552+925339063+926434839+926169828+925439809+924451573
1319+923820058+925037300+928526188+933212141+937958352+941270611+942449606
1306+943819156+947729506+953437187+957286057+956934363+956395510+960000429
1292+965667282+969002638+970108401+972961222+977172792+978784798+978456337
1279+979080719+980310800+981106376+982007317+982410709+981600120+981352365
1265+982582582+983477681+982513629+981391155+982502420+984706200+985563663
1252+985242471+985752995+988040130+991965697+996063070+997275964+995535698
1238+993676072+992793881+993256852+995457846+997153547+996158518+994521240
1225+994480004+995496229+996554369+997942261+1001037607+1004388453+1004455640
1211+1001835085+999714388+999818667+1002492142+1005539935+1006464788+1006005283
1198+1004522011+1002482836+1002089090+1002752534+1003518490+1005203593
1186+1006949837+1007749760+1008133044+1008644452+1008988877+1009001241
1175+1009185071+1009773651+1010963176+1012881497+1015015848+1015944710
1163+1014600227+1013247321+1015248386+1019079729+1020697238+1020581479
1151+1020443573+1018666419+1016595722+1019155204+1024467101+1026322719
1140+1025688215+1025568855+1025868037+1026349893+1024838972+1020939763
1128+1018981972+1020879709+1024087146+1027024953+1028958695+1028468619
1117+1027338469+1027376919+1027884658+1028573713+1027744714+1024932109
1105+1023385795+1025190531+1028684038+1030288843+1028665831+1026676248
1094+1027630177+1031391005+1036264863+1039324272+1039123799+1039995936
1082+1042287554+1042102366+1041023166+1041755903+1045994307+1052409181
1070+1055005211+1054200737+1054235791+1053056660+1050952200+1052294848
1059+1055402354+1056358797+1057532153+1061578440+1063558784+1059773636
1047+1056354789+1057437793+1061186732+1067521512+1072846385+1071079760
1036+1066240616+1064381262+1064599262+1063578825+1059008699+1055021991
1024+1057171695+1062416881+1065245994+1064488326+1061938082+1060575869
1013+1061266011+1061782717+1060007669+1057078558+1056248540+1057839691
1001+1058190094+1056227277+1054706030+1054569686+1054748693+1053635118
989+1051717001+1051636499+1052293897+1050687461+1048200396+1048619209
978+1052548445+1056649351+1058398991+1057866525+1055799292+1054083686
966+1054508138+1055740937+1055680611+1055204462+1056363892+1059361888
955+1062014440+1062375917+1061484895+1059878730+1056318512+1053283627
943+1054304812+1057877802+1061585709+1063944718+1063745195+1062415998
932+1062041750+1063371354+1064579765+1064223043+1065642661+1068972447
920+1068879106+1067334490+1070469781+1073545426+1070210680+1065395449
908+1064077393+1065345110+1066508480+1064813322+1061048418+1059864328
897+1062201870+1064768282+1067501200+1071046337+1073741823+1073500318
885+1068807775+1062371841+1056927744+1050995338+1045253690+1044155944
874+1046126778+1045095539+1044252478+1047571259+1049266892+1046025760
862+1042189797+1039884592+1036591830+1032308997+1030185719+1030029267
851+1029446054+1028151163+1025268926+1021401374+1021281199+1023996794
839+1023320646+1018890261+1014159607+1007573879+996618567+986686341+981967304
826+979177593+977215794+979425416+985962639+991640905+993373223+991768621
812+987706913+984054644+983012333+982985635+980501627+975144690+969994000
799+965103973+959564564+957218259+959625501+961768888+960029029+954840025
785+948769101+945359016+946433597+951343257+954986626+951439519+942420326
772+935511232+933062347+929558513+925005779+924251100+924083235+919694561
758+914142109+912319711+912615020+909443045+903275043+899326582+898778694
745+900381190+903359077+904286513+901235052+898811574+900646132+901954949
731+897334416+891254253+889604000+891071171+892579510+893343836+894008435
718+894951427+894381256+892339431+891224294+889377848+886485489+885663555
704+885540934+884710508+883754065+880565989+874199892+868244048+867340865
691+870946396+873552956+871112902+865101556+862607766+865830420+865351485
677+859762825+860485507+865932797+862257294+850067485+848788355+859639457
664+865060864+863744098+862198667+863577796+861351666+853068810+849289504
650+852060669+853762280+853644415+852626831+848788559+844453824+842914439
637+838780382+825279038+811251274+811056031+822151084+829372335+825138958
623+817833333+813509129+808327190+806700102+815747012+826986017+829107460
609+825240180+828071263+837353836+836624292+824008672+813688203
##END=
