##TITLE=Sample description
##JCAMP-DX=4.24
##DATA TYPE=INFRARED SPECTRUM
##DATE=25/8/2023
##SAMPLING PROCEDURE=Instrument type and / or accessory
##ORIGIN=Default
##XUNITS=1/CM
##YUNITS=ABSORBANCE
##RESOLUTION=4
##FIRSTX=4397.6552
##LASTX=599.8556
##DELTAX=-1.9287962
##MAXY=1.7871283
##MINY=0.30354941
##XFACTOR=1
##YFACTOR=1.664393e-009
##NPOINTS=1970
##FIRSTY=0.45040977
##XYDATA=(X++(Y..Y))
4398+270615042+270290248+269759341+269337605+269081641+269585475+270637084
4384+270914982+269930341+268640889+268137933+268372033+268545791+268618113
4371+269079546+269593318+269610024+269425272+269481961+269623095+269499151
4357+269122216+268677936+268404085+268406717+268393359+268335649+268444301
4344+268460273+268006432+267399174+267203141+267040055+266746489+266909181
4330+267175835+267206633+267367982+267452731+267197429+266770555+266325989
4317+266157012+266497276+266778559+266159178+265042303+264781952+265479885
4303+265853633+265809191+266095738+266284805+266042200+265849479+265845737
4290+265754149+265463609+265345198+265489518+265450305+265488140+266013228
4276+266405276+266251554+265991830+265792073+265413472+265047531+264878894
4263+264298262+263359711+263169694+263782288+264289417+264280804+263845316
4249+263271256+263033520+263371636+263845084+263967774+263705794+263129102
4236+262564406+262424239+262537296+262587522+262564495+262406226+262250230
4222+262481376+263032732+263471711+263479572+263049421+262499139+262156475
4209+262182510+262457007+262587379+262396574+262171194+262214168+262043024
4195+261140696+260401938+260647247+261222561+261321742+260955765+260671241
4182+260771979+260985703+260835258+260338784+260140369+260183343+259898838
4168+259668300+259914058+260093689+259899805+259811260+259875095+259740873
4155+259626526+259623948+259293352+258673650+258314584+258337701+258337253
4141+258114702+258094217+258436380+258527878+258245146+258025763+257803839
4128+257452133+257318287+257528716+257670243+257696493+257837108+257766559
4114+257378522+257117580+257049252+256897231+256653945+256363530+255880754
4101+255457603+255658578+256392251+256845125+256579260+256133226+255961491
4087+255772620+255548010+255704596+256108390+256161588+255649052+255015401
4074+254915451+255344492+255649231+255610573+255438122+255173635+254893624
4060+254604910+254205073+253900155+254002594+254432764+254763967+254767208
4047+254430704+253849195+253482591+253568682+253828872+253854441+253300829
4033+252513797+252190776+252212281+252188716+252219783+252176433+251931553
4020+252030375+252587139+252972938+252925183+252648878+252295310+251928509
4006+251692654+251549479+251323597+251048348+250983476+251380591+251689502
3993+251099022+250249444+250132591+250285077+250277771+250456955+250490367
3979+250200920+250134364+250116261+249788119+249555021+249649904+249610242
3966+249155918+248682506+248620552+248893043+249167217+249253809+248941639
3952+248063215+247126186+247162839+247693389+247126974+246108526+246399729
3939+247291367+247304564+246351508+245243228+244936411+245419976+245501018
3925+245034840+245085943+245153340+244502876+244432130+245690676+246982062
3912+247539022+247164272+245139642+241511475+238689518+238790059+240772807
3898+243332175+244692212+243671293+242022597+242531015+243350743+242317184
3885+240765483+239993527+240472401+242477154+243346124+241913193+239447221
3871+237576206+238265114+239823780+239446218+239362240+241070616+241695404
3858+239787127+235452647+231461672+234873376+240581465+243433146+243033560
3844+240252822+236846060+234306477+234117088+236312968+238169515+239250472
3831+240449499+241120323+240812235+239596806+236705249+234146238+235241985
3817+237446389+240097847+242665273+243349150+241888500+239753446+238696913
3804+237278539+235833307+236889392+238478641+240104167+242222999+243716488
3790+244241003+243730060+242348358+241519873+241439977+241061484+241516722
3777+243056049+243659529+242548061+240644332+239841435+240244639+240892417
3763+240925185+239428921+237633576+237247473+236463610+233164623+229050725
3750+229654957+232452330+233616208+234977982+236799791+236632050+233911618
3736+230571108+231058397+235364532+238853858+239519596+238364796+237917849
3723+239152312+240983898+242603963+243355900+242522528+240726538+242508060
3709+250234762+259679581+268982317+279479695+293163502+307246806+318363922
3696+326365138+330765672+331346179+330290631+330648532+331475208+330624539
3682+327147407+320681973+311664101+301666923+296313816+294759054+291342731
3669+288490709+287724519+285873129+282652910+278936181+274739469+269971918
3655+265845182+262055827+255984536+249139606+248832467+252103950+253762280
3642+253005616+250838027+248397463+245809499+242927450+239470534+234607152
3628+231518971+232599480+233088219+230894935+226829580+224067481+223587176
3615+223069787+222362095+221620257+220441767+219818394+219699804+218665582
3601+216895412+215392075+213798027+212044618+211174646+210382850+207891058
3588+205242268+205664648+207217656+207580428+206867526+205807179+204558230
3574+203162238+201691687+199356338+195693470+193460041+194590203+195917418
3561+195876234+195607647+195707938+195170226+193777726+192569119+191491797
3547+190399417+190112763+190438075+190564186+190333559+189905861+189430103
3534+188860967+187829323+186286915+185246390+185241806+185575624+185967547
3520+186459903+186802549+186838200+186367635+185232943+183953751+183413246
3507+183431904+183126198+182876465+183343449+183737646+183644858+183610353
3493+183756321+183683678+183381015+183341300+183421178+183040124+182743514
3480+183166396+183573843+183371310+182796498+182393133+182786847+183725774
3466+184100453+183502489+182656922+182378451+182727632+183307333+183665360
3453+183570495+183235799+182882070+182741509+183155957+183952551+184455973
3439+184365603+184253638+184546273+184883582+185148553+185665171+186241470
3426+186355727+186041140+185863443+186299754+187283285+188403168+189366215
3412+190082699+190650976+191295943+192215371+193472665+194823014+195758593
3399+196321588+197133957+198336888+199763481+201214569+202448297+203719790
3385+205420145+207615327+209916081+211889249+213824707+216117082+218793214
3372+221865674+225148366+228385542+231574318+234760981+238220171+242248497
3358+246495990+250694816+255131932+259705347+264051233+268385105+272968619
3345+277547925+281937895+286467387+291294994+295583026+298853793+301983211
3331+305303416+308179091+310497501+312747546+314966328+316608363+317864564
3318+319613318+321607203+322969872+323891986+324989505+326421076+327800934
3304+328328619+327850103+327067547+326178488+324599481+322052521+318821559
3291+315343496+312049112+309063029+306140226+303117187+300055470+296849290
3277+293408400+290299914+288047164+286309494+284753389+283388947+281939166
3264+280227137+278481982+276819713+275402450+274662509+274445813+273863444
3250+272660334+271345331+270184998+269222202+268510589+267989422+267479661
3237+266715888+265531382+264115873+262664481+261234200+260342347+260237365
3223+260114424+259515205+258837685+257962234+256721915+255923960+255759388
3210+255558592+255302431+255029815+254453319+253629132+252787935+252070019
3196+251630610+251660889+251971035+251952395+251570070+251323686+251096676
3183+250605770+250161616+249963685+249783804+249492691+249347063+249548270
3169+249845758+249968323+249850700+249443145+248856228+248482982+248670062
3156+249139874+249150385+248640642+248254235+248094658+247924750+248024736
3142+248508372+248827310+248678262+248394312+248286179+248263707+248153443
3129+248011987+247910192+247801790+247695913+247655374+247740570+247942888
3115+248075821+247981404+247806141+247675411+247501904+247347878+247242663
3102+247039235+246871708+246929186+247004856+246887340+246679006+246498730
3088+246333871+246170463+245980177+245704840+245452923+245414765+245391667
3075+244972384+244290727+243805319+243430836+242912785+242480700+242236214
3061+241923077+241584836+241395034+241198338+240902678+240607428+240312394
3047+240068982+239986938+239975819+239800914+239517268+239360342+239089051
3034+238470870+237862663+237519050+237412367+237563439+237719416+237541003
3020+237193487+236991276+236934461+236833025+236604188+236451559+236491167
3007+236531115+236549844+236677244+236875336+237201759+237674903+238044443
2993+238247943+238454970+238790274+239327574+240035302+240798519+241481179
2980+241913425+242042347+242043547+242052554+241976687+241695780+241280114
2966+240909159+240626462+240323478+239870335+239257849+238707567+238544069
2953+238680762+238668747+238650698+239011877+239422744+239347611+238792996
2939+238281104+238031927+237718074+237322462+237138480+237145284+237020355
2926+236607232+236077882+235524324+234883690+234258024+233785024+233424616
2912+233314405+233610693+233912657+233904546+233822573+233776573+233702317
2899+233658018+233587720+233435861+233254922+233015933+232815603+232801081
2885+232842909+232773130+232649115+232603831+232628881+232633966+232566318
2872+232429840+232278142+232065904+231733805+231455477+231401688+231448028
2858+231434026+231397265+231270277+230853859+230172596+229435539+228956594
2845+228947480+229230750+229598930+229967002+230227782+230459627+230803974
2831+231083197+231042210+230908723+231089374+231479130+231720752+231732963
2818+231649522+231604453+231731656+232091617+232474479+232597868+232463127
2804+232274077+232197208+232359506+232783122+233231000+233416666+233360638
2791+233314674+233345275+233320476+233256355+233295515+233430722+233501127
2777+233479264+233516419+233657499+233769052+233813226+233888860+233911045
2764+233811740+233810271+233966553+234112360+234217611+234277971+234287855
2750+234375719+234554366+234695589+234728446+234629427+234532538+234637055
2737+234892768+235116734+235293088+235526204+235831606+236082896+236181378
2723+236266019+236443537+236570239+236676778+236931345+237199217+237311307
2710+237353511+237397720+237383288+237318416+237410559+237723678+237986643
2696+238131143+238256645+238260548+238175173+238174994+238270773+238370096
2683+238385961+238360176+238432928+238521114+238428129+238266350+238279904
2669+238452141+238544606+238488991+238510800+238715571+238958643+239105434
2656+239152760+239070142+238818583+238590177+238503996+238480235+238595441
2642+238906250+239157379+239111433+238940755+238864834+238815557+238800319
2629+238864601+238873590+238899410+239145615+239469764+239624453+239593601
2615+239568300+239791836+240241075+240618620+240744515+240806971+241001643
2602+241149008+241109776+241060482+241130028+241202654+241183441+241190585
2588+241294009+241412617+241473372+241472244+241444024+241409197+241440837
2575+241534395+241523150+241364880+241167523+241006299+240933350+240972188
2561+241026335+241006012+240978419+241020534+241123922+241216191+241211356
2548+241105873+240974480+240905560+240937164+241038672+241124423+241199950
2534+241336929+241393458+241295460+241237355+241310465+241507823+241771593
2521+241961556+242066055+242122064+242140883+242189927+242241066+242289734
2507+242527040+242963942+243270901+243265154+243202286+243306892+243412214
2494+243401918+243446056+243622966+243793465+243830315+243799481+243865625
2480+244020170+244156577+244270816+244355940+244423356+244506349+244515947
2467+244441745+244422568+244492293+244578295+244584580+244487656+244430124
2453+244416068+244325626+244315760+244466294+244605548+244733879+244853275
2440+244885863+244938453+245088002+245223334+245268940+245264536+245264536
2426+245311592+245432546+245643476+245908984+246057423+246009292+245979443
2413+246183820+246569369+246894341+246997586+246980970+247044464+247241786
2399+247468187+247653297+247843708+248003929+248038649+248031253+248105455
2386+248086779+247611559+246524497+244896643+242829899+240474138+238089118
2372+235832179+233570315+231273948+229233526+227726375+226901364+226717847
2359+227064755+228179302+230406590+233822591+237511852+239457535+238669088
2345+236296996+234561671+234266458+234743738+235484090+236333255+236981535
2332+237329750+237814156+238674513+239714859+240781563+241998084+243410298
2318+244813649+246074738+247175946+248173050+249187379+250267100+251333821
2305+252201161+252796458+253308009+253861049+254392672+254853121+255249752
2291+255625810+256002889+256388169+256763922+256999993+257048016+257056056
2278+257154663+257390178+257715241+257945886+257998851+258029524+258168849
2264+258343574+258448985+258566752+258788551+259008489+259150070+259240369
2251+259296647+259422435+259724435+260083590+260280267+260322006+260375813
2237+260451393+260482639+260569876+260816081+261101822+261312323+261496932
2224+261674880+261802298+261873474+261918758+261966083+262063848+262212592
2210+262356340+262551316+262781335+262956113+263148995+263344025+263433447
2197+263468506+263567776+263755769+263928901+264037070+264192116+264463085
2183+264687105+264706783+264670184+264754753+264908672+265015945+265057612
2170+265144008+265323961+265523396+265760738+266008751+266132910+266191033
2156+266310626+266475055+266633987+266783715+266994413+267248228+267369683
2143+267388198+267501309+267695337+267894754+268105326+268299139+268476872
2129+268679620+268927561+269220841+269471522+269545169+269478613+269473492
2116+269668862+269995357+270240327+270326328+270347690+270432850+270724572
2102+271169567+271562045+271939983+272412428+272884784+273380506+274084205
2089+275028988+276117680+277257081+278353615+279245075+279855520+280310399
2075+280684917+280998216+281330655+281622985+281770153+282060711+282745985
2062+283392313+283667168+283828177+284064946+284305331+284533648+284839838
2048+285188697+285436406+285530394+285626888+285937733+286286234+286417000
2035+286512994+286772503+287067000+287278467+287446048+287510545+287438563
2021+287344612+287241814+287231984+287533554+287996115+288326567+288552502
2008+288840697+289196091+289498324+289701984+289933847+290336316+290680430
1994+290641145+290606067+291076972+291808246+292590569+293432519+294264388
1981+295103920+295965763+296845691+297818639+298935605+299925367+300573307
1967+301492627+303211694+305133418+306807362+308343860+309647225+310731888
1954+311816121+312818954+313460377+313637752+313338402+312726453+312717142
1940+313620347+314352051+314517823+314489209+314454830+314405840+314356885
1927+314138864+313462848+312799724+312525227+312342158+312699773+313487021
1913+313611001+313011764+312611605+313038086+313760443+314081100+314168445
1900+314312622+314283328+314137647+314212350+314103948+313908058+314559937
1886+315564741+316075164+316267759+316431167+316667596+316855034+316784986
1873+316033443+314245440+312815696+313876007+315971597+317124624+317507880
1859+317766297+318163054+318693854+319106333+319107371+318556553+317419175
1846+316105246+316324377+318310204+319610489+319810032+319926348+319727128
1832+318200585+316340063+316240506+317045230+317979340+319322707+320229637
1819+320465707+320600502+320491921+319677600+318997107+319536789+320541520
1805+320795962+320001624+319076179+319306771+320012797+319628861+318410978
1792+318974976+321862361+323858466+324211354+323936535+323533619+323474171
1778+323841241+323311945+321236338+319641538+321309465+324384682+326582550
1765+327159046+326754088+327012899+327460723+327548641+327774971+326892393
1751+324474068+323133137+324295225+325802429+326544984+326963550+327703526
1738+327926704+326266763+324793007+326919180+330016278+332478651+333687222
1724+333688654+333012638+330703288+326502690+325169029+329218788+333015396
1711+334425121+333633397+331538416+330120454+329449559+327782133+326133687
1697+327080726+331211026+335119723+335833557+334659687+332580069+329194795
1684+327941960+331701001+334929814+335937626+335391283+334771025+334053503
1670+333690266+336496789+339657560+340201431+340373828+342406318+343825355
1657+342289286+337858347+336186337+339828632+340006580+339786589+344760003
1643+349632427+351128852+349898543+347114224+347996157+354543063+359188262
1630+361253771+363088795+365308150+367838242+371601258+374390877+374860690
1616+376746890+381302524+384352280+385501332+386348528+387669834+388970370
1603+390111544+391354924+392285310+392466446+392535992+393204524+394156254
1589+395189885+396320387+397189751+397729826+398020616+397292566+395421014
1576+395975557+399281365+400553108+400957458+403504596+406435851+407939833
1562+407122647+403065295+402468888+410409153+416899870+421444904+424876268
1549+428101787+429713347+428591583+426441989+427755990+439252458+449561376
1535+454331021+459595333+467043116+472458516+476218811+480436455+484340103
1522+490210061+499652839+508672860+518413806+528099387+534856256+538090513
1508+540238817+552734645+570023038+579992032+586784462+593917031+604571925
1495+616716011+624740326+629802660+637978744+651112306+663309536+672368950
1481+680293064+687918580+694342831+699966118+707495301+720807921+735383617
1468+746540018+756934490+769495997+779919691+785124484+788156369+797044532
1454+809112769+817930884+824891092+831702681+839327051+847571321+855335858
1441+861581408+865352732+868147473+873224919+879154324+883870932+887835711
1427+890163038+889485267+887901747+885558090+878511147+870213805+866783622
1414+864188424+859793619+855251557+851476795+847174814+843326710+841499600
1400+838758864+833797948+828885021+825364737+824460349+824127874+820964059
1387+815714573+813629476+816411826+820521713+822233152+820807490+818292367
1373+817486175+817873084+817785489+817714152+817009666+815075550+814688283
1360+816114088+816277747+815405018+815532865+817331326+820070200+822846032
1346+825213540+826844688+827138272+826235174+826276000+828917968+832969768
1333+836134014+837079512+837403250+838891510+840515640+841498597+842064135
1319+841871325+842594434+846217641+851205844+854981681+856490067+857286160
1306+860517444+866241577+871279845+874659963+877972110+881557572+885216304
1292+889683305+894796062+898764063+900534519+901142028+901588742+902011534
1279+902561959+903343441+903667680+903028800+902455670+901828609+900263711
1265+898866556+898252888+898309613+899195665+900237282+900997922+901289070
1252+901100200+901397723+902535960+903833416+905571140+908073944+910165487
1238+911354720+912304230+912675883+911839681+910972825+912009500+914097104
1225+914159273+912188129+910541509+909322123+907751281+905744683+902920362
1211+899189147+895205245+891879705+889357204+886230991+881316989+876430347
1198+874070217+873199994+871887712+870231352+868018479+865172600+863228959
1184+862578548+862305806+862726092+863536079+863339760+862229241+861331443
1171+861517305+861989160+861631330+861705889+863243355+865422851+867242369
1157+868344580+869075639+870115108+872306637+875054822+876751005+878258603
1144+881474990+885881828+889504175+891427690+892806080+895178172+898080061
1130+900396859+901895290+902288072+903043053+906361288+910635121+913355373
1117+915063875+917270087+919985111+921752129+922662676+923889798+925466871
1103+927641568+930021753+932220875+934979374+937937057+941317032+946266201
1090+950833904+953121838+956502959+962752233+968855612+974205728+979050327
1076+982482944+984752399+985862847+988027947+993267907+997974129+998990965
1063+999473419+1003746894+1011770708+1018884762+1020506958+1019035171
1051+1019026863+1019147763+1018112520+1019616967+1025850341+1032797155
1040+1036129357+1036940777+1037067407+1036841006+1037600069+1040369455
1028+1043528758+1044171649+1042479262+1041170275+1041594643+1045174661
1016+1051154060+1052008024+1045276223+1040613547+1042144209+1043871476
1005+1043801571+1044610270+1046745503+1047783396+1045662058+1043999610
993+1045679391+1046833313+1045591294+1044295557+1043718202+1043135475
982+1042470667+1042879636+1044624594+1045978848+1046674166+1048264203
970+1050253826+1051435467+1052989979+1056024443+1059032478+1059670641
959+1058798556+1059774853+1062831233+1065302881+1066496985+1067555004
947+1068167598+1067584871+1067552497+1069157646+1069042404+1064727603
935+1060633043+1061274573+1065171739+1070409979+1073741823+1070700412
924+1065669091+1064347068+1065294501+1066413329+1067947356+1069440415
912+1068817221+1067618247+1068215657+1068818080+1069348379+1070746466
901+1071470792+1070355259+1069089031+1069798818+1070762724+1070585886
889+1070498148+1069574637+1067926442+1068313423+1068336342+1063692217
878+1056876473+1050954947+1046265699+1045129181+1046524259+1043020448
866+1034529078+1028659335+1025460925+1021306632+1016944057+1012968177
854+1008192910+1002209715+996194076+991495732+987596417+982059006+974161608
841+967065029+963409019+961741987+958828209+952661444+944503480+938285361
827+934851956+933130347+933771662+934500716+932944915+931133490+931054991
814+932810406+935040683+935789004+933596758+928613067+923941438+921500015
800+919479451+917222959+915760698+913452065+908158674+902039324+899034584
787+898852303+898192008+895606837+891146784+887045276+886285210+886335991
773+883045546+878727951+877153671+876771561+874575090+870402030+865285693
760+861296706+859785956+858041141+854151352+850716944+850242798+852428382
746+855081380+855911423+853803191+849868065+847334463+848383815+852143751
733+855256356+855549940+854375031+853309349+853755991+855732006+855873964
719+854335925+854095343+854506030+855004385+854109237+850166447+846034070
706+843019017+840509337+839178290+838373530+836578436+833310409+830494969
692+830501630+832470697+832485738+828944468+825714258+824439793+823289595
679+823306856+824502750+823344530+820210940+817174686+812607770+809435503
665+810763829+812518313+816525779+823780071+827863028+825576312+820926027
652+814611575+807044718+805661672+811152600+813607560+807757871+798827450
638+795214915+800715583+812825720+819552794+809273133+790959919+781349865
625+784089527+788108095+781224596+767295013+763137568+773485413+781273371
611+778045167+773414721+772445157+772663321+769807916+764690146+762579909
##END=
