##TITLE=Sample description
##JCAMP-DX=4.24
##DATA TYPE=INFRARED SPECTRUM
##DATE=25/8/2023
##SAMPLING PROCEDURE=Instrument type and / or accessory
##ORIGIN=Default
##XUNITS=1/CM
##YUNITS=ABSORBANCE
##RESOLUTION=4
##FIRSTX=4397.6552
##LASTX=599.8556
##DELTAX=-1.9287962
##MAXY=1.970319
##MINY=1.1329092
##XFACTOR=1
##YFACTOR=1.8350026e-009
##NPOINTS=1970
##FIRSTY=1.1978481
##XYDATA=(X++(Y..Y))
4398+652777323+655845772+658263541+657205081+653659795+650822618+651069287
4384+653573328+654667908+652385784+649785921+649803461+651074029+652390786
4371+653207515+651844438+649986790+650690611+653981887+658424262+660952145
4357+659340386+655983691+654340489+654848768+656417846+658105353+658885507
4344+659143285+658888885+657551079+657050726+656348984+653978509+653066218
4330+652745230+650369298+648127972+648610395+652429960+657516973+660220259
4317+660074090+659863347+659718217+657190529+653626468+652159319+652746984
4303+653660250+654156640+654715786+655555447+656003050+656694138+659044344
4290+660978715+660561256+659160695+656557194+653007231+651366692+652473875
4276+654564420+656328910+657705824+658553411+658294788+657154474+657025520
4263+659083128+662410524+665650478+667426402+666631956+663437282+660189401
4249+658955084+658870630+658202994+657533929+659239756+661604709+660771999
4236+658765583+659062274+660561776+660957342+661237012+662674018+663142215
4222+660823516+657187800+655161830+655586565+657539776+659882251+659872507
4209+657138817+655630156+657543024+661138072+663266296+663090828+662612108
4195+662661675+662506671+661905688+661667595+662771854+663609241+662212383
4182+660027706+659000104+659219163+660079287+660828258+660701513+660109431
4168+659856850+660008282+660394688+660315302+660351682+662083495+664703302
4155+665783200+664981023+664170856+663023590+661029257+660552161+661869698
4141+663298128+665023250+667481102+669230780+668896799+666999263+664574283
4128+663296764+664341777+665316563+664872923+665770142+667307193+667081053
4114+667736995+669920634+670100389+668258332+667661377+668754463+668861719
4101+667255806+666270431+667860167+669410600+667494030+664997589+665031630
4087+666423486+667903238+668966051+669280347+669455880+669630634+667662222
4074+664100955+663417987+666528273+669930378+670284627+667743882+665657884
4060+665985109+667531449+669427166+672312677+674789693+674427193+671411949
4047+667685284+665410631+665189103+666435440+668681054+670316460+670185557
4033+669385264+669180563+669461532+669483815+669367789+669847029+671183406
4020+673210416+675239894+675778576+674130957+672310273+672354449+672802961
4006+672102583+672150526+673451108+673183326+672063604+673492555+675818789
3993+675758632+674297655+673580906+674490403+676121912+675859846+673517696
3979+672286431+672910541+673448769+673822442+674457596+674846926+674664052
3966+674306165+675593624+678709107+680690772+680259865+679144236+678557675
3952+677815396+675951901+674175132+674961718+676940459+676543918+675169928
3939+675811708+676869713+676100084+673480926+671136177+671967263+674380159
3925+674912540+674885645+676140751+676622720+676030247+677130739+680175411
3912+682116149+680716952+677715676+675519305+673695308+672449166+673087439
3898+674708942+676506824+677770376+677604782+677793568+679878980+680097000
3885+677026342+675434721+675706206+677893418+680738780+679961745+676640975
3871+674312791+674164478+677443021+680867994+681684008+683162331+686144638
3858+687297296+683870245+676064158+676064613+683062481+687914714+688612039
3844+685043691+678569434+671430074+666597590+668233711+673275964+677387737
3831+680884754+684027718+685048498+684395090+682590192+679227066+678880677
3817+680648025+682211256+684436861+686223244+686416642+683346764+679069463
3804+676583287+674836077+676267756+679920817+683679120+687941350+691738826
3790+694182581+694735685+692558153+689209969+687650311+686900560+686750168
3777+689209514+691478580+690620924+687981563+686629725+686614068+686989041
3763+688321779+688661217+687110979+686455881+686001262+683767926+680174827
3750+680169630+684648969+686730744+685647727+687021003+688552727+686764590
3736+682337352+680800106+683823665+687887949+691199559+691867910+689698239
3723+688466520+690306693+693816898+695988258+695596849+693455437+689997398
3709+688650563+691331696+694466864+694521498+691802621+690461697+692584464
3696+696454765+697956085+693824888+686826696+686211291+690751502+693343050
3682+692001021+687879114+682799311+679172236+682838420+689603911+689499189
3669+684631039+684915907+687614126+687584632+685878870+685725100+685193368
3655+682541404+680681547+677684363+670405136+667743492+671948683+676011862
3642+677083900+675853350+673820428+671449239+669634597+667956379+662003264
3628+655152930+657316819+662112014+663543173+660463940+656462736+655651009
3615+655515235+655057433+653808043+649379505+645996825+647678745+649187796
3601+647123497+645636599+646355232+646050615+644877104+644403061+642468884
3588+636878074+632309019+632220733+634094297+635282166+635310360+635595423
3574+635754520+634587310+631806522+626929017+622159873+621205940+623156422
3561+625611026+627177635+627849559+626985146+624588751+623214500+623249776
3547+623010578+623328837+624635005+624845359+623511906+622329169+622587791
3534+622902088+621688428+619975520+618981829+618489076+618138335+618971955
3520+620845259+620967782+619395196+618690335+619283587+619626143+618489726
3507+617388325+617615114+618788886+620737744+621787434+620551817+618731328
3493+618103385+618387992+618479137+618141778+618639988+620620484+623315714
3480+625278734+624908894+622478587+620121234+619165028+619438722+620014239
3466+620096873+619896913+620031454+620036132+619581058+620216342+621808352
3453+621894040+620900349+620573904+620301770+619644853+619514015+620529924
3439+621901770+622175464+621910346+622961660+625535213+627367395+626162831
3426+623276151+622401214+624754344+628109090+630445134+630994665+629441959
3412+627628875+627849299+630133112+632844128+634409308+634353309+633755640
3399+634569770+636051211+636555787+637906326+640695429+642544503+643292694
3385+645661415+650567309+654566174+654974928+654017357+655368091+659324794
3372+662510569+662273515+660460302+661969223+667195520+670836887+672121357
3358+675045976+680214325+685344605+688448784+690183910+693477200+698050023
3345+701650009+705545191+710989183+715700509+717607075+717155120+715433702
3331+714277795+716667175+722376285+726935595+727798708+727700028+730331463
3318+735298294+738801807+738197057+735969828+735519237+735455442+736031154
3304+739302226+740998374+737565930+733103287+731343474+731257722+730941541
3291+730299241+729706769+728930123+728330764+728817020+730176329+730490366
3277+727209614+722272472+720932003+721898994+721238244+720265731+720265536
3264+719783698+717044811+713370117+712910431+714703440+714719356+714812190
3250+717269067+719017056+718122631+716056512+714385376+713924131+713672980
3237+712569499+711273660+710097421+709887392+711835080+713296902+710927857
3223+707810035+707866748+709159144+709461617+709274910+708736163+708357162
3210+708727782+708878174+708064304+706624635+705874364+708128164+712006520
3196+712825068+711414178+710959819+710599983+709964049+710168036+710819496
3183+710556327+709080213+708344364+709267114+709766169+708859725+707741433
3169+707683809+709420495+711832092+713126177+713775428+714075952+713138260
3156+712541825+714150141+715872794+715189761+713239409+711937464+711715092
3142+712906403+715235171+717137385+717763054+718198963+719424576+720975659
3129+722426112+722921139+721480430+720023155+720735876+722293391+722522389
3115+721174124+719982163+721461330+724730844+726090347+725822695+725997189
3102+725771503+725483193+725784821+724847649+722857214+721551825+721015092
3088+721544744+723087642+724212430+725142326+727333695+729852418+730103699
3075+727636883+725517299+726263282+728132948+728753615+728386893+727529107
3061+726355856+726210596+727642859+728756994+728725616+728743221+729241431
3047+730366024+732041773+733851153+735435043+735004136+732407196+730623087
3034+730380706+730766073+732310985+734312463+734562900+732787041+731393172
3020+731815893+732901768+734404777+736189601+736129834+735128413+736061947
3007+737480827+738142617+739979152+742536334+743628770+742439082+740220169
2993+739839284+741813738+743551073+744091834+745170628+746584377+747859037
2980+750188260+751852445+751902208+751972174+752460184+753821962+754135738
2966+751725375+750500023+752631105+755254355+756619576+757610603+758443768
2953+758226723+756955830+755429174+754027378+753324207+753821572+755296907
2939+757503867+759640666+760573291+759225026+755832536+753465959+753637334
2926+755320229+758304615+761068122+760711145+757407200+753884522+752483442
2912+753655459+755210699+755509339+755247144+754989886+754939019+755140863
2899+755553970+755989359+755944599+755487706+754719441+754724313+756956155
2885+760000697+761810142+762093970+761281270+760890121+762013545+762857623
2872+761301149+758768003+758063468+759429468+761660985+764257210+766359903
2858+766974853+767030722+767865966+768542502+766918919+763404556+761485582
2845+762179918+762704828+762689107+763450356+763996964+764434302+765367446
2831+765768405+765688889+764941217+764576184+767088670+770579581+771879058
2818+771193102+770081566+769284652+768673080+768905456+769655142+770367928
2804+772131184+774105118+774524136+774034891+774328399+775664386+776709074
2791+776791578+776622606+776494952+775697972+774556943+774257458+775176960
2777+776448048+776799504+777417117+779176215+780043941+779867303+779575485
2764+778724455+778564903+780367852+782624315+784019808+784707713+784836472
2750+784242895+783363476+783754820+785052868+785364046+784895524+784709142
2737+785363136+786113471+786030122+786119253+786638057+786820281+786791112
2723+786421856+785393539+784699723+785735835+787925125+789623417+790305800
2710+790009693+789061282+788584446+789222913+790528432+791418440+790378559
2696+788660129+789724891+792839984+794378334+793984976+793854593+794614608
2683+794809306+793911567+793319744+793728888+794688602+795823525+796480832
2669+796931293+797805580+798051924+797707419+797721581+797420213+796835861
2656+797288726+798821489+799934194+800039760+800308322+800852656+800558629
2642+800427401+801602861+802510605+802550493+802878042+803498449+803762008
2629+803661834+803888493+804360717+803928576+803237423+804035767+805089615
2615+804982814+805372793+806465424+807085052+807448071+807189449+806423912
2602+806958177+808540832+808847008+808297867+808686222+809280773+809217888
2588+809600137+810440967+809761118+808293189+808538429+809653472+809559729
2575+808778601+809326313+811470388+813666500+814252476+812795136+811532234
2561+812162776+813283276+813366820+812673718+812155175+812736928+814477382
2548+815458339+814740161+814084998+814382014+815008528+815602495+815763411
2534+815568648+816051007+816900542+817171962+817189308+817180473+817289223
2521+816920291+815865145+816046200+817787042+819490856+820119384+819877912
2507+820461030+822340636+823779266+823520644+822195116+820815214+819774229
2494+820015701+821644806+822788369+822195376+820845162+821059544+823017822
2480+823551502+821766353+820566077+820983666+821523063+821628370+821766483
2467+822377016+823458343+824344973+824809012+824878004+824580338+825164820
2453+826602411+826899362+826877664+828117309+829002185+828843672+828414260
2440+827555434+827055016+827432912+827954509+829026611+830949159+832282352
2426+832193741+831304512+829970345+828896943+829145755+830188234+830237217
2413+828849779+828367355+830012701+831788950+832597818+832554162+831837283
2399+831557482+831846898+831775307+831808244+832902954+834046192+833622106
2386+832454247+832578393+833621717+833303588+830580228+826228542+822510257
2372+820787929+818839461+814580804+809725388+807226154+806697086+806183220
2359+806957332+809246342+811063713+813671957+818109849+821256515+821399371
2345+820155504+818669970+816998248+816328404+817064317+817803478+818624690
2332+821447120+824925233+826062689+825411099+824348806+823553906+824065043
2318+825558178+827242242+829573739+831786546+832744506+833927763+836512099
2305+839091694+840380776+840956228+841650435+843090104+844790864+844503008
2291+842790100+842206657+842334507+842663680+844014608+845504170+845838865
2278+845928126+846692363+846726535+845815088+846177783+847588413+847992100
2264+847431330+846824111+847175112+848650771+849478219+849311976+849344588
2251+849317887+848642781+847663577+846792148+846438809+847535013+849821164
2237+851285455+851492301+851356656+850921591+850546034+850617429+850993831
2224+851705968+852470465+853011291+852997974+852756827+853616887+854675801
2210+854490329+854155894+854014402+853211121+852057943+851633728+852022408
2197+851900990+851220231+851817576+854432901+857374215+858425789+857647974
2183+856742894+856401053+856342261+856866066+857666359+857086879+856065319
2170+856813055+857632837+857358039+858351795+860482747+861370482+861094254
2156+860387120+859157610+858513491+859597741+861730513+862983865+862120492
2143+860846351+861103544+861982314+862590118+862857315+862152779+861075870
2129+861077039+861813862+861872329+861163701+860505680+860109269+859988565
2116+860709602+862287125+863133023+862685810+862774941+863831842+864576655
2102+864907972+864956825+864448351+863653385+862991271+862616818+862619287
2089+863599725+865344336+865880809+865209925+865548713+866230251+865120210
2075+863741022+864674361+866465746+866277935+865344271+866472892+868843562
2062+869522827+868007149+866617632+867161706+868841028+869783592+869180076
2048+867711952+866905033+867628538+868966994+869398355+868699017+868211461
2035+869088866+870583430+871447453+871477791+870929364+870295509+869854013
2021+869312343+868871107+869371785+870415238+871060592+871866991+872768758
2008+872591471+871708284+871499879+872039536+872497792+873139898+874452822
1994+875502642+875401753+874629719+874416832+875268771+876325347+876630678
1981+876110446+875402272+875377066+876072572+876766129+876593259+875001249
1967+872640908+871166548+871878750+874454641+876939258+877907353+878169548
1954+879128678+880471486+880512803+878977247+877939055+877855966+877308904
1940+877452279+878842251+879593171+879364822+879322856+879779813+880377938
1927+881024525+880601739+878786772+878166625+878907735+879007455+878822957
1913+879066897+879265492+879466881+880590955+881848855+881697683+881672282
1900+883225379+884147739+883441450+883415204+884329184+884630293+884747683
1886+885281103+885586954+885816472+886977575+888481234+888678400+888253535
1873+887986728+886176373+882914071+882327510+884981943+887680227+889161344
1859+889782790+890093513+889922463+888605511+887194361+887183642+887995823
1846+887769488+886397121+886766442+888120684+888145435+887534967+887137062
1832+886314617+885492626+886140513+887078725+887569268+888873033+889777983
1819+889766419+890726264+892400259+892960574+892623605+892727353+893105314
1805+893183141+892638417+891333093+890717104+891473351+891970066+890944738
1792+890377017+893216338+896110358+896030712+894833099+894651589+894500093
1778+894101668+893438710+890331412+885392646+885366206+889504419+893100052
1765+896120558+898570029+899434181+897805791+894431101+893441243+894806074
1751+893586243+890599324+890665392+892014762+892994680+893804523+894363474
1738+895209566+894520752+890681763+889699961+892754638+896223396+898462384
1724+898676635+898054604+896598174+891668178+886130119+887360864+892134945
1711+896506769+897830932+894700507+890895495+889868998+887152394+882048230
1697+882611923+888186687+893482625+895831662+896062999+896133291+892697794
1684+883589568+881957929+886450782+890248583+890594582+887395814+883980132
1670+881445038+882587691+887008628+889475640+888577121+887149405+886841995
1657+887726482+887467665+879780138+875524795+875253894+872051554+872988661
1643+877906313+879699907+878156750+873381759+866721964+867357703+872439779
1630+875849290+877195996+878099907+878247895+878978741+882247150+884741836
1616+884992727+887572257+891678118+894837257+897447904+899789795+901495103
1603+902955885+904911564+907285028+909246489+910640423+911924114+913166358
1589+915032581+917746067+919746506+920320724+919877019+917787449+912853166
1576+908904388+911830501+915538587+916039525+916593409+918993312+921452009
1562+922024667+915608618+905614411+911042941+918876637+923416263+925303470
1549+925712484+925837475+923239236+915766416+907530592+912306168+923774020
1535+928002728+926486661+927531739+929846929+928567072+926329643+926025741
1522+926849811+929047871+930951059+933871585+938133100+939550552+936369390
1508+927938414+921884475+930174608+939625131+944309952+943737228+940382547
1495+939470061+939406137+935709225+931365790+933659867+939237750+943050428
1481+943711957+942357975+939620063+935370502+931425752+930266727+931289067
1468+931785523+930316620+928531081+928601568+927992464+923814818+922302194
1454+928268237+933882694+935048994+932078706+930891292+934397145+939029735
1441+942833707+944105120+940265742+937512628+940599397+944683300+947474678
1427+948701070+947317854+944163393+940071499+934517653+933969161+939757982
1414+944254342+945968160+945757806+943456193+939096907+935494064+935296638
1400+934084213+928483073+921929950+917650310+917403836+919516663+919079390
1387+915255538+914212150+916880680+919316509+919752288+917826167+915427173
1373+916009316+918101095+918748658+919239266+919547846+917842798+916885227
1360+918217186+918369592+917152620+916865218+917116175+916454840+916884643
1346+919754627+922112174+922221378+921244968+920244001+919405769+918654720
1333+919050806+921627412+924553200+925069080+923718541+923219162+924658572
1319+926410264+927289618+928449876+930565757+934103312+938257441+939299141
1306+937702908+938496704+942447496+947337019+952566694+957069550+958812472
1292+958241113+958221169+960850461+965073972+967642327+968194847+969607686
1279+972612276+975002825+976129562+976999951+976547866+975779600+978673231
1265+983491164+985349397+983941560+981779295+981346244+982111651+982314794
1252+983177062+984797981+985444374+985707739+986373361+987481583+989945867
1238+993369929+996414082+998178052+996680370+992788825+990734531+990706076
1225+990625456+991140686+992792983+994588591+996204443+997982835+999377030
1211+999440499+997668929+994587616+992981574+995772497+1001362592+1004016960
1198+1002857741+1003183861+1006205536+1008595890+1008878094+1007723877
1186+1005964974+1005332808+1007896681+1011543311+1012198669+1011833116
1175+1014281808+1016593620+1014281938+1009532997+1008062470+1011309245
1163+1013252581+1010576710+1009203304+1011449828+1012720071+1011741517
1151+1012564417+1016977298+1020308202+1019405981+1017796885+1017892252
1140+1018815457+1020548440+1023620982+1028687012+1034423277+1034703987
1128+1029021187+1024703868+1022924242+1022388872+1025569775+1030320729
1117+1030550767+1026478752+1023237433+1019682403+1013626255+1013144416
1105+1021509713+1028560332+1030218735+1031786774+1033924677+1035236043
1094+1036618089+1039030011+1041012260+1040521782+1039928010+1041820089
1082+1044550140+1046204581+1047310725+1047531733+1045999100+1044938496
1070+1046053994+1048296165+1048742923+1047746179+1050516963+1054422280
1059+1053240518+1049323832+1047726105+1050963981+1054439430+1051453420
1047+1046939000+1047751701+1050989966+1052287754+1050586929+1047458063
1036+1047969461+1052101372+1053034192+1049910783+1049818274+1054763341
1024+1058253862+1055651400+1049819313+1048067427+1052445877+1057094773
1013+1059265548+1058298428+1054241030+1052938370+1055693107+1057464613
1001+1058306028+1058623963+1055757942+1052029977+1049875832+1048249131
989+1046636073+1044347907+1042828657+1044388185+1047148639+1048104066
978+1047500485+1047510879+1049141023+1051337135+1053881713+1056980436
966+1057608054+1054724493+1051573344+1050623309+1053383504+1058230865
955+1061119364+1059523131+1053785047+1049307981+1051696451+1059112493
943+1063429162+1061868140+1059116131+1056837775+1056019747+1056984139
932+1054736836+1049863489+1050190648+1056068210+1061401308+1065388869
920+1069464587+1072428509+1073741823+1073027933+1069255402+1063323660
908+1060323943+1063007675+1067524044+1069065123+1066875637+1066767277
897+1069547481+1067115940+1061143855+1058191237+1057368791+1055669915
885+1051159198+1045267084+1041364366+1042962223+1050925977+1057054040
874+1054849224+1049924036+1048345993+1049209560+1048828416+1047123823
862+1045622243+1041605513+1034714186+1030475993+1030983493+1032825290
851+1033854581+1034965987+1035693715+1034420483+1032244056+1029400967
839+1023343910+1016030706+1011752041+1008403921+1004077767+1003672391
827+1008410482+1010926087+1007394574+1003571956+1004216855+1008028039
816+1010886914+1007997376+1000879000+997030526+995645232+988407906+979548752
802+979744944+983607254+980468319+973166354+969306513+971426681+974285881
789+971724996+965064032+958133272+955055013+955701471+955586420+955982506
775+957527872+955951258+950929338+945299160+940592706+935482695+930248278
762+927754241+927002996+926156449+924242801+919178135+912727330+909717284
748+910759308+912886687+915541900+916793953+912871550+906702690+904041955
735+906011212+907935124+906473042+904917736+904889412+906913173+911926713
721+914913632+911394072+904783001+901564094+903405112+905263475+903617545
708+900497969+899019711+898992685+897727899+894952438+892333930+891368889
694+892493482+894744813+894769110+889316478+882939862+882443341+887533798
681+891317567+888948521+885439291+883345757+877589549+867175739+856151656
667+854902201+864615244+871169407+870256141+866620620+863582444+860534849
654+861241658+867216016+870348520+869281095+870736681+874415533+874971820
640+869378606+864777719+870693350+883170030+887835946+882202000+883007944
627+895391011+894070096+870290702+861068399+874202775+867151182+849077975
613+849572352+846663324+841140726+837560555+818280965+806579826+825487042
600+851191777
##END=
