##TITLE=Sample description
##JCAMP-DX=4.24
##DATA TYPE=INFRARED SPECTRUM
##DATE=25/8/2023
##SAMPLING PROCEDURE=Instrument type and / or accessory
##ORIGIN=Default
##XUNITS=1/CM
##YUNITS=ABSORBANCE
##RESOLUTION=4
##FIRSTX=4397.6552
##LASTX=599.8556
##DELTAX=-1.9287962
##MAXY=1.7982669
##MINY=0.31487381
##XFACTOR=1
##YFACTOR=1.6747665e-009
##NPOINTS=1970
##FIRSTY=0.44104287
##XYDATA=(X++(Y..Y))
4398+263345880+262818474+262894174+263394051+263425316+263036177+262750266
4384+262478502+261955474+261365787+261211184+261597387+261917340+261606285
4371+260997877+260565567+260324037+260444206+260794267+260961468+260782719
4357+260401018+260337081+260447302+260210932+259823804+259655767+259659593
4344+259256876+258500806+258342698+258798070+259170820+259433313+259799959
4330+259991503+259842204+259843574+260023819+259645108+258832823+258405123
4317+258281484+258123910+258072233+257889764+257491639+257459430+257651330
4303+257398073+256971654+257058849+257534667+257635066+257151418+256752669
4290+256868141+257202293+257393304+257405921+257357429+257236744+257002439
4276+256736494+256415901+255920330+255431397+255325268+255434743+255408584
4263+255683177+256320555+256217754+255329557+255141002+255797652+255855539
4249+255158316+254838133+255071477+255097600+254463123+253650838+253501628
4236+253926909+254292594+254339074+253967392+253328395+252799138+252660836
4222+253040882+253488228+253466074+253310795+253566330+254139398+254385964
4209+253830175+252996858+252666531+252690216+252703081+252735593+252623947
4195+252458882+252729863+253218636+253365693+253131814+252676264+252079654
4182+251541803+251339404+251252476+250942044+250635971+250586039+250728860
4168+250766212+250525002+250341412+250491352+250703236+250585327+250340807
4155+250388818+250517261+250370560+250006227+249629526+249340662+249085892
4141+248904597+249022987+249478376+249900596+249834257+249358528+249029518
4128+248946611+248706309+248343203+248154471+248047256+247993106+248115607
4114+248311244+248420077+248147353+247471360+247033356+247054710+247062539
4101+246811631+246433151+246213811+246342468+246617026+246691658+246420997
4087+245942225+245727957+246040987+246383165+246122790+245334226+244648535
4074+244540716+244996337+245584494+245766607+245461229+245056839+244872715
4060+245004700+245248775+245166242+244808743+244658500+244790094+244854618
4047+244384708+243545090+243205439+243377729+243524057+243593546+243461846
4033+243114026+242696682+242021241+241235809+240902101+241134716+241549569
4020+241746808+241769496+242011044+242412907+242423922+241880109+241416783
4006+241416321+241311313+241009066+240967924+240897563+240573358+240381636
3993+240336419+240344996+240645392+240914985+240666621+240255398+239978866
3979+239595545+239161065+239035806+239106915+238978311+238853604+239061769
3966+239176279+238630278+237906755+237789682+238053705+238352179+238423946
3952+237687593+236362174+235732804+235967768+235919295+235671643+236031331
3939+236718624+236904279+235951450+234637723+234744243+235702446+235672533
3925+234916676+234679434+234630872+234111065+233987319+235159025+236583329
3912+237122070+236531956+234359624+230596445+227446443+227233260+229241576
3898+231997830+233594532+232853196+231307957+231627037+232175868+230997827
3885+229600749+228989778+229405930+231255106+231750765+229678174+226946762
3871+225459179+226021498+226681582+225914978+226500555+229262076+230511599
3858+228363326+223351638+219836236+224003039+229052559+231225353+230825127
3844+228435289+224851322+220998866+219856682+222863738+225687398+226935267
3831+227834088+228165464+227938366+226989666+224110787+221683668+222972767
3817+224983183+227505558+230305303+231147109+229478320+226920746+225664123
3804+224159171+222587632+223882140+226159515+228560814+230876608+231984626
3790+232081502+231345130+230052739+229241896+228573609+227691764+228501521
3777+230558649+231195760+229729370+227314014+226233524+226716816+227771663
3763+228346385+227009471+225059683+224630683+223727574+220190479+216077061
3750+216336439+218075590+218891148+221235557+223671662+223426448+220285575
3736+216243408+216781401+222148115+226449697+227280274+226056429+225600203
3723+226790808+228599073+230274731+231119438+230415613+228495524+229964352
3709+238460639+249906344+261551085+274260798+289454485+303747464+314548406
3696+322475541+326840882+327357361+326965411+328738852+330829682+331078206
3682+328008228+320531305+309923082+299361268+294610204+293267525+289439804
3669+286389774+286029036+284380106+280341551+275127446+269419212+263224447
3655+258422704+254411980+247507038+239983919+240247391+243881485+245425639
3642+244697257+242821069+240555154+237792173+234423009+230380949+225255302
3628+222892619+225112303+226350490+224425170+220130564+217234246+217130128
3615+216936769+216418776+215934630+215015737+215044920+215932388+215388238
3601+213328655+211539020+210234582+209058089+208782215+208473260+206082994
3588+203210913+203724207+205764251+206643889+206250960+205371589+204554429
3574+203682798+202196371+199192466+194553083+192016792+193878051+196121776
3561+196938473+197111938+196781576+195621757+194356094+193758007+192984373
3547+191729494+191433564+192469370+193333207+193241652+193009731+193297172
3534+193235940+191989317+190233849+189289882+189237014+189478224+190077930
3520+190828697+191214473+191141995+190591349+189797981+189416742+189596329
3507+189491000+188599066+188010571+188553814+189122094+188967617+188708220
3493+188725446+188615046+188349172+188449838+188928646+189175087+189255930
3480+189857611+190632295+190822327+190659450+190759511+191011789+190971573
3466+190822807+190747090+190579426+190596456+191051846+191693494+192173619
3453+192308647+192065052+191416534+190778658+190793873+191326154+192032737
3439+192741152+193267330+193673089+193907466+193917698+194134476+194722153
3426+195129514+195006711+194810380+195065737+195654802+196468332+197746398
3412+199152267+200061747+200628693+201228382+202111294+203454062+204819324
3399+205678942+206108867+206540697+207412665+208814299+210518429+212509662
3385+214778103+216985954+219076482+221192012+223352083+225883801+228819107
3372+231509520+233758227+236205027+239340793+243041743+247098040+251176990
3358+254972520+258874784+263370721+268273095+273166037+277788354+281893569
3345+285715276+289885495+294359563+298664099+302847718+307136932+310917034
3331+313559543+315813269+318377515+320838196+323005153+324875042+326063102
3318+326790202+327719951+329029692+330425916+331553864+332681314+333940980
3304+334485540+334054227+333444502+332804882+331426275+328981574+325766069
3291+322173917+318552297+315101970+311608260+307959449+304525209+301469680
3277+298724103+296267676+293926613+291743747+289959967+288394495+286881056
3264+285542843+284228422+282937953+281888765+280871501+279782328+278664487
3250+277359906+276136631+275452505+275008398+274317528+273620519+272948904
3237+271937388+270929466+270188610+269288544+268206969+267327046+266457800
3223+265130300+263888589+263428982+263041996+262264180+261680187+261365253
3210+261069555+260794552+260525422+260234137+259830299+259264706+258626064
3196+257989985+257359565+256720229+256165704+255834487+255567920+255091443
3183+254565693+254215880+253877207+253591119+253752821+254266008+254606051
3169+254440683+253702924+252908773+252607736+252540027+252377079+252235075
3156+252268850+252280630+252081683+252027373+252275149+252437546+252286823
3142+251891331+251423876+251071074+250720817+250197558+249859081+249990639
3129+250321019+250509556+250385081+250067868+249578313+248905042+248566174
3115+248703533+248857459+248937073+248979710+248867691+248571334+248184847
3102+247914008+247807701+247795743+247824339+247665911+247217444+246662759
3088+246185891+245898218+245712688+245426920+245158519+245109121+245031232
3075+244586021+243845184+243211454+242788771+242180488+241459758+241013800
3061+240572077+239907739+239291590+238869549+238582392+238357037+238175725
3047+238143374+238258738+238240925+237882340+237231509+236430774+235694225
3034+235124716+234753283+234632491+234462283+234008993+233582841+233380797
3020+233203257+232917542+232606736+232329812+232052336+231869404+232000980
3007+232338780+232418875+232185993+232053581+232180690+232455835+232862058
2993+233336523+233674555+233896458+234114463+234350904+234772324+235370927
2980+235881996+236106622+235976737+235569180+234985649+234390178+234005826
2966+233862861+233771217+233468490+232787230+231888302+231225549+231001422
2953+231018790+231106234+231252454+231415278+231445778+231211384+230759731
2939+230375254+230143049+229808931+229392957+229082828+228781311+228269049
2926+227556558+226910033+226306430+225527760+224737204+224091426+223541919
2912+223271864+223372886+223464547+223282042+223041331+222909862+222757306
2899+222624396+222679720+222703868+222437674+222094321+221941854+221978903
2885+222028409+221848075+221539280+221391671+221359836+221291860+221037410
2872+220488277+219826324+219325415+219158873+219247402+219281889+219170368
2858+219007491+218752988+218355913+217794056+217066084+216442728+216242358
2845+216374378+216526293+216612812+216762236+216940933+217044588+217189990
2831+217337617+217224850+217007681+217013002+217142246+217267078+217367690
2818+217332830+217264053+217373634+217574716+217635788+217581834+217653619
2804+217846800+217884294+217708961+217573132+217545746+217415185+217270975
2791+217351141+217441076+217335072+217148154+216983623+216935096+217013447
2777+217120572+217168102+217093204+216966415+216887886+216831352+216772628
2764+216792861+216873881+216858044+216793840+216791722+216771863+216758286
2750+216867351+217011098+216999905+216830266+216727465+216829376+216965685
2737+217016846+217084876+217138563+217096318+217064073+217124007+217229975
2723+217346959+217466007+217536760+217575179+217641678+217651181+217582261
2710+217597084+217702733+217730333+217662837+217681183+217831532+217967503
2696+218105716+218226188+218051673+217674314+217503145+217523342+217539820
2683+217593009+217666022+217613296+217419384+217139079+216804268+216619468
2669+216768571+216999460+216984744+216843416+216834466+216941413+217022558
2656+216963710+216736380+216501327+216351565+216230417+216170520+216188617
2642+216266203+216336315+216175022+215850567+215737427+215858201+215980079
2629+215979082+215850193+215784655+215877206+215955628+216002554+216103967
2615+216207515+216263427+216263356+216228157+216198387+216222605+216360801
2602+216550672+216642494+216629148+216618791+216687391+216843114+216961646
2588+216893313+216678422+216459580+216339429+216331030+216329090+216251024
2575+216134147+216014672+215888168+215788837+215714970+215622508+215540811
2561+215455894+215318659+215184521+215092237+215057466+215083375+215058800
2548+214959309+214867025+214750824+214606116+214500414+214449218+214486534
2534+214621953+214768032+214834300+214814298+214771751+214733438+214697261
2521+214715643+214828338+214981873+215078660+215135746+215261645+215411122
2507+215460093+215430981+215385711+215341330+215436462+215812682+216238407
2494+216360053+216219153+216097721+216154362+216297736+216303234+216145375
2480+216022164+216048020+216117847+216064266+215933580+215903133+215906924
2467+215796773+215689096+215726003+215851101+215919398+215859732+215817771
2453+215889360+215908739+215859767+215905927+215980595+215928456+215786933
2440+215691445+215717088+215802147+215831865+215814639+215834214+215892955
2426+215918757+215846937+215741324+215780829+215957319+216059853+216053322
2413+216095301+216247145+216469261+216707748+216878223+216989175+217087776
2399+217154027+217283698+217486436+217585340+217612103+217672250+217668994
2386+217397372+216668920+215400658+213642343+211537526+209144430+206510338
2372+203900572+201512958+199305197+197285617+195681815+194744539+194535733
2359+194943593+196130567+198537222+202045773+205529768+207187809+206193749
2345+203847330+202375264+202216889+202645462+203286666+203971129+204455222
2332+204752575+205387302+206447522+207403056+208087217+208919503+210169275
2318+211630326+212992402+214079582+214970876+215885641+216903830+217920347
2305+218766584+219411756+219929072+220369994+220807322+221237265+221592878
2291+221894787+222148649+222349963+222572720+222825532+223048235+223187925
2278+223192392+223130074+223116176+223154809+223216255+223282790+223350144
2264+223427391+223541350+223704689+223848330+223914296+223971222+224075945
2251+224140861+224170738+224265514+224356446+224402481+224466063+224537242
2237+224650542+224847835+225032172+225134137+225169851+225133425+225062566
2224+225056658+225180279+225389636+225528027+225478646+225353797+225376450
2210+225525927+225619796+225635900+225674835+225788580+225893286+225886933
2197+225855863+225963095+226162896+226273937+226292924+226337642+226405654
2183+226448949+226518101+226649712+226813265+226977601+227044189+226963276
2170+226916013+227027711+227146083+227159233+227132612+227162970+227336987
2156+227577805+227712637+227728012+227703384+227732194+227858769+227996502
2143+228093520+228166461+228182921+228200770+228333502+228522982+228637297
2129+228679328+228770296+228915645+229041953+229182479+229284017+229271489
2116+229303983+229478925+229655984+229800941+229982538+230136767+230215581
2102+230265958+230359897+230579006+230919654+231289219+231641647+232043830
2089+232551999+233124337+233718954+234296203+234741271+235019424+235272058
2075+235572632+235870448+236165131+236473179+236731098+236968198+237352853
2062+237780927+238016674+238163304+238427470+238824777+239215446+239500912
2048+239723580+239862754+239887720+240014188+240488957+241176161+241744583
2035+242105108+242380698+242608437+242679315+242600519+242517203+242495137
2021+242443158+242256988+242145823+242379915+242761563+243021778+243240370
2008+243526121+243768399+243896807+243992472+244111769+244328120+244506710
1994+244294826+244027742+244410190+245241942+246061398+246815030+247531062
1981+248217910+248889454+249586320+250347943+251181955+251864710+252278014
1967+253047395+254563664+256133958+257333371+258314333+259031984+259569693
1954+260140963+260641089+260911749+260856443+260292753+259421586+259401175
1940+260524977+261433211+261756225+261959692+262137356+262294165+262437343
1927+262267579+261586764+261234994+261608402+261985637+262801605+264222244
1913+265043247+264990717+265058729+265905215+266944207+267600394+267910613
1900+267926895+267557668+267086370+266922835+266557612+265973530+266207141
1886+266855997+267109628+267230028+267330089+267332563+267311600+267133171
1873+266097720+263705551+261739818+262879600+265343056+266629753+266874344
1859+266933316+267187694+267560338+267794679+267624613+266834448+265377970
1846+263813761+264121026+266463441+267986650+268196061+268265550+268102406
1832+266606068+264725697+264765113+265832203+267015333+268607070+269702098
1819+270011124+270123143+269977367+269157698+268522402+269211599+270386223
1805+270728846+269923502+268851910+268900757+269509023+268970887+267423263
1792+267788735+270870209+273019585+273334021+272998854+272538482+272522431
1778+272991113+272246236+269648464+267742718+269540502+272846796+275323919
1765+276005073+275290607+275185119+275548011+275641256+275757279+274502453
1751+271575208+270082677+271567022+273353542+273984479+273983678+274493431
1738+274855023+273207197+271554601+273835660+277340190+280164384+281436827
1724+281245087+280358331+277757765+273167514+271824212+276357697+280637818
1711+282315611+281480389+279138703+277507622+276613552+274724462+273191858
1697+274524768+279342864+283892329+284737534+283429662+281058810+277167312
1684+275900902+280433995+284218243+285471699+285201270+285039781+284549638
1670+284281024+287615007+291340105+292214671+292888974+295605118+297385250
1657+295631063+290657545+289560970+294315503+294419443+293915794+299219941
1643+304487199+306145827+304887193+301785042+302242762+308649998+313154780
1630+314898147+316199881+317642977+319400865+322864146+325636558+325978647
1616+327850316+332584261+335602242+336376214+336764428+337820093+338752440
1603+339287853+340036592+340704969+340769991+340879288+341643757+342522327
1589+343241206+343950547+344586181+345186119+345443931+344247473+341721770
1576+342223480+345798833+346690643+346521129+349115022+352297677+353795083
1562+352596133+347726058+347005933+355789181+362774858+367924279+372044014
1549+375750979+377535844+376067515+372805280+373212321+386046972+397675484
1535+402750771+408667187+417266934+423341405+427492709+432232775+436537542
1522+442985706+453610977+464007191+475327993+486326387+493517952+496249435
1508+497695877+512530106+533944752+545960018+553759884+562110289+574750833
1495+588694178+597631494+603402455+612940243+627942065+641982250+652931744
1481+662564628+671473187+679020081+685201392+693105465+707885491+723235097
1468+734410230+745151096+758311216+769590201+775047117+776928395+786688904
1454+803015593+815367183+822952371+828101293+834661494+842236574+848579107
1441+853689165+856939797+859234558+864802159+872857702+878599906+881076531
1427+882347799+881228997+878390068+874810444+867491682+860521415+858629246
1414+856854168+852907755+847664734+841428116+834345243+829358895+827426439
1400+823035295+815179482+809838731+808618712+809842717+810293071+806814949
1387+801575486+799585873+801045838+803931461+805619273+803995238+800142213
1373+797831010+798390197+799785247+801437682+802668805+801840844+800932947
1360+802694217+804810601+805867619+807386735+809113126+809175408+808495500
1346+809769616+812994410+814879247+814065806+814553884+818616463+823327132
1333+826498398+828385584+830455061+832723486+834160531+834783069+834635157
1319+833852181+834081095+836695950+840535238+843601657+845785947+848317451
1306+851092746+853549725+856791103+861179471+865624640+869437021+872825742
1292+876463876+879422458+880875163+882413284+884573088+886055618+886376282
1279+885680430+883997957+882174690+881625255+882124864+881896520+880355338
1265+878211621+876014021+874070460+873438741+874770085+875520532+873965399
1252+872541023+873048250+875005120+877025341+877239307+875936791+875332760
1238+875931595+876822408+877787675+879029831+879778926+878136669+874473266
1225+871794207+870958415+870161915+868096210+865353089+862875397+860216197
1211+856458481+851970319+847952513+844565358+841752979+839554881+837074697
1198+834135191+831479337+829436338+828284509+828128626+828259241+828236463
1184+828146634+827481674+826409495+825827317+825640328+825595129+825861483
1171+826550573+827844690+829730168+832005141+834526751+836735597+838456792
1157+840602503+843693337+847090883+849955793+852400743+854646532+856230279
1144+858287015+862670328+867421783+869902323+871724593+873835924+875480672
1130+877476549+879925769+883041089+887617584+891694185+893234441+894383423
1117+897282285+899704315+900045123+900719977+903526306+907353351+911226947
1103+915474379+919575679+922366775+923968033+925935652+929125923+933026710
1090+937396215+941772197+945399655+948980062+954295544+961340051+967934134
1076+972681389+976675777+982439905+989123745+992154574+993568060+1000643672
1063+1008988062+1008963861+1005932035+1006929618+1008960089+1009325027
1051+1008527316+1008588246+1011031203+1014547620+1017420501+1020450619
1040+1025494622+1030073253+1030739708+1030421748+1032102584+1033030981
1028+1031540692+1031069839+1033658002+1037267593+1040806716+1044275016
1016+1045693768+1044101124+1041627489+1040254433+1039598655+1037867139
1005+1035435785+1035286592+1038474586+1042370320+1044010583+1043065246
993+1041232798+1040196635+1039218627+1037362974+1037565765+1040888502
982+1043252520+1042955131+1042668491+1044692128+1048308481+1050736419
970+1051068615+1050429350+1050239301+1052022208+1054340885+1054586669
959+1053924342+1054100725+1055038232+1056810961+1059288369+1061903367
947+1064842232+1066877400+1066155069+1064813475+1063934051+1062516651
935+1062766633+1065051856+1066872631+1067329961+1067249385+1068550763
924+1069758539+1067843878+1067034850+1070846235+1073741823+1072376241
912+1069926665+1068737894+1069369613+1071619032+1073592275+1072177366
901+1069070943+1068532825+1068135216+1063670686+1058233985+1058266585
889+1063408247+1067482000+1068457588+1068607066+1068623722+1067016414
878+1062904580+1056580410+1049448068+1043748215+1039556019+1035181745
866+1030866336+1028214040+1026558331+1024150679+1020275802+1015140048
854+1010490807+1006223943+999896073+992162689+985505185+980424667+976679479
841+973197513+968011435+959577003+948322362+939557016+936784569+936600498
827+936244173+934868911+932768542+932356412+932407091+931295621+930711450
814+929135533+925245779+921860759+919707433+919061976+920255018+919570839
800+914992351+909291430+905599485+904859572+905086493+904318251+902945836
787+900202003+895286764+890726925+887779304+885699649+883847412+881008696
773+877995093+876780483+877009254+875895008+871393963+866591330+864380277
760+861475222+856219459+853040648+854172831+856617994+857571517+856387301
746+853116098+850040070+849263357+849093950+848800191+849450987+850116873
733+849601817+848706590+849478178+851737918+853932030+856349291+858522833
719+858139246+854814373+852332054+853301592+854888970+854123788+852081288
706+849683246+845144476+839811911+837042453+835174414+832660919+831977736
692+833420050+834110706+832478200+829540972+827783262+828842914+830591797
679+830249423+828183292+824742824+818789216+810252498+804326722+811168794
665+822384215+824873723+822120423+818602298+815049295+811660432+808096325
652+806085215+809223454+813680083+812274926+808400191+807070555+806456417
638+806350074+806859436+804811669+799917783+796790862+798156870+800539395
625+800863334+799102990+793195079+783819724+779176675+782806624+786545406
611+785044583+781014035+780374486+787135698+791686142+785826847+781651947
##END=
