##TITLE=Sample description
##JCAMP-DX=4.24
##DATA TYPE=INFRARED SPECTRUM
##DATE=25/8/2023
##SAMPLING PROCEDURE=Instrument type and / or accessory
##ORIGIN=Default
##XUNITS=1/CM
##YUNITS=ABSORBANCE
##RESOLUTION=4
##FIRSTX=4397.6552
##LASTX=599.8556
##DELTAX=-1.9287962
##MAXY=1.8543779
##MINY=0.15041588
##XFACTOR=1
##YFACTOR=1.727024e-009
##NPOINTS=1970
##FIRSTY=0.16480313
##XYDATA=(X++(Y..Y))
4398+95426083+95632807+95775069+96013130+96265023+96493188+96750732+96755426
4382+96371142+96020180+95933966+95927245+95961620+96102864+96415404+96798550
4367+96875272+96765426+96970873+97267615+97293525+97297563+97333224+97171988
4351+96826125+96567969+96661999+96906480+96859724+96448753+96053010+95986961
4336+96042596+95990119+96065176+96476794+96973211+97193015+96931485+96168965
4321+95368515+95141282+95496938+95958246+96057997+95757519+95629588+95958462
4305+96180742+96045038+95995149+96225066+96449960+96350253+96000395+95832550
4290+96190587+96842295+97029924+96561705+96199397+96410064+96840491+97192972
4274+97389454+97294423+97105007+96968051+96634570+96257767+96287241+96676615
4259+96957473+96861726+96596761+96526717+96758635+96941580+96760646+96483309
4243+96464723+96666978+96915445+97112859+97128890+96919215+96628410+96444965
4228+96548521+96831915+97014911+97070451+97062453+97042056+97104921+97321533
4212+97570932+97556246+97241773+97040339+97292662+97642442+97650113+97609422
4197+97795041+97982886+97947390+97653538+97414364+97618464+97986864+97941876
4182+97710562+97959935+98415566+98406766+98108772+97890702+97847656+97952739
4166+97971307+97874913+97859736+97907648+97900487+97976398+98226099+98358516
4151+98214779+97966769+97800615+97725308+97665074+97654530+97735282+97886060
4135+97959297+97900573+97988305+98229999+98267083+98236996+98535878+98918756
4120+98935089+98648399+98491063+98664706+98891724+98987980+99011803+99008222
4104+99033468+99111528+99164954+99157879+99323040+99592129+99518461+99257017
4089+99247742+99409564+99481032+99584795+99864307+99997337+99895455+99904842
4074+100051065+100204000+100417488+100605523+100616619+100521812+100443097
4060+100503348+100746224+100916778+100882990+100869513+100978824+101034260
4047+100822532+100508715+100565437+100917132+101065374+100946804+100855216
4033+100877848+100829961+100572676+100226037+100112480+100220523+100196519
4020+100122765+100265200+100497783+100592374+100576300+100541890+100428412
4006+100332837+100279273+100159798+100150134+100252517+100335891+100376867
3993+100234320+100018692+99932608+99861028+99820121+99984558+100213914
3979+100239117+100035335+99812580+99772062+99810553+99827740+99942625+99989511
3964+99677937+99366320+99652984+100335339+100598233+100043299+99132495+98416584
3948+98235978+98433677+98237997+98014794+98709625+99650508+99717126+98527388
3933+96926265+96748152+97762271+97906035+97204594+97174835+97337529+96768420
3917+96554811+97801219+99530437+100481311+100199669+98290414+94759854+91445371
3902+90606560+92265338+95358118+97568110+97281446+95832196+96071190+96785046
3887+95854518+94557548+94004288+94346838+96255575+97257882+95854958+93512246
3871+91803822+92211739+93619815+93576518+93847548+95795009+96758420+95266107
3856+91242875+87095423+90027433+95679425+98784164+98671695+96172416+92920298
3840+89962006+89144688+91496485+93953020+95363873+96556467+97226286+97097224
3825+96151743+93401417+90682169+91601033+93666105+96280252+99240667+100472528
3809+99316172+96975256+95543591+94157189+93025864+94592725+96902554+99173841
3794+101564405+102893920+102949555+102142108+101043467+100712194+100784956
3780+100302949+100709891+102332887+102967364+101871363+100089201+99349391
3767+99767670+100587076+101024001+99832555+97934025+97530767+97083238+94173143
3752+90111455+90058806+92162713+93149421+94748491+96977240+97323474+94635219
3736+90434367+90348826+95190541+99633467+101203960+100608052+99722182+99940925
3721+101500909+103442546+104184859+102658438+99037317+97187743+100164681
3707+103729711+105066146+104532870+104362298+105614617+106703146+106754510
3694+105271869+101940803+99658040+102687947+107470506+110261816+110667740
3680+108960308+105583685+102491223+103992285+106645138+107736739+111292683
3667+116467533+120028870+121984131+122958853+122922054+122579936+123150762
3653+122782164+119375791+116611176+121662746+129089358+134141489+137289283
3640+139572442+141191728+142135467+142638251+142235718+141018163+143129836
3626+148615579+152356555+153182881+152361249+153159688+156009748+158476663
3613+160751116+162991937+164876825+168004110+171891232+174413988+175691519
3599+176880851+178053808+179345764+181371155+182947895+182585078+181987004
3586+184376644+187941605+190301132+191415468+191911350+192474273+193322652
3572+193749474+192503592+189349369+187977619+190845384+194237711+196108139
3559+197260991+198023347+197768435+197348033+197857806+198125402+197421476
3545+197418974+199001633+200693215+201296225+201166508+201418228+201899959
3532+201610344+200757582+200376283+200612110+200984349+201515192+202271456
3518+203095798+203668091+203610679+203004045+202377118+202351854+202811411
3505+202933777+202788391+203324170+204238641+204714402+204935889+204921359
3491+204310325+203457372+203202201+203632698+203935100+204221385+205117634
3478+205800472+205537449+205101205+205169576+205386610+205294202+204833316
3464+204253930+203893426+203706486+203501221+203514871+203716202+203644018
3451+203223737+202489923+201744082+201604736+201955353+202351199+202584143
3437+202585662+202492943+202432580+202406109+202357325+202246831+202222621
3424+202358619+202667078+203403463+204359264+205033508+205684888+206662656
3410+207704101+208590272+209440049+210415885+211612344+212861056+214030182
3397+215406712+216927904+218235581+219587556+221416482+223456006+225130694
3383+226541824+227993748+229474939+231118013+232833426+234478933+236261077
3370+238017802+239550417+241188780+242989406+244888255+247144434+249436299
3356+251540862+254091574+256894507+259136415+260906099+262738183+264900556
3343+267051332+268720636+270288938+272425270+274956707+277114886+278646052
3329+279864911+280895846+281754855+282787120+284108792+285404459+286628770
3316+287801640+288840928+289821682+290740864+291635853+292700094+293939522
3302+295044522+296015509+297233677+298304647+298577196+298258262+297676029
3289+297122959+296938315+296844371+296382933+295596418+294886281+294533593
3275+294476578+294546259+294678444+294993236+295537712+296155010+296386592
3262+295852332+295335915+295610086+296003705+295924774+295775230+295874282
3248+295958977+295658576+295060295+294640169+294519822+294402478+294168101
3235+293966166+293680813+292923324+291960447+291334314+290811443+289990036
3221+288925588+288025992+287724107+287840312+287879363+287837292+287792684
3208+287486434+286889395+286331528+285949487+285550535+285109650+284853288
3194+284892684+284981969+284708730+284262910+284111432+284067894+283760626
3181+283257600+282793625+282366614+281968698+281865193+282005833+281881449
3167+281449088+281274746+281477527+281475732+280927443+280121549+279523647
3154+279452895+279867395+280195113+280021996+279712105+279507995+279250235
3140+279140070+279173927+278778927+278023767+277759795+277911514+277446141
3127+276406698+275763101+275706086+275719770+275635973+275613419+275461217
3113+275029857+274440756+273646407+272842445+272391672+272153792+271772562
3100+271273056+270932362+270754258+270604921+270519346+270418033+270113181
3086+269718577+269488790+269422301+269512656+269873368+270391665+271075056
3073+272338747+274055782+275039193+274243877+272055948+269720890+267668268
3059+265443427+263078791+261208001+259956597+258849008+257722576+256964844
3046+256799959+256925362+256980254+256953024+257004482+257157219+257184036
3032+256792884+256147613+255608021+255121095+254777881+254903215+255399321
3019+256014617+256671864+257374927+258264187+259535246+261169899+263007798
3005+265076089+267443123+270087089+273150076+276951519+281940932+288469034
2992+296440156+305386458+314270291+321169079+324488912+324575677+323011448
2978+321016843+318893159+316391317+313681777+311274569+309345435+307910974
2965+307039868+306782091+306927391+307079213+307226549+307632352+308253826
2951+308913299+309774085+310933064+311930556+312342744+312267989+311894559
2938+311169650+310097472+309009797+308003883+306631891+304748693+302696589
2924+300576875+298050149+294779221+290807785+286374238+281949439+278226013
2911+275307082+272601804+269780666+267055784+264693271+262939359+261840002
2897+260987481+260249612+259937322+260007486+260306316+260949568+261779690
2884+262426514+262879048+263366543+263859439+264169676+264419894+264704609
2870+264806543+264641864+264208796+263352203+262047355+260485162+258719171
2857+256542423+253636711+249924950+245801847+241673601+237722061+233939462
2843+230176104+226581427+223412054+220619406+218132353+215948479+213961622
2830+212093765+210414021+209013953+207896700+206998985+206310141+205808427
2816+205386800+205003189+204606980+204151858+203693958+203260804+202897003
2803+202627216+202393563+202159445+201877785+201467374+200881932+200192087
2789+199428592+198465854+197380872+196481241+195785512+195047367+194263613
2776+193553285+192861801+192150473+191459921+190868525+190396975+189937073
2762+189551632+189367644+189218186+188960392+188697369+188494070+188258192
2749+187904520+187536768+187238611+186893689+186450422+185997285+185699386
2735+185587150+185434983+185178362+184937289+184719012+184481977+184286738
2722+184240318+184261423+184167220+183939987+183746335+183682054+183602278
2708+183482414+183490766+183573183+183562519+183507264+183513786+183527333
2695+183391904+183064929+182772138+182627805+182424265+182132700+181906036
2681+181684464+181350396+180993774+180727644+180411799+179929361+179432357
2668+179020566+178659872+178334432+178033255+177814271+177701551+177531644
2654+177193590+176835260+176584886+176354719+176167987+176155769+176204226
2641+176117011+175945189+175869933+175836939+175746619+175748776+175850226
2627+175924153+176007951+176093922+176113353+176104518+176210283+176516637
2614+176852119+177040405+177190795+177404102+177601723+177767557+177952771
2600+178216933+178616524+179000066+179197704+179317326+179467664+179602937
2587+179675898+179678365+179673378+179731291+179774329+179653516+179370096
2573+179049730+178776405+178590000+178417246+178096673+177713959+177473214
2560+177314265+177111657+176855985+176593480+176405401+176264865+176122827
2546+175979564+175743513+175450981+175283421+175267528+175335259+175398849
2533+175403992+175435191+175557971+175728482+175882479+175961582+175937303
2519+175918459+176098909+176394806+176578121+176743818+177023769+177337199
2506+177621016+177829353+177997552+178242973+178500715+178680355+178888088
2492+179140464+179294202+179364557+179453220+179492272+179443608+179439208
2479+179477138+179400450+179238257+179148609+179118393+179020704+178830521
2465+178638646+178535625+178470068+178269582+177950010+177751026+177679860
2451+177504396+177236766+177041889+176878246+176682661+176537810+176413339
2438+176178065+175936181+175856214+175810261+175660837+175540766+175536004
2424+175560698+175595487+175632415+175591707+175496383+175449221+175457953
2411+175458505+175450498+175505960+175646980+175779164+175795403+175769656
2397+175849502+175981169+176030988+175991212+175954231+175985379+175894541
2384+175347994+174275643+172819215+171012895+168878133+166635362+164471057
2370+162421352+160542158+158851887+157521759+156766547+156423903+156493274
2357+157407176+159372187+162257968+165263577+166774743+166006848+164071070
2343+162902134+162726584+162815092+163117667+163620141+164093555+164564501
2330+165311723+166243658+167013193+167752390+168810281+170120943+171449466
2316+172676246+173684092+174436940+175073047+175744997+176455773+177096212
2303+177567469+177885264+178156311+178442458+178766258+179122828+179452116
2289+179728409+179962027+180175490+180403275+180582518+180633355+180654115
2276+180741933+180782813+180709732+180652734+180703089+180789060+180806593
2262+180797533+180865627+181013946+181184233+181335400+181434573+181425496
2249+181364719+181391621+181504617+181637388+181735732+181761945+181778511
2235+181834491+181909729+182036150+182190803+182281347+182357069+182501195
2222+182665476+182795831+182941856+183102893+183186638+183220547+183265897
2208+183339859+183477444+183654478+183828096+183959676+184025941+184065165
2195+184189170+184464014+184732628+184879497+184958774+184992682+185046781
2181+185160571+185247215+185325870+185490963+185645891+185647255+185566667
2168+185537900+185602698+185780561+185985585+186070745+186105983+186214854
2154+186347712+186485970+186659432+186841678+187028772+187194314+187253193
2141+187231277+187248499+187321425+187440529+187620772+187780343+187874891
2127+187975824+188113324+188252376+188343801+188377934+188446166+188646393
2114+188916871+189103534+189177909+189241862+189369767+189542676+189732963
2100+189956020+190183668+190354714+190455371+190524776+190658427+190913271
2087+191191738+191409774+191641373+191943602+192283192+192597553+192833121
2073+193053107+193335888+193548505+193534821+193520101+193817499+194293156
2060+194704740+194999808+195211752+195420072+195610756+195759938+195892157
2046+195954004+195899059+195852053+196049018+196449178+196790718+197007338
2033+197179299+197369327+197584929+197832214+198129095+198448029+198673553
2019+198648894+198601093+198995714+199682435+200172122+200404842+200625483
2006+200942623+201285750+201602596+201895714+202215735+202440052+202277565
1992+202085156+202548768+203435664+204223956+204792039+205210698+205653775
1979+206177646+206718274+207282129+207887313+208266092+208197929+208258172
1965+209036369+210041333+210735992+211187594+211480384+211720611+212072747
1952+212430991+212564987+212404537+211895834+211145229+211095462+212166691
1938+213190517+213601997+213774268+213980932+214229563+214416847+214234636
1925+213461133+212889426+213042733+213323978+214064177+215318256+215915071
1911+215660296+215540070+216206291+217140176+217784411+218230370+218501262
1898+218366506+218106641+218233614+218287627+218177548+218856607+219949113
1884+220673799+221217947+221638331+221961735+222349970+222623710+222037646
1871+220096432+218468613+219712286+222333594+223934769+224430530+224669394
1857+225144206+225747267+226205961+226290138+225743592+224534293+223252708
1844+223686276+226132518+228048934+228774413+229320528+229679635+228751686
1830+227313999+227662545+229088688+230633866+232575960+234119671+234905875
1817+235414095+235591785+235051830+234672844+235616117+237057566+237674191
1803+237099206+236174449+236306807+237082312+236917789+235766645+236220231
1790+239309603+241786216+242577028+242638254+242543430+242944677+243910987
1776+243730674+241575636+239678598+241356151+244938040+247799368+248824885
1763+248523329+248968269+250097791+251135353+252174934+251660933+249220144
1749+247943356+249788175+252374315+254088658+255218007+256686843+257829928
1736+256948865+256141504+259409774+264023807+268112139+270824199+272132756
1722+272646015+271431057+268333384+268409502+274309210+280113266+283391665
1709+284128810+283477672+283720332+284599238+284591662+285425477+289006952
1695+295877077+302730826+306166760+307655751+307976929+306966114+309603108
1682+317909092+324878528+329454389+333108411+337398746+341104123+345293957
1668+353416608+360674054+363840753+365625727+368123703+369181283+366856320
1655+361043791+357076842+360034116+360919476+361961041+369647311+378124444
1641+383367095+385885192+387248280+394433111+408575575+419776882+428514139
1628+438142313+448815641+460971714+475733340+487882751+496417763+506969847
1614+518646673+526862060+532413326+536963406+541045042+543707852+544833422
1601+545272979+544879980+543042133+540286759+537722414+535307407+532394309
1587+528945778+525177485+521175435+516792984+511553405+504616998+498584933
1574+497251871+495727470+492179990+491011796+492606362+493746324+492835287
1560+488760760+487668978+495924400+503783752+510420898+516486958+522644685
1547+527303722+529050145+529755313+536153008+557844829+577476849+589494111
1533+603383284+620354117+633251458+642962704+652314602+660225240+668353240
1520+678024520+685798970+692557843+698007433+699104599+695229488+688088627
1506+688377707+699588885+707294585+710221488+710411861+712488987+718065723
1493+721269489+720618506+722689833+732196901+742281646+749062400+753794812
1479+758035898+761177540+761584034+760896605+765158330+773194250+778892540
1466+781599872+784484876+787198904+786621295+783445209+787113104+797479475
1452+805115942+809493285+812902127+817416555+822560223+827701958+832648695
1439+835824713+836834492+839099092+843102522+845350348+846069114+847204797
1425+847879524+849330447+851159701+848398391+845202840+848525468+852565965
1412+854030279+855001611+854966201+851059338+845339994+841468611+836726052
1398+830389755+826347740+825334165+826462875+827199519+825172782+821759109
1385+820631986+822121357+824060224+824595657+822811822+819203358+816786832
1371+817362163+818536844+819006013+818327834+815267504+812583089+813270863
1358+814588704+814440091+813351002+812367107+811807515+811673605+811742423
1344+811508909+810397524+808724268+808167782+809057801+810882430+813248567
1331+814963238+815654256+815646318+815608423+816461789+817975940+819456614
1317+820932593+822476702+824185022+826728694+830234240+834214409+838285001
1304+842002526+845548590+849044888+851679052+853685357+856083039+857753395
1290+857488957+857175994+858133521+858309882+856696748+855642585+856285975
1277+856507410+855055658+853448529+852918963+852381390+850880630+848986147
1263+846730934+844107883+841912171+840520541+840033356+840167957+839882052
1250+839007977+838622882+838894775+839383271+839650608+838635445+836781825
1236+835694047+835507884+835996173+837162433+838499809+839866866+840990124
1223+841101186+841143223+842694786+845151554+847110024+848068448+848179372
1209+848320944+849235330+850272512+850689704+851350213+853336017+855867195
1196+857519605+858654597+859856061+860830153+862122041+863856799+864862919
1182+865435006+867205864+869915404+872409377+875286167+879248113+883383382
1169+886195564+887186913+887697152+890449351+895952712+900450781+902079170
1155+903467073+906232041+910034123+914039693+917100575+919132903+920858066
1142+922972051+925847530+928677866+931324869+933762654+934743788+935746664
1128+938039565+939787299+941057306+942502914+943685741+945089382+946649435
1115+948027260+950483061+953382837+953700977+953797889+957364386+961915122
1101+964903941+965757790+964972207+965617530+969283976+973349460+975200940
1088+976873989+979989539+982551157+984217372+986381056+989000932+991317026
1074+993613239+995595869+996146764+995413364+994588713+996116738+1001147756
1061+1007368710+1011645689+1012610464+1012142882+1012919354+1014663085
1049+1015500438+1016394253+1019782111+1023999590+1025530376+1025151010
1038+1026321067+1029873344+1033958570+1037061420+1038772018+1038088593
1026+1034530794+1032077754+1033137853+1034159228+1033684399+1034310119
1015+1035748065+1034734420+1033576995+1036008361+1038216222+1037703912
1003+1035958663+1033157525+1030764468+1029327971+1028554053+1030217576
991+1033810371+1036607230+1038283039+1039161945+1039395046+1040625707
980+1042525851+1041835868+1038362557+1036976518+1038963220+1039893481
968+1039820314+1041613191+1043395369+1043261252+1042514669+1041594002
957+1040561720+1041573501+1048251683+1062673805+1073741823+1067674037
945+1056729299+1053913183+1053811231+1054514674+1057781046+1059512835
934+1057559956+1054153738+1052695912+1054145385+1055892775+1057641476
922+1060119227+1061647183+1061942131+1060605859+1057976803+1057357434
910+1058061429+1056065477+1052736016+1052434718+1055328488+1058928946
899+1061204797+1062234455+1062954533+1062037456+1061248076+1063800030
887+1066417007+1066354263+1065709078+1064038653+1060281300+1056789144
876+1055278376+1054931866+1052003306+1045177962+1039991567+1039314561
864+1039599845+1036990944+1032589787+1030573819+1029982543+1027009462
853+1020827438+1013380309+1009437207+1009526734+1007661656+1002416865+997132936
839+992752832+989200555+985024630+977656466+969011738+962575837+957733122
826+954548545+954426508+954779161+953041159+950315604+948244553+946229412
812+942788681+940035792+939536114+938198531+933880206+927767691+923507140
799+922445798+921942807+916890115+901555954+888428550+893863783+906851410
785+910833649+909946805+908594451+905646702+903009363+901342250+897654890
772+893269816+891670004+890386813+887179389+883920886+882601388+881071499
758+875697975+869467357+866323644+864926009+864173834+863612930+860826150
745+856880080+855833510+857827529+859404701+856868001+851513597+849320784
731+851780313+855949681+860035666+861113435+857962613+855233538+855486241
718+856199140+855790783+855590125+855126134+851757120+847546682+845571162
704+844296185+842326188+840663631+839530089+838372664+838523347+840367096
691+841469784+839627139+834462073+829114917+827756627+827842219+823851627
677+820166407+822711113+826702809+824642249+816514801+813963882+820909746
664+825514529+824002932+819815548+819477598+824082795+827675245+825256303
650+817978701+811684442+808220863+804490085+801540403+804223714+811893383
637+824874728+846529034+856272791+836760703+811440918+802589320+799294440
623+791947537+787086322+783168899+779361640+782870983+786228538+777811458
609+766893087+766038824+771269740+774039333+776973760+781422614
##END=
