##TITLE=Sample description
##JCAMP-DX=4.24
##DATA TYPE=INFRARED SPECTRUM
##DATE=25/8/2023
##SAMPLING PROCEDURE=Instrument type and / or accessory
##ORIGIN=Default
##XUNITS=1/CM
##YUNITS=ABSORBANCE
##RESOLUTION=4
##FIRSTX=4397.6552
##LASTX=599.8556
##DELTAX=-1.9287962
##MAXY=1.8417175
##MINY=0.83911419
##XFACTOR=1
##YFACTOR=1.7152331e-009
##NPOINTS=1970
##FIRSTY=0.90699232
##XYDATA=(X++(Y..Y))
4398+528786631+527263844+526936289+527927399+528879936+529581055+530760024
4384+531479839+530665851+530269734+530701922+529928175+528478467+527947380
4371+528301345+528568887+527958535+527224437+527279273+527538058+527812793
4357+528231150+528298009+528184341+528113069+527983242+527685016+527107156
4344+527188679+528370394+528801365+527565788+526722680+527187428+527769980
4330+528345860+529183583+530143799+530753213+530482579+529837963+529437850
4317+529788826+530925296+531994350+532165877+530939092+530286588+532352694
4303+534163699+533107364+532121849+532759202+533000715+532611479+532441724
4290+532123934+532096933+532896917+533368476+533158829+533374349+533599357
4276+532999881+532979309+534198762+534796326+534395344+534476694+535158284
4263+535294644+534516275+534184549+534819817+534684326+533512273+533065594
4249+533738149+534376023+534106744+533388840+533206019+533266485+533310617
4236+534198415+535613060+536059912+535321471+535215657+536446264+536873170
4222+536162529+535996215+536237485+536241899+536212291+536638363+537083617
4209+536924288+537445401+538550700+538175294+536918276+536482891+536616749
4195+536991738+538213762+539962669+540538792+539276770+537363877+536085801
4182+536193318+537502183+538478906+538055371+536883943+536147482+536435700
4168+537297296+537753844+537773339+537869875+537819105+537747519+538304738
4155+539093081+539614611+539940707+540258115+541114950+541414045+539614264
4141+537835681+538066213+538794334+539051520+539365487+539619581+539626148
4128+539786590+540745451+542370960+543177547+542392783+541041801+540273301
4114+540862942+542482230+543068744+542066062+541569726+542430939+543131155
4101+542580956+541594190+541555930+542446577+542977073+542703311+542568446
4087+542753143+542623768+542800299+543813162+544583122+544052695+542596454
4074+541808181+542128647+542149046+541777358+542045768+542478199+542804017
4060+544163200+546207345+547257947+546933449+545919544+545384599+545715317
4047+545411913+543807602+542839671+543423161+544097106+544604701+545319339
4033+545789717+546203244+546203870+545408056+544618011+544334936+544398181
4020+544398633+544668398+545600954+546439719+546915206+547140769+546842612
4006+546603080+546464079+545860399+546351732+548166212+548672626+548016717
3993+547816034+547596274+547378113+547351390+546597450+545926911+547107027
3979+548937457+549202983+548451024+548981208+551397630+553024842+551985151
3966+550406625+549826123+549261502+548645729+548682634+548782888+548400324
3952+548508640+549301187+549548817+549499923+549630028+550247261+551911064
3939+552431066+550392343+547994059+546900958+547395939+549444254+551082689
3925+550512196+549735460+550762571+551671114+551048982+550363882+550745821
3912+552158902+553965390+554726315+552750594+548440043+546242060+547251274
3898+548893811+550308073+550787348+550248651+550988899+552951519+552686931
3885+550102387+548447202+547950900+549674196+552001693+551440443+549187728
3871+547910207+548751231+551042553+551593378+551267004+553032591+555009042
3858+555146027+551892438+545063230+545824815+552301100+556077749+556522864
3844+554825422+552174748+549346050+547669875+549827861+553750147+555644588
3831+555639028+555701370+555866572+555175356+552225727+549094702+551649778
3817+555554620+557079839+558508767+559393297+558499766+557010513+556591878
3804+555496517+553306770+554440355+557609224+559962088+562530786+565332276
3790+566320536+564592653+561868483+560681834+561315399+561670268+561601914
3777+562605464+564092181+564903528+564200046+562733588+562300010+563042448
3763+564204563+564049438+562418925+562303624+563132208+560515798+553245471
3750+550293444+553462729+555351818+556538119+559531395+561390529+560002885
3736+555630062+553982487+558966843+564884033+566732360+564463104+562114549
3723+562365862+564113761+566384268+568138039+567839049+564277260+560747407
3709+562984102+567727014+571208009+573015782+574753430+577744585+581044010
3696+583340858+583585221+582181627+580075002+578254857+578425133+579810518
3682+580107389+578101261+574280584+568891527+566388507+567474103+566174898
3669+565240605+567672908+569078588+568396859+567493146+566791018+565262046
3655+563521027+561867718+557120393+549078439+547721583+551663956+553921431
3642+554261253+554111341+553016467+550592816+547688327+543836340+537129175
3628+533086618+536784279+540478188+540076928+535509608+530830254+529286408
3615+527680360+525547012+524205829+522715429+522531218+524235784+524707899
3601+522645025+519884158+518091536+517219307+517102720+517312263+515844138
3588+511985549+509948042+510970079+512385315+512562853+511054522+508977956
3574+508010615+508046825+506881096+502697279+498407231+498084020+499213018
3561+499751716+500062799+500435634+500471009+499395943+497524681+496049189
3547+495381360+495400716+495475151+495032295+494150196+493437853+493309346
3534+493304759+492759077+491294601+490060761+490789924+492161791+492434163
3520+492188758+491879724+491623963+491341826+490738702+490400479+490934137
3507+491383318+490367814+489212927+490083314+491749654+492818917+493494669
3493+493453594+492759460+492291757+492115678+492070433+492089164+491667818
3480+491233371+491981751+493639091+494527444+494351956+494329194+494741054
3466+495065134+494697859+493681556+493391704+494503779+495723858+495763438
3453+494642155+493266499+493007784+494368462+496116465+497297832+498318167
3439+499317755+499408314+498232369+497033383+497018580+497762755+498488060
3426+499111131+499687497+500605215+502037686+503481382+504785417+506112978
3412+507000497+506930024+506784768+507447697+508439954+509772831+511618691
3399+512877794+513330415+514066458+515813801+518862121+521719906+523046702
3385+524250205+525992961+527858593+529814194+531448703+533186976+535333807
3372+537024959+538433940+541088192+544973991+548276474+551036924+554656675
3358+559273201+563936466+567685627+571384783+576276530+581643902+586659707
3345+591016198+594442356+597567787+600725604+603884812+607840633+612026291
3331+614700317+616074616+617591461+619735547+621638744+622821084+624726784
3318+627652957+629152010+628736467+628372355+628407383+629044215+630815361
3304+632272506+633173925+634865772+635778242+633785250+630300503+627447444
3291+625511512+624699957+624617182+623103047+619895537+616588988+613204322
3277+609866985+608567259+610388237+612672713+612200250+609299236+606091517
3264+604025828+603159159+602991037+603618973+604608102+604435880+602869968
3250+601516588+600437386+598516605+596782502+596619037+596745875+595688150
3237+594832323+595368518+595715463+594768452+593673126+593664647+594790692
3223+596084163+596108279+595002598+594066498+593340428+592930446+593062218
3210+592956925+592321623+591712105+591586934+591687918+592191309+594203900
3196+596822673+597307647+595347390+593333478+592731953+593027816+593574992
3183+593569710+592627146+592946500+595320632+596693820+596479342+596715921
3169+596873409+595954406+595225347+595498831+596583940+598504373+600250639
3156+601239490+601902523+601632653+601025846+601884383+603572964+604237457
3142+604139878+604162674+603843042+603794878+605222277+606893621+607283170
3129+606853658+606362082+606798475+609191094+612191215+613565793+613283900
3115+612629484+612233124+611656549+610806838+610393519+610406863+610354321
3102+610767501+612178080+613818844+614992566+615713979+615998235+615794808
3088+615697855+616660296+618320520+619341619+618869017+618303145+619991030
3075+622060125+621818125+620797165+620046561+619395968+619735478+620811829
3061+621507041+621402721+620805227+620828579+621784487+622213373+621916885
3047+622526959+623803263+624428071+624423067+624498128+625457163+626502796
3034+626184762+625654266+625902452+625808557+625672753+626775028+628502807
3020+629629060+630362150+631214849+631539277+631022681+630770603+631588136
3007+632774924+633237657+632893074+632591999+633666196+636204835+638473048
2993+639610561+639763253+639311848+639597703+641395121+643518217+644637243
2980+645288600+646241589+647043831+647187627+647031807+647785122+649546538
2966+650652428+650643393+650687109+650956909+650964345+650841608+650419393
2953+649794029+649938451+650916321+651714254+651860691+651683952+651868892
2939+652858369+653956822+654668297+655559847+656439861+656717375+656545362
2926+656468981+656814050+656593039+654891462+652908687+651985514+652163782
2912+653296360+654801390+655659789+655667712+655218531+654980701+655966911
2899+658172921+659890066+659655086+658273627+657756545+658668737+660165983
2885+661441314+661885769+661489339+660710448+660194756+660681606+661589697
2872+662317088+663883973+665952234+666479324+665637397+665778344+667625941
2858+669135141+668717583+667703295+667538162+667440028+666845174+666258035
2845+665851319+666015340+667013504+668314064+669509817+670700914+671695186
2831+671493149+670396642+670481710+672038518+673275277+673269439+672935489
2818+673587333+675099730+676573763+677566992+677822893+677903027+678727579
2804+679880172+680549808+680810226+681037353+681294643+681391735+681433436
2791+681545123+681488271+681487993+681987006+682954937+684297684+685615341
2777+686354894+686430371+686061811+686145350+687138371+688106650+688596489
2764+688921611+689664709+691292893+692785066+692955620+692322124+692207379
2750+693231397+694743030+695386950+694578314+693693991+694428541+696298517
2737+697593378+697769422+697579408+697494340+697422685+697732795+698546227
2723+699040931+699038637+699313303+700213054+701168545+701566434+701800095
2710+702183528+702851357+704444652+706252148+707284645+707832169+707929121
2696+707844331+707694975+707301325+707426495+707795750+707683299+708065203
2683+709323437+710464911+711090692+711385791+711479338+711563503+711339781
2669+710748542+711080128+712774894+714382715+714747522+714239127+714165387
2656+714959915+715866964+716519781+716739958+716582887+716838023+717209781
2642+716858387+716550222+717091004+718241513+719516080+720504027+721397454
2629+722130196+722121926+721774355+721567383+721527489+722094126+723058721
2615+723927406+724902079+725757350+726238918+726586906+726582667+726326002
2602+726830991+728303843+729893802+731237313+732193012+732437306+732227624
2588+732072290+732088345+732063394+732017176+732397204+732899136+732716767
2575+732450303+732965231+733678791+734029211+734221380+734652352+735549601
2561+736427599+736815133+736945098+737515905+738940523+740341580+740833573
2548+740426371+739521754+739357455+740220580+740658571+740192780+739772233
2534+740491423+742444313+744001399+743832305+742939642+742920252+743796303
2521+744592916+744491029+743828760+744062698+745727857+747472663+747396560
2507+745667322+744852361+746012044+747400730+747877642+747969104+748345031
2494+749454952+751081330+752395373+752882917+752677196+752141766+751547468
2480+751574087+752456880+753512869+754475031+755244539+755661819+755897008
2467+755966161+755668422+755275675+755369014+755665850+755936415+756638160
2453+757345604+757609010+757926418+758474359+759113067+759447086+758933270
2440+758486869+759269582+760349896+760371858+759765745+760016711+761373219
2426+762390148+762655917+763266060+764209180+764889033+765494242+765769254
2413+765400208+765075710+765603635+766923933+767897772+767813816+767177123
2399+766425755+766000482+766361258+767244399+768042402+768376907+768640731
2386+768978363+768574010+767511281+765811858+762726043+759544109+757858100
2372+756432787+753545464+749730938+746649849+744180432+741285117+739268495
2359+739971282+742624319+745994113+750619639+756073053+759749482+759988146
2345+757953454+756601255+756734071+756836445+756266889+755678082+756141928
2332+758242784+760677729+761484141+761424996+762366587+763689874+764644669
2318+766708552+769822792+772585362+775051025+777003360+778214195+779283527
2305+780491234+782190170+783927818+784124156+783035225+782894904+784318479
2291+785905798+786763293+786976729+786848014+786645837+786707554+787277874
2278+788284030+789804976+791611290+792526470+792094525+791501271+791349690
2264+791225563+791461308+792190783+792790710+793655295+795275487+796058269
2251+794955438+793862058+793926277+794701692+796310625+797928593+798192555
2237+797672971+798027978+799251810+799762012+799387127+798737368+798177474
2224+798989933+801001134+802087980+801738880+801089260+800971665+801629625
2210+802787849+803837304+804208992+803849119+803164193+802555370+802507971
2197+803145845+803773711+803692117+803165166+803409112+804978986+806663257
2183+806996789+806144368+805584125+806233815+807627088+808808524+809431317
2170+809951666+810700602+811287185+811403389+811288297+810971375+810561323
2156+810933775+812143429+813064030+813410073+813316386+812748568+812275966
2143+812001370+811837419+812461254+813655339+814542720+815255376+815735554
2129+815325294+814744340+815323000+816770623+817752037+817248994+815784899
2116+815464711+816901284+818310195+818709335+818711350+818946470+819767339
2102+820738745+821039890+821109946+821763180+822600034+822961088+822811732
2089+822412869+822576334+823856948+825187879+825300470+824341226+822953165
2075+821692429+821443965+822300696+822930855+822703728+822535607+823029129
2062+823913451+825129985+826177078+826348535+826520479+827140769+827418979
2048+827599611+828179104+828816909+829107699+829342610+829974715+830804202
2035+831502611+831532774+830589654+829711170+830181548+831318366+831559532
2021+831181797+830810040+830552750+831054890+832396594+834124094+835614460
2008+836192911+836034450+835818930+835735738+835631279+835969051+836881312
1994+837248343+836720697+836812159+837974275+838581986+838475998+838793614
1981+839267398+839568960+840161172+840654972+840340831+839770719+839598011
1967+839914794+841272552+843175958+844048813+843683658+842870643+842043589
1954+841750715+842598827+844278442+846001078+846750361+845569481+844257106
1940+844912216+845869305+846399037+847113848+847523413+847786194+848335316
1927+849122130+849538715+849223183+849263563+849578191+849645537+849910194
1913+850142117+850277295+850382936+850927332+852342776+853707763+854715726
1900+855884374+856600923+855656135+853685731+852312057+851569654+851711157
1886+852947081+854130047+854781195+855388976+856146391+856742704+857044961
1873+856996171+855598589+852559130+852123016+856081825+859654421+860231551
1859+859897950+859995389+859742547+859762146+860737653+861285107+860519561
1846+858790740+857657537+858924597+860955954+862626881+864260069+865264697
1832+864117802+861005577+859800649+861033307+862525897+864853324+867313845
1819+868046031+867139608+866357173+866069094+865621234+866197044+868109068
1805+869328869+868748193+867220576+866812678+867799235+867939209+866094670
1792+864591030+866394912+869212247+870713871+871443139+871780424+871165554
1778+870550059+870406958+869053022+865832793+865399250+869295717+873275307
1765+875104973+875264337+875038947+874396834+873313254+873428346+873452880
1751+870558191+866930551+867140303+868941474+869883412+870793588+871900242
1738+872860598+872063846+867842048+866571025+870279008+874258320+876245473
1724+876748517+877730904+877887558+872877209+866076530+868214014+873922424
1711+876774023+876431456+873513137+870319387+869305030+865893953+859689935
1697+860403078+866860008+872774626+875174960+874527425+872803677+868357601
1684+862134610+863960245+868410700+869912949+868280734+866447106+866448149
1670+866487208+867944213+870407027+869851928+866868765+866954111+869960905
1657+871343267+866775426+855506015+853058073+854055056+852155194+854462953
1643+859814758+861758752+860106242+855469805+851207627+854239718+859264663
1630+861803858+862158518+861867729+861787108+864282310+868885387+871061512
1616+871453911+875624210+880669240+882710117+882960249+883890998+885458370
1603+887763557+890751377+893106535+894839665+896745365+898502403+899604956
1589+900313304+901637702+903654602+904979140+905875277+906298534+903453677
1576+900417346+904001618+907029261+905483226+906252456+910344914+911644431
1562+909136929+900881608+891562376+898645921+907748312+912686520+914913450
1549+915791239+914731567+910700825+904869329+898105347+899363860+909177308
1535+915322251+916724559+918791916+920937740+920310290+919816421+920756413
1522+920397513+920789912+923000371+926604937+931338883+933461771+930708793
1508+923381858+920106237+929198759+936902316+937731942+933231725+931480733
1495+936006248+938586310+934867068+930832365+934537289+940976982+944642014
1481+945260914+944807772+942746322+937027069+929523882+927465490+931900793
1468+935335292+933286352+929508800+929604016+928073409+919861735+918405077
1454+929651067+938411099+940402771+939078442+940841179+944763639+947129153
1441+948400036+947809978+946158025+949365049+954432041+956836336+958345744
1427+958348941+954867738+951127021+948143372+942811514+942346487+950027456
1414+954681060+952095370+947650823+945181128+942632967+939563901+936579974
1400+931514928+926499088+925680860+927555771+929817799+930525799+926973705
1387+919830252+915577803+916154448+918337593+919240611+917442498+915164971
1373+916587921+920893537+923903180+924111473+922066425+918217357+916014822
1360+918751606+922541252+923217281+921528214+920851907+921992894+922866166
1346+922550773+922075391+920686635+916826586+914369401+917267565+921770632
1333+924308923+925204227+925466313+925538454+926116836+926915117+926711550
1319+927354081+931008965+934848025+936709383+938665331+941810570+945163544
1306+948664833+952914084+957248195+960500116+963559729+966840910+968444839
1292+969079169+970444086+971523218+972393988+974447584+977790203+981475806
1279+983738946+983903384+983861962+985397780+987471045+988351962+988621206
1265+989079422+988709611+987063843+986407273+987907994+990039639+992376796
1252+994218000+994561331+995056174+996671918+999028813+1001502539+1001677680
1238+999265810+997813322+998458980+998056782+995521826+994139812+995777031
1225+999043617+1001612628+1001783599+1000885724+1001665934+1004088091
1213+1005428961+1004904373+1005494986+1007186833+1007665899+1008367505
1202+1009485071+1009214506+1008562940+1009108865+1010176043+1010128366
1190+1009598078+1010525004+1012494505+1013483009+1013484260+1014129084
1178+1015295439+1015303501+1013984037+1014340782+1017205795+1019354189
1167+1020477871+1021275804+1020951307+1020262003+1019548999+1019100721
1155+1019676462+1021045133+1023178168+1025666767+1027787222+1029291488
1144+1029484490+1028631721+1028406262+1030874497+1036249932+1040059384
1132+1039776796+1038163485+1036984411+1036417775+1034576919+1030578008
1121+1028023871+1028666401+1031520711+1034450707+1035075376+1036123163
1109+1039288000+1039811129+1037360895+1036312551+1037324615+1039592829
1097+1041179660+1040859472+1042313211+1044672817+1041766660+1036610082
1086+1037343102+1045788298+1056342064+1059620604+1055359885+1052418144
1074+1053236163+1054268174+1055359955+1059993334+1066936071+1068685812
1063+1064322719+1061792629+1063194242+1064079399+1065010425+1067004321
1051+1065640585+1060657549+1056823841+1056026880+1056873881+1058159429
1040+1060572967+1064007257+1065190223+1063185416+1061724310+1061685668
1028+1061622492+1062573743+1063653778+1062327086+1061376252+1064061676
1016+1067126502+1067683825+1066580299+1065111618+1064681063+1063534307
1005+1060816010+1060390459+1062823875+1064525730+1063976677+1062295325
993+1061486132+1062821442+1064500432+1063776099+1061198401+1059391183
982+1058758244+1056335114+1053502002+1054819520+1057444757+1058206550
970+1058959517+1059752516+1061028055+1063012707+1063479541+1063023897
959+1063530832+1064350936+1065957645+1069421404+1071870457+1070266597
947+1066277625+1063466545+1062868008+1063353954+1065524102+1069910199
935+1073341779+1073185542+1071501618+1071192898+1071142093+1069113517
924+1067611267+1069127904+1070717724+1069556582+1067122054+1066025200
912+1066231546+1066255524+1066113813+1066677599+1069171897+1072701750
901+1073741823+1072157007+1070372377+1068413788+1067303798+1068790271
889+1069714278+1067818726+1065608962+1063835452+1061611511+1058472180
878+1055178281+1053237206+1052808945+1054306816+1055434737+1051814464
866+1046216628+1044354992+1045347249+1044845873+1042325721+1040351216
854+1038546570+1034923934+1032065107+1033346763+1035396467+1033135274
843+1028309170+1023480842+1016715678+1008708891+1004680373+1005544332
831+1004837861+999004141+992518508+989763097+990203590+990659790+989353601
818+986071447+982085533+979864163+979542098+979089999+976384906+971888025
804+968551592+966943423+966620664+967625708+965156778+956765237+951171919
791+952679242+955320742+955360009+951642922+944470139+937950312+934347901
777+932827581+932712349+932643196+930926121+929506854+930174822+929873051
764+926849369+923055763+918989784+914285167+910568080+908705957+907914139
750+907611743+906043538+902466841+899373937+897672638+895601736+892961418
737+891368401+891900843+894250233+897619540+900837267+901381663+899170371
723+895974606+891707632+890185783+892679594+891450272+886367990+884095537
710+882738960+880055899+879556956+881009166+880436553+875699826+869451120
696+867449301+868312218+866504375+863056115+860678925+860957135+864199535
683+866484775+865477993+863530941+861601542+857628486+851844111+846082532
669+840957577+840692503+845245887+850453270+856014549+856078072+848805208
656+842810665+841408287+842395469+843681921+842924993+842024407+842903656
642+842115522+836792282+828774236+823760551+823831163+823712943+821464120
629+819165049+815665845+811725871+810565007+810217644+806790304+800866720
615+797527506+797499776+795579342+794560398+799000566+802085478+797467528
602+790847550+796795320
##END=
