##TITLE=Sample description
##JCAMP-DX=4.24
##DATA TYPE=INFRARED SPECTRUM
##DATE=25/8/2023
##SAMPLING PROCEDURE=Instrument type and / or accessory
##ORIGIN=Default
##XUNITS=1/CM
##YUNITS=ABSORBANCE
##RESOLUTION=4
##FIRSTX=4397.6552
##LASTX=599.8556
##DELTAX=-1.9287962
##MAXY=1.85258
##MINY=0.88130075
##XFACTOR=1
##YFACTOR=1.7253495e-009
##NPOINTS=1970
##FIRSTY=0.94467396
##XYDATA=(X++(Y..Y))
4398+547526132+548634416+549398755+549396095+548757194+548521933+549571245
4384+550111068+548699190+547509412+547618198+547308179+545924111+544822875
4371+545855225+549184291+551893663+551797969+550528872+549308796+547763259
4357+546794370+547128503+548099257+548973109+548987860+548136153+547709712
4344+548543144+550842070+553313175+553266779+550802549+548237961+546930725
4330+547013256+547725119+548543800+549440349+550407303+551131016+551502839
4317+552657795+554598613+554748752+552475390+550933514+552212664+554423532
4303+554121492+551221735+549056780+549134061+550519268+552305802+553794303
4290+554297333+553799381+553173919+553276314+554485784+556547998+558076919
4276+557357835+555147694+553538452+552379973+552093065+553543496+554523716
4263+553936703+553418058+553149771+552117213+551240459+552097521+553357567
4249+553295522+552723675+552274710+551943652+552402670+553509882+554262856
4236+554966912+556468196+557463236+556011527+553029653+551419341+552343146
4222+553986968+554964218+555456435+554876850+554290355+555363989+555810259
4209+554519571+554460220+556292320+557847185+558475481+558831274+558990844
4195+558636536+557963054+557452389+556956371+556479458+556879609+558090806
4182+558806332+559167307+560101270+560455371+559033889+556644210+554710232
4168+554454036+555889716+557644812+558631354+558923617+559207243+559449344
4155+558938886+558155926+558121933+558566614+559340523+560370421+560267853
4141+559015027+558305167+558726530+559789212+560314041+559533914+558590244
4128+558822016+559650854+559812082+559734041+559711068+559135041+558587169
4114+558353808+558640820+559780368+560585749+560996264+561705467+562110455
4101+562493471+563227962+563017264+561420010+560342369+560835174+561552530
4087+561853153+562327855+562652384+562474643+562274136+562515961+563264374
4074+563839227+563727158+563597954+564286568+565213241+565032218+564324535
4060+564923604+566955797+568419563+567895771+566703885+566011471+565170127
4047+564099776+563747022+564397255+565226922+566012542+567146701+567750365
4033+566960150+566373863+567090494+567502529+567201284+567097507+566852711
4020+566310574+565915915+565807198+566293784+567508782+568295334+567511994
4006+565886793+564921393+565175482+566505381+568316961+568997663+568097833
3993+567666797+568614612+568878374+567207191+565945211+566664813+567583402
3979+567738757+568308669+569358742+569343507+568744991+569324230+570507031
3966+571509706+572534629+572627455+571083749+569240317+568266937+568105122
3952+568892573+570075235+570177009+569613729+569294590+569476649+570818397
3939+572067147+571370207+569227673+567618985+568288529+570312534+571558520
3925+571875414+572543335+573769836+573496125+571396601+571501553+574432955
3912+576276559+575464822+573094005+570042485+568115382+568187550+568517226
3898+569363441+571023016+572193725+571957186+571410005+571250470+570508136
3885+570489170+571546394+571973906+572721387+573070306+571988139+571585155
3871+571947133+572204952+572497630+570909600+569735229+572608696+576061127
3858+576839562+573570676+566274300+566446859+573496539+578576175+580089965
3844+578106586+572964939+567117267+564908438+568810905+573899938+576314974
3831+576753541+576612350+576970113+577347498+574549238+570063696+571067857
3817+574225642+576302814+579112198+581646005+581466156+578035490+575853434
3804+576367139+575909572+575949784+578314659+580869332+582127789+582603148
3790+583670632+584673169+584000550+583238249+583517591+582883250+582785138
3777+585719511+588403077+587233749+583268443+581618022+582828667+583821116
3763+584427337+583517799+581491099+582215191+583248337+579747403+573255440
3750+572744878+577067464+578172259+577165887+580048855+583360198+583009206
3736+579917440+579605624+583599121+587397845+588056092+586265759+585441758
3723+586584691+587952660+589223899+589938527+588956165+585897563+583307618
3709+584319552+586706502+588004273+587961159+589974386+595639791+600708718
3696+602847901+601687072+596834682+591616239+592597979+597255389+600225482
3682+599894182+596913863+592542705+586827484+584567941+586794872+586748096
3669+585668935+587841490+589964851+589380602+587306435+585748875+584042697
3655+582442023+581981174+578281495+568747063+565627211+570254082+574810789
3642+576773785+575730483+573307881+571395288+569819937+567771127+563896228
3628+558971049+558133989+559721294+559648954+555830296+551486775+550488833
3615+550242379+549634120+548619906+545389367+542634325+543353409+544215273
3601+542917329+541249808+540571766+540537806+540613601+539994426+537332797
3588+532793052+530981853+532209633+532760613+531953194+531048977+530179132
3574+529052194+528277214+527287494+524267584+520698974+519999961+520677348
3561+520892779+520354684+519289756+518381358+518417770+519333941+519895078
3547+519305889+518203306+517517629+517094331+516723026+516717810+517082516
3534+517114403+515789582+513344007+511768587+511543206+511660387+512379747
3520+513406605+513857677+514450390+515173447+514607231+513498878+513537709
3507+513925008+512972184+511108474+510919850+512538281+513498913+513461534
3493+513285105+512306163+510914012+510795483+512033316+513617891+514736124
3480+514904641+514528673+514201138+513816015+513357514+513563826+514498375
3466+515152443+515101521+514426104+513406812+512931764+513257503+514351864
3453+516735809+518914962+518513084+516954453+516492084+516876862+518291917
3439+519995989+520063423+518996941+518275059+518617794+520029464+520768550
3426+520406365+520965188+522345594+523223937+523856412+524298538+524741077
3412+526067521+528028031+529314988+529743329+530291028+530844393+530999057
3399+531608836+532807804+533740384+534972724+537158061+539373903+541317554
3385+543722399+547116342+550943360+553345234+553446628+553301671+555473432
3372+558944276+561651540+563777216+565350840+567714436+572814835+578738855
3358+582858998+585217413+587279765+590627382+595321757+599661547+603054765
3345+607142642+612744275+618946324+623772528+625943079+627442808+629464741
3331+631100445+633054321+635388830+637445654+639957870+642445488+643698763
3318+644583151+647019365+650474006+652120558+651938153+651841353+651904021
3304+651912865+651243631+649088488+647190922+647294907+647715475+646422402
3291+643921656+641551979+640124038+638942758+637045607+635286918+633856558
3277+632621523+633087969+634159115+632121706+627716070+624655396+623272157
3264+622401035+622228372+622621510+622572247+621434357+620227305+620302133
3250+621112868+620994167+619883776+619466662+618886835+616045461+612990660
3237+612774261+614847668+616617757+617286023+617434227+616098801+613810377
3223+613258256+614450937+615319296+614913375+613941377+613249965+612849918
3210+612899250+613316225+613612357+613881612+613901856+613167123+612204522
3196+611896091+612495472+614088545+616168861+616896478+615192027+612862355
3183+612338907+613668737+615473718+616792010+617298115+617762073+618677622
3169+618406502+616749172+616082772+616152901+615567270+615991776+618508621
3156+621331340+622965109+623413038+622554559+620759458+619908856+620515975
3142+621749282+623765687+625466408+625354684+624802495+624939367+625032574
3129+625682185+627940207+630132661+630380774+630084504+630853092+631735062
3115+631627139+630939251+630520963+630565321+630619006+630551571+630559033
3102+631156686+633101166+635431598+636342311+636046593+635835169+635831922
3088+635674390+635836067+636433651+637224419+638522397+639861001+640375121
3075+640384311+640788849+641410408+641178809+640130809+639164891+638397892
3061+637813021+638282368+639799302+641020241+641571740+641971788+642668036
3047+643596713+643835429+643174763+642496962+641892469+641221439+641418907
3034+642614765+643919929+645467401+647374294+648342700+647669735+646462960
3020+646058145+646932308+647973744+648128650+647816350+647162249+646952414
3007+648062597+649592865+650648535+651404065+652855913+655074484+656736995
2993+657259614+656975089+656624650+657202267+658873760+660368031+660840626
2980+661319647+662853508+664795500+665749257+665168325+664022351+664714247
2966+667626095+669730594+669791741+669468317+669769148+670268620+670261089
2953+669630340+668643694+667812991+667526463+667819279+668627941+669669585
2939+670622444+671565285+672818698+674221766+675184851+675506547+675857608
2926+676653350+676841767+676013758+675267417+674609170+673331574+672149879
2912+672429844+674408455+675918548+674942819+673535813+674009997+675393581
2899+676506459+677111436+676957152+676619979+676806460+676864429+677029284
2885+678308469+679420380+679325308+679141936+679601542+680340904+680711173
2872+680551637+680658731+681805534+683389004+684148748+683703030+682999182
2858+683205009+684103078+685001423+685654350+685504557+684400730+683382923
2845+682918067+682492455+682875989+684603517+686067871+686767229+688047035
2831+689783753+690885852+691280027+690932283+690507776+691195250+691983807
2818+691678209+691350364+691801954+692248916+692573514+693748299+695643101
2804+697347760+698433070+698565659+698363908+699174229+700513593+700905488
2791+700260368+699641227+700198392+701511778+702663072+703913445+704897396
2777+705261653+705507416+705437218+705001588+705051680+705424919+704999998
2764+704285233+704785603+706776168+708983822+710199096+711123696+712188486
2750+712316515+711787333+711973124+712822482+713450467+713416749+713146665
2737+713726216+714698560+714894576+714898722+715393564+715936081+715635735
2723+714831494+714856022+715579148+716784610+718973471+721347709+722407731
2710+721834882+720921337+721159845+722255381+722728529+722625166+723172105
2696+724162205+724676256+725191827+726285152+726803348+726114976+725793211
2683+726587502+727251553+727148674+726872648+727380411+729036014+730461883
2669+730610087+730386295+730647880+731357187+731892726+731746595+731038946
2656+730332126+730854537+732519053+733475850+733727417+734524265+735514365
2642+735802897+735160195+734295637+734412058+735134562+735312821+735846494
2629+737350300+737969717+737567597+737976350+738926653+739479327+739801437
2615+740185870+740635250+740502730+739997592+740266225+741160424+742426689
2602+744275958+745657470+745847129+745974813+746688818+747236725+747437646
2588+747694395+747994258+748363767+748706467+748785164+748972129+749726347
2575+750455345+750314948+749975841+750655714+752161247+753297410+753272882
2561+752430847+752219492+753368161+754265608+754078228+754427907+755468721
2548+755710615+755047946+754528575+754819594+755598685+756040879+756004674
2534+756246776+757116585+758067648+758184415+757482708+757616196+758772119
2521+759591007+760345432+761245711+761778693+762266558+762666536+762636274
2507+762687264+763173678+763677710+764201365+765080985+766086286+766644004
2494+766398586+766114476+766764294+767604187+767319455+766404459+766475486
2480+767515126+768323650+768764877+769203548+769447169+769461678+769910713
2467+770661614+770635635+769972136+769506658+769211217+768973330+769578998
2453+771443123+773257846+773723946+773440458+773558814+773700386+773579819
2440+774264321+775367734+775432267+774449628+773262199+772719267+773500293
2426+775428259+777029002+777203669+776674279+776575684+776973590+777371702
2413+777968526+778681288+778794669+778789764+779175855+779330208+779401581
2399+780175421+781613795+783368408+784735755+784915189+784395749+783994942
2386+783653968+782695927+780779085+778818506+777607931+776485241+774542765
2372+771428060+766597159+760921942+756951937+755276505+755878925+758607954
2359+760395455+760191976+761415058+765595727+770615667+774101608+774280144
2345+770997405+768066625+768443043+769843140+769956867+770015112+771555882
2332+774071690+776545283+777954639+778443885+779061990+779736957+780833461
2318+783558413+787328947+790097290+790549641+789492866+789508550+791259569
2305+792948682+794000828+794878721+795860461+797278661+799113697+800830931
2291+801683053+801956246+802033492+801784205+801884320+802051801+801389270
2278+800671464+801037380+802467256+803723710+803973964+803960836+804367517
2264+804897597+805225719+805170583+804493473+804040224+805142254+806919806
2251+807506128+807333879+807693093+808379599+808849776+809301781+810185133
2237+811311899+811910589+812091612+812711029+813376324+813084269+812575953
2224+812845069+813325126+813531299+813638048+813952835+814537153+814659931
2210+814038579+813814787+814680451+815390311+814950742+814597885+815496852
2197+816829653+817700983+818094190+817704645+817107061+817660978+818807643
2183+819202024+818923580+818581847+818559323+819082770+820028789+820952491
2170+821349499+821064422+820659538+820842703+821633332+822463828+823036400
2156+823632533+823984838+823464500+822857243+823388497+824346401+824676802
2143+825342305+826501890+826536643+825734683+825503222+825664139+825613149
2129+825577911+826017134+826834434+827643096+828010255+827802770+827700098
2116+827867579+828238054+829644025+831411281+831742374+830889354+830227375
2102+830477975+831356836+832013356+832282956+832378028+832220151+831994425
2089+831826874+831593272+831919459+832956197+833744201+834174165+834403761
2075+834331628+834227021+834426561+835279443+835954757+835556506+835173593
2062+835808971+836799762+836973254+836477029+836463418+837057409+837425467
2048+837587559+838328441+839001474+838988554+839266653+839667598+839546133
2035+839754655+840414630+840307467+839592633+839485401+840017485+840950307
2021+841944898+841963761+841415647+842184029+844171346+845290857+844989889
2008+844307873+843826849+844499675+846607905+847894689+847267603+846311565
1994+845426486+844239817+843627931+844098246+845494197+847682782+849409619
1981+849088337+847735500+847613136+848822399+850091980+850343892+849334308
1967+848575047+849668717+851256056+851587632+851791249+852546779+852560114
1954+852097607+852489432+853294502+853433102+853385152+853912399+854843770
1940+856080256+857071807+857058679+856306397+855645938+855933503+857368423
1927+858524208+858176187+857674780+858266906+858564143+858144957+858478744
1913+859717303+860777878+861107036+861263393+861460308+861488083+861787048
1900+862311048+862179218+861312449+860988680+861445660+861276659+860920140
1886+861596904+862578368+863783554+865650926+867109821+866968250+865773911
1873+864472755+862566967+860215669+860517121+864122524+867614199+868615285
1859+868067241+868221801+869553013+870598940+870110730+868659919+867327395
1846+866083309+865980775+868617081+870983580+871040651+871061931+872416427
1832+872525939+869761052+868046997+869613469+871414719+872620873+873772996
1819+874607292+875093706+874637486+872809427+871190375+871617369+873011386
1805+873950979+874141814+873576565+873856460+875714643+876741501+874619867
1792+871829415+873582369+876832358+877913177+877929068+877783144+877280977
1778+877911795+878906179+877299080+873360028+872016311+874341906+877449909
1765+878822922+877768151+877232060+878504542+879311616+879910098+879884326
1751+877882085+876369712+876746406+876691754+876786895+877454539+877438578
1738+877897355+877817345+874135250+873027968+877528123+882758865+885832114
1724+886620463+886748907+885360348+879366683+873394436+876067845+881063603
1711+883689200+883587357+879887781+875903819+876076413+874571295+868634769
1697+867941354+872342913+876822547+879418502+880273112+879936422+875761281
1684+869074061+871102005+876635512+879169008+877516791+874720397+873741144
1670+872430039+872860142+876072129+876737770+874261275+873680066+874241998
1657+872679326+867781749+861107312+861557452+862534079+860098211+860907979
1643+865024807+866590658+864488785+859403828+855484261+859741278+865716288
1630+867942321+867271568+866632321+866891903+869815151+874836404+876905251
1616+875770954+879158022+885200951+887992301+888126203+889642100+892043076
1603+894030462+897101915+900582329+901962320+901957898+902746040+903698485
1589+904374558+906340042+909259836+911190566+911952107+911948929+910013362
1576+907896911+910152653+912221638+910326146+908894888+910844756+913511256
1562+916105692+915038968+905392295+903397516+908698387+913989240+917278128
1549+919603793+920946543+917090058+906762337+897062187+902370451+914963726
1535+920696289+920459784+922296894+926619065+928788649+928502052+927093871
1522+925339189+925422999+926939310+930096093+934423515+936259588+932652666
1508+922549566+918420717+929705926+939048451+942461914+940655205+938379840
1495+940890881+942555880+937651256+931780507+934643092+940682842+943982302
1481+944690918+944775004+944191377+941098367+935741737+933557229+936352933
1468+939113675+939067797+936808669+935087359+932682238+927169182+926581617
1454+932924546+936241279+936006639+935449544+938319729+944164707+949078313
1441+950929793+948502286+944450820+947871261+955053530+957360471+957707593
1427+960951778+962320645+959259971+955067072+949165992+945433804+948095398
1414+950653560+950263462+949124743+947989962+945400018+941996090+939237282
1400+935896574+932185598+928746710+925753332+925967658+926873189+923959613
1387+920952416+922929024+925786496+926706467+926953129+926695482+925206393
1373+924267214+925628688+926573187+925321571+923612629+922475982+922304010
1360+923792339+925277351+925084513+924869773+925532580+925691770+925856902
1346+926562202+926918582+925815654+922576927+919970193+920948685+923441900
1333+925646307+928017366+930432644+931558788+931471800+932939954+935579853
1319+935635680+934645925+935855050+938010470+940357622+944060031+949004798
1306+953797975+957054182+957951007+957794028+959540695+963811807+968231952
1292+971444631+973622298+974454591+975099503+976906626+979176326+981932025
1279+984936803+986359701+986155255+986289641+987551138+988583454+988244899
1265+987515417+986963779+985849657+986054379+988703537+991087792+993140333
1252+996426043+999167923+999338306+998061332+998212784+1000404270+1001241952
1238+999164745+998068587+1000048857+1002684196+1003991017+1004014924+1004327154
1225+1005387936+1005872415+1006224927+1007155331+1007577557+1006446991
1213+1003525677+1000754916+1001448954+1005452193+1009491498+1011357695
1202+1010449677+1008140871+1007770810+1009568951+1010438899+1011515849
1190+1014387416+1015691129+1015492625+1016419229+1016780930+1016216235
1178+1017367045+1018455810+1016523836+1015170100+1017651431+1020801650
1167+1021301260+1020753630+1020700429+1020240616+1021255589+1023876073
1155+1024334366+1023476440+1024550972+1026833523+1028207641+1029680562
1144+1031622278+1031352194+1029469346+1028828717+1029859651+1031392476
1132+1033536703+1036266146+1036768589+1035219942+1033686150+1031109402
1121+1028779316+1029031021+1030396019+1031800607+1035061029+1040811487
1109+1044556595+1042372985+1038837159+1037800145+1036453388+1033753861
1097+1030956983+1028344652+1028365795+1035085004+1046702411+1053516208
1086+1050813504+1045908604+1046158167+1051447154+1057440889+1059153147
1074+1055740376+1052589604+1052495155+1052652686+1052469659+1054706540
1063+1059531154+1064019908+1067096474+1068996389+1068556060+1066327264
1051+1065591701+1068146271+1070534603+1068652583+1066518029+1067417618
1040+1065990851+1062036184+1061285352+1061806589+1059418326+1058300265
1028+1063234945+1069277666+1069959128+1066751355+1064261388+1065969432
1016+1070934719+1073741823+1071090524+1066296103+1065624935+1069801942
1005+1072843547+1070936239+1067896362+1066665611+1065469200+1064553443
993+1064621500+1064398399+1062831304+1059780372+1057093421+1057475504
982+1061420843+1064650035+1063535084+1061779711+1063547797+1067575771
970+1070299273+1070137941+1068203065+1066453427+1066166416+1066929408
959+1066938044+1065209687+1064867470+1068255645+1070984121+1069277251
947+1065635092+1064402959+1066839242+1070021727+1070046255+1066455154
935+1064544807+1067662552+1071459618+1071489673+1068359837+1066903429
924+1069914495+1072846725+1072985809+1072308907+1071488429+1070640384
912+1069156339+1067966146+1068522550+1068614996+1067499424+1067973677
901+1070381769+1070517744+1068934896+1070862586+1072167750+1068144474
889+1064548054+1064338150+1064615558+1063517258+1060226505+1056346113
878+1055678952+1058047109+1060809648+1061589913+1056661176+1050034551
866+1049304378+1050088513+1045423572+1039670350+1039978366+1044721312
854+1045636654+1039951834+1033781982+1030790401+1027291125+1021830718
843+1018701227+1018732526+1017452513+1011832501+1003463494+997858821+998511127
829+999908184+997046220+995031819+997265936+1001383247+1003449261+999151341
816+992235494+988502200+986151593+984610477+984074248+981669403+977741130
802+973488811+970207662+969413232+968337318+964775721+960230242+955468433
789+951515977+949598098+947898000+945517752+944307660+944359410+945190044
775+945052273+940912300+935086254+931359524+928684043+925906234+923995679
762+922433490+919815770+916288097+913855131+913365885+911879767+908817849
748+906941840+904905675+900466598+895744587+894060103+895561352+897003596
735+897056729+897524003+898378544+897923153+896841919+896457141+895275239
721+893271409+893841217+896323861+896180908+893990043+893284191+892720393
708+889768195+885499432+882302921+881366575+880978480+878583308+874508835
694+872684369+874835437+874527352+868598910+863469734+862119108+861951281
681+860380870+858530219+859412050+860981701+860408024+858496156+855265720
667+852214028+852482523+855061206+858951754+861162448+858407372+851722502
654+845634525+844836917+849296583+853548487+851688784+845246499+841148811
640+838796683+832967459+828983082+837281892+852615043+857724389+853884071
627+853083285+849432903+833716702+819223651+818971876+823778388+821430061
613+816010143+815174741+817829081+817935207+812711305+807814489+813111353
600+825218352
##END=
