##TITLE=Sample description
##JCAMP-DX=4.24
##DATA TYPE=INFRARED SPECTRUM
##DATE=25/8/2023
##SAMPLING PROCEDURE=Instrument type and / or accessory
##ORIGIN=Default
##XUNITS=1/CM
##YUNITS=ABSORBANCE
##RESOLUTION=4
##FIRSTX=4397.6552
##LASTX=599.8556
##DELTAX=-1.9287962
##MAXY=2.1507215
##MINY=1.3019004
##XFACTOR=1
##YFACTOR=2.0030155e-009
##NPOINTS=1970
##FIRSTY=1.3898889
##XYDATA=(X++(Y..Y))
4398+693898205+690763793+687377275+685384299+686471577+690949896+697177179
4384+701132242+700512751+697320907+694805926+695005063+694221966+688931328
4371+684396054+684306960+686947101+691137427+694248688+694832886+694651366
4357+693724064+692443541+693517012+696871034+697616220+693803874+690733678
4344+691710556+693806909+695176466+697430712+698844191+695690020+691774891
4330+692386229+693194977+690663748+690143231+692958762+694965902+694677255
4317+691956769+689339898+690711241+693920463+693709662+690930375+690336237
4303+692611790+695367390+697124389+697584499+697020119+694878296+692619527
4290+694100198+696486984+693536176+689406019+690978046+695132663+696201194
4276+695823691+697212233+698878710+699520162+699550098+697625445+694868536
4263+695329776+698645471+699864158+697259190+694987328+696122337+698402650
4249+698455559+697430474+698420088+699802858+698024195+694556499+693562303
4236+694696776+695302281+696780274+699354710+700163042+699394347+697831129
4222+695739061+694730104+694462406+693457140+692748555+693742276+696831278
4209+701984020+705909504+705396188+702350334+698313259+693740728+691858926
4195+694700823+698400567+697408632+693532724+692994292+697009406+701192769
4182+700915370+697761734+695778816+694040088+692782598+694539240+697163788
4168+698001520+698243150+698797234+698686655+698805269+700351347+701255200
4155+701212885+701635084+701838863+701318345+700468115+700077221+700197501
4141+700310520+700147747+699871002+700392650+701008154+701691325+703524146
4128+702860853+697722157+694570783+696621667+698736946+698946855+699563429
4114+700119536+701008808+703999968+706697600+705759526+703271387+702351108
4101+702487992+702916856+702992083+701785061+700760333+701666805+703634249
4087+705142595+705355480+703695252+700835025+699687339+702149828+704922568
4074+704398480+702441213+701616634+701706502+702784912+704822464+705422613
4060+704545541+703947416+702216247+700368011+701970093+705348993+705474331
4047+701960690+699251690+700053891+702807884+704818536+705070403+703348756
4033+701521351+703279124+707447786+709119203+706778600+702732360+699945158
4020+700136558+702471209+703965568+704474778+705842014+706469837+705231689
4006+704424190+704795682+705544023+707006245+707427372+705231213+704626958
3993+707342623+708554644+706547563+703418567+701008927+701436006+703299775
3979+703729770+703970925+704548100+704435974+705478497+708950121+711967884
3966+711994546+710552619+708918816+707056892+705732328+705243532+705656030
3952+706090786+705440229+705691203+706987498+705789760+703761016+705505814
3939+708222908+707931523+706536851+706290042+707450226+710344496+712346756
3925+710287302+707049215+706883346+708889654+710013593+708934766+706994163
3912+706215411+707422016+708605946+707731255+706197973+706633622+708065848
3898+708426449+707834514+706205472+703575627+702982144+705097959+707147593
3885+708898878+711004456+711496704+711292509+712635463+712513933+709569076
3871+708015439+709123250+709222818+706528102+704974763+708316823+712399486
3858+713999187+710986007+701165035+698668861+705202943+710832815+713206508
3844+711761189+707989848+703342626+699544741+702305995+709434929+713553242
3831+713681199+713345475+712696168+711459984+709570742+707149319+708706705
3817+711437249+712050907+714289144+718097503+720001444+717482119+714566305
3804+714014363+711457067+710405974+713730596+716852868+718148448+717907829
3790+716893814+716365738+715261439+713539792+713601330+715078133+716364905
3777+717139729+717960202+718945412+717888725+714569281+713087835+714457809
3763+716469770+715467539+711231744+710540954+714309141+716259861+712373418
3750+709041119+711593297+711752380+705960449+704887454+709876530+714122919
3736+710622371+703965211+705279063+710619990+715192223+718580883+720160290
3723+719937168+719862894+720187845+719401594+718258134+716877983+713656738
3709+712507505+715838912+719817246+720455365+719597160+721958771+725225782
3696+726446969+725627984+723043073+720036796+719148298+720423227+722348891
3682+722976535+721725413+719888128+716336635+713903071+715290244+713569728
3669+710890545+713402253+716955352+718703662+718476791+716261766+712525360
3655+710332771+709968599+705697393+697318467+696039492+699919685+703544322
3642+705813447+705708820+703706560+701439339+700761524+701523969+698669277
3628+692005274+690949122+693774711+696381822+694920611+688905201+685705739
3615+684272918+679878694+674989782+673677359+676653879+680082235+680394748
3601+678271732+675967731+674233883+673078818+673063999+674125626+673315687
3588+668447308+665070670+666368988+668645671+668265431+665829961+665370685
3574+667010202+667251832+664737744+660865525+657912633+657407292+658625920
3561+659559411+659302664+658514924+657392711+656074634+655525312+655936500
3547+655904362+655455917+656029522+656592236+655448954+653238035+652028573
3534+651800274+652024169+653199707+653935371+653321237+651795572+649970190
3520+650039287+652097372+653374086+652965933+652741264+653398904+654025655
3507+654098263+652820419+650893445+651606493+655261661+657183159+654874100
3493+652469578+653072048+655420982+657552985+657833895+655312070+652225746
3480+651582866+652664490+654485110+656259785+656148492+655096447+655431040
3466+656127424+654824940+653048539+653246724+654829285+656484573+657497041
3453+657722840+656958014+655955367+656730965+658014404+656904213+655547868
3439+656755545+658047375+658210327+659191668+660114030+659791162+659693736
3426+660865942+662027435+661085790+658519864+657255886+658498796+661193155
3412+662956998+661910309+661337895+663580536+664372501+663118105+664099327
3399+667254094+669902864+671452990+672121640+672023619+671953748+672647275
3385+674839626+678147584+681165406+683811320+685266519+684960315+684710293
3372+685074762+686619353+690250774+693562719+695402742+697397086+699206221
3358+701079571+705167115+711147709+716046857+719101817+722161300+725461878
3345+727328444+728132014+730638306+734738407+737729567+739361347+741575421
3331+745045021+746416602+744567176+744092723+745610889+746863261+748756133
3318+751077512+752135092+752540984+754362675+757781033+759129820+756412845
3304+754024333+754947231+756566989+756898368+756407846+754351606+750248112
3291+747093941+747384850+748779344+747585534+744429994+743024906+743758249
3277+744944203+746682038+746015531+740535993+734982240+732231758+732175814
3264+735560308+738143970+735178342+729880920+727621555+729962991+733314037
3250+733568523+732087435+731150313+730014709+728294966+727629530+728949868
3237+730479878+730070772+728445836+728056609+728740911+728364718+726815723
3223+725287678+724675924+724810249+724510532+724065301+724285506+723800341
3210+722550051+723940320+727642802+729748082+730360669+730081544+727557755
3196+724879525+725020991+725986621+726090712+728409056+731869729+731669581
3183+729321301+728282290+728136002+728181828+728793939+729558646+730276694
3169+731313443+732377987+733753436+735790512+737568877+737677254+735964891
3156+734638660+734687879+734443987+733232502+731950074+732354597+734944508
3142+736154267+733762482+731562394+732698296+734822264+735251605+734834941
3129+733759387+732901599+734924570+737473594+737829076+738649430+740673532
3115+742922124+745174764+744849157+742473620+742788811+744547298+743774794
3102+742512662+742387740+742435292+742744175+741591252+739550962+740685256
3088+743928997+745254454+744225441+742951227+743486504+745072815+745684568
3075+745776816+746836360+748466236+749008417+749120781+749939765+749476739
3061+747345213+746593480+748008090+749242846+749413237+749872335+750593775
3047+750459211+750614843+751811390+752097955+751077869+749899831+748607762
3034+747518758+746713284+746194492+747761639+751577140+754386957+754728514
3020+753882747+752702209+751966724+752319171+753623322+754965085+754790826
3007+752929140+752102121+754191987+756526638+757263254+758508960+760245486
2993+760469857+759969694+759913988+759423883+758536218+758310954+759310090
2980+761973859+765201709+766954483+766819682+766186443+766556209+767481428
2966+767822151+767828519+768688807+770494608+771244853+770027476+767759601
2953+765535231+764923834+766052654+768335586+771290561+771858095+769961950
2939+770123473+772129066+773268301+774562869+776379026+776759088+775340908
2926+773849583+772953943+771380726+768906215+767797214+769061013+769566950
2912+767629620+765932612+765620694+766032954+767076846+767845600+768000934
2899+768775996+770402479+771590337+771925287+772702969+773496540+772259285
2885+770316659+769626941+769856609+771570043+773849047+774152871+773057618
2872+773044822+775096242+776374979+774745580+773268836+773450119+773715555
2858+773813517+774909246+777719659+780359324+780555544+778993159+777822322
2845+777994142+778144179+776510435+774371945+774752186+776739925+777297401
2831+776555726+775097730+773631401+774437293+777596939+780418779+781474574
2818+782014910+782905372+783100223+782083054+781962715+783530040+782952091
2804+779597950+778472225+781078145+783935694+783982949+782046036+781013809
2791+781315966+781908199+782784735+783882309+784919713+785394523+784946793
2777+785067965+786673380+787883972+787834039+787721140+787510278+787362681
2764+787959080+787526169+785616573+784805802+785772205+787192945+788734798
2750+791099980+792972616+792012760+789986337+789697987+790202078+789802138
2737+789481234+790826866+792645820+792990709+792898461+793901704+794675874
2723+794247009+794239272+795000051+795193772+794994516+795132115+795449032
2710+795860756+796235164+795931162+794826684+794197493+795045699+796304261
2696+797125091+798470901+800094647+800089528+798430848+796888102+796194932
2683+796076974+795892537+795882895+797895868+801273280+802425310+801075333
2669+799913662+799698277+799935087+800764665+801753922+801793143+801221323
2656+801730354+803887294+805820398+805064856+803028077+803243640+804582249
2642+804240574+803232511+802704971+802689140+803551213+804757104+805536511
2629+805544367+805164186+805167638+805612988+806804179+808088392+808208731
2615+808169094+808803999+809792482+810784239+810778704+810107257+809974300
2602+810066191+809984477+809891991+809601201+809290890+809628221+810419234
2588+811128889+812098387+813192628+813620065+813807001+814307343+814416553
2575+814250149+814718472+815056457+814154449+812819113+812355432+812921181
2561+813619053+813765876+813708980+813785516+813864909+813805692+814044287
2548+815054671+816051427+817285588+819185780+819263209+817489962+816904454
2534+817059312+816251219+815517578+815590901+815359388+815199888+816502372
2521+818436368+819503828+819243271+818172182+817887284+818519927+818167242
2507+816974861+816894456+817884070+819267434+820964383+822038151+822139564
2494+821803960+820982476+819855263+819034017+818489158+818251693+818856662
2480+819923884+821092102+822506236+823291714+823176790+822910402+822889036
2467+823228985+823165780+822567536+822397145+822648000+823154591+823412945
2453+822781314+822409584+822779350+823084780+823857700+825539473+826672696
2440+826034042+824733998+824360601+824865883+825370867+825049784+823956971
2426+823817230+825668323+827720456+828195564+827330931+826480225+827201010
2413+828629249+828813745+828462845+828509862+828171579+827210235+826343400
2399+825841035+825982323+827294389+829409965+830758752+829495607+826687932
2386+825880077+827576490+829521080+830834871+830863081+827738013+821685168
2372+815593460+811750582+810239737+809308983+808150168+807040870+805299285
2359+803676611+804192605+806955049+811338084+817314393+823070021+824894272
2345+821194765+817029912+817535015+820543910+822713943+822955752+821485615
2332+819739269+818361260+817620240+818865828+820799646+820975036+821167805
2318+823393008+826565926+828854215+829562502+829738131+830539261+832003030
2305+833393298+834501406+835754255+836813323+836872123+835962617+835925479
2291+837243734+837417339+836568181+836830046+837275396+836966097+837239152
2278+838098607+838102297+836939256+835892270+836534912+838244299+839672300
2264+841370082+842828435+842120803+840482655+840631978+842088546+843332348
2251+844021292+843480778+841827632+840986032+841683785+842318452+842600731
2237+843575050+844648877+844779869+843952850+843211830+843767104+845029832
2224+845179215+844006176+842852420+842423377+842641320+842990375+843284795
2210+843737763+844368145+845337584+846106278+846078425+845861077+846452357
2197+847357817+846462118+844540679+844604539+845969215+845968442+845038700
2183+845190760+846500803+847526661+847468634+847255214+847793228+848643339
2170+849455837+850174658+850270834+849320976+848057296+847461433+847423998
2156+847427152+847489524+848069021+849113448+850337074+851423638+851824471
2143+851527908+850098538+847841971+847296398+849481607+852629291+855046489
2129+855579921+854025987+852289223+851670208+851603790+851900590+852337192
2116+852191559+851855300+852154541+852450568+851612300+850251135+850362487
2102+851992541+852521212+851364242+850857592+852018073+853233546+853075534
2089+852982572+854030748+854694399+854323145+854066398+854104130+852926806
2075+851241582+851702406+853739423+854972155+854453899+852651073+851534276
2062+852436165+854375399+855967125+856623277+856400691+855894934+855597419
2048+856003905+857068151+857632412+857872971+858899187+859431905+857816075
2035+856093059+856590901+857492195+857062319+856526387+856810571+857482018
2021+857966588+858399678+858613396+858283326+858521089+859547304+859778341
2008+859326147+859700019+860423126+860410508+860035148+860335341+861728942
1994+862707546+862122633+861777268+862755336+862931381+861451246+860627797
1981+861459697+862683323+863315134+863204257+862888590+862615238+862030980
1967+861261691+861343048+862217084+862761169+863815833+865639488+866083053
1954+865274424+865317989+865817200+865185092+864344027+864732779+865427913
1940+865883440+867103139+868355570+867971342+867186757+867799999+867994136
1927+866199762+864207084+863678591+864247732+864818837+865192412+866055260
1913+866850260+866271775+865184616+865732808+867519922+868400980+868111857
1900+868239397+869020471+869778572+870704207+871020886+869862428+868598986
1886+868349797+869116349+870418060+870854482+870718729+871143189+871364347
1873+870544410+868646063+866310579+866572087+870113819+873391127+874568808
1859+875044332+876098044+876960593+876540061+875290486+874216301+872921554
1846+870062518+867731199+869938250+873195620+873722149+873140034+873575445
1832+873863080+872680995+871047430+870180298+870982678+874132980+877329288
1819+878265398+877629719+876675993+874482392+871792616+872368661+875867245
1805+878073046+877332978+875105930+873474269+873441000+874099652+873663229
1792+872725215+874412284+877585143+879614542+880038942+879225433+877967585
1778+878012995+879040996+878202015+873915453+871865938+874984460+878378417
1765+879583772+878561842+877519736+879285543+881523839+881887297+880799900
1751+878143928+875853556+877019811+879285900+879661023+877124616+873930451
1738+874937146+877765949+876044718+874193269+877327562+881023855+882229270
1724+881443078+880929404+880444537+877415049+873808207+875319946+878473879
1711+879306790+878227249+876789785+876338365+877795230+877909916+873949734
1697+870821095+871100458+875095693+879021416+879145088+876552083+872227848
1684+868225590+870595235+873953602+875491765+875884266+876010378+875961576
1670+873638173+871703522+873344170+873717209+871684953+872274627+874943692
1657+876676112+874734557+864123108+858797535+859432797+858496568+861174739
1643+867311679+870044425+868586131+864775570+860324093+860544893+864012172
1630+866669275+867652164+867480820+866325338+867072846+871071414+873448678
1616+872253678+873563780+877167646+879504677+881365887+883838493+885034148
1603+885123718+886415727+888983617+891481636+893458126+895969179+899145014
1589+900796731+900482790+900527248+901502400+901704036+900554982+897662557
1576+895554896+899292075+903301416+903674396+904322514+906195924+906888499
1562+907377473+905810148+898959447+898930284+904083502+908546822+911016810
1549+911757890+910576459+906491415+900918558+896340195+897406286+903813780
1535+908346495+909752654+911253025+912836062+911974524+909901977+909317302
1522+910193957+911531317+912061118+914297153+918809752+920693459+918108785
1508+910926288+904964263+910736078+917751577+922158239+923481732+922141575
1495+924037185+926920623+924520029+919843467+920867361+925343120+928543356
1481+928225666+925246409+921100481+915686112+910013270+909997498+915430495
1468+918791362+918445461+917831386+918655073+918374460+913443293+907474899
1454+910580268+917283076+920618470+919340744+918970680+921728958+924216265
1441+925248670+925647004+925865483+927108035+928367430+928252685+929235812
1427+931091725+930459617+929823224+930965672+929542492+927649085+930252148
1414+932545674+931156894+928022958+925227007+922656855+921225046+921402579
1400+921185111+919575054+916332384+911977797+910042135+910556819+909172979
1387+903787653+899727010+901822590+907011576+909526378+908937062+908151405
1373+908120636+908046540+907143580+905469664+903316355+901475915+901637558
1360+903636961+905398781+905641662+904928673+905052285+906592650+908699835
1346+910395237+910746851+909020383+905743492+903566496+904891060+908082070
1333+910006426+910590922+912146463+914306140+914635733+914063081+915500366
1319+918597522+920455815+920000526+918683104+918750416+921920299+927688484
1306+932375700+932775402+931890177+934914011+941505585+946975838+948335278
1292+947606815+948215534+950099180+951294537+952159349+955008089+958598862
1279+960032517+960943154+961626028+960276230+959220793+960555950+963420046
1265+965921338+966301996+966161183+967630428+968466255+967065810+966675154
1252+969204419+971862771+972706157+972402215+971781355+972619265+975239469
1238+976932192+977530793+978449525+978488626+978011614+978630986+979550253
1225+980370547+981319453+981754388+982473328+983847884+983921147+983392595
1211+985359503+988619313+989016218+987160722+987090732+988835293+988942658
1198+987689393+988340546+989996667+991625769+995047043+998724350+999195470
1184+996633591+995940957+998546400+999001332+996814100+998388507+1007171777
1171+1015229858+1009787696+996059748+991218746+998394816+1004517412+1004175678
1157+1003610643+1004797847+1008233999+1011526602+1011657654+1011317110
1146+1010346303+1007840844+1007273191+1009735799+1012673574+1015502674
1134+1018440092+1018606258+1014995369+1011603138+1010924669+1012600846
1123+1017809829+1024342543+1026031457+1022975009+1018143827+1011796443
1111+1006354876+1005247184+1007939401+1013070419+1019136060+1021789949
1099+1021894933+1023976050+1025673058+1025004468+1026234760+1029009940
1088+1028865081+1027357926+1027436604+1031095462+1039067484+1045693874
1076+1047657747+1046956066+1043418857+1040085308+1041179311+1044562496
1065+1047200673+1048727825+1048782103+1046730505+1043362199+1043388505
1053+1046369845+1043768924+1038713608+1041519379+1046394841+1042914528
1042+1038082393+1040942085+1047738211+1053369393+1056368707+1053869794
1030+1049055752+1048731515+1051754635+1054255213+1053531750+1046509467
1018+1037591276+1034201069+1034639337+1034784315+1036640823+1041022787
1007+1045048256+1047323988+1047509674+1045481644+1042368062+1040527266
995+1041486884+1043677152+1043102238+1039706436+1039037489+1040688075
984+1040006510+1039293879+1039828323+1038896081+1037546878+1037416540
972+1038182497+1039254123+1039832251+1039632043+1038313311+1037259183
961+1038824901+1041776722+1043994843+1044313366+1042354255+1041108726
949+1042138692+1043236265+1042582316+1039521226+1035586219+1034191904
937+1036688435+1041452247+1045917174+1048387638+1050659441+1055003911
926+1056778407+1052740082+1049672803+1052907676+1060444645+1068121473
914+1073106204+1073277012+1068190629+1062904753+1061210840+1061420808
903+1061204769+1058460656+1053944783+1053383796+1059838188+1066022144
891+1066074874+1067138049+1071602024+1073741823+1071457879+1065129777
880+1060139452+1060060178+1057528414+1049258698+1043470397+1044626415
868+1049639594+1055376831+1056895890+1051474676+1046052392+1046063343
856+1048684022+1048196357+1044067689+1041430226+1037185742+1028086864
845+1024670708+1028631426+1027802264+1022479131+1022085262+1023925344
833+1019841788+1010956688+1002791718+999999993+1002357735+1003330923+1001409782
820+1000099263+1000964134+1003092863+1004705717+1004671556+1000702864+996282037
806+995077098+990648593+982272405+975963349+970975404+967036826+967490151
793+971574481+975014741+973983109+968726633+965350412+966061734+963905568
779+956402821+951938727+953032432+951992290+948110966+946941676+947189199
766+946331411+946919596+949482547+947522066+938581498+930917108+930833371
752+934771413+934424679+929430723+926873665+926548059+921750622+914563780
739+912960746+913550479+909981013+908119267+912939439+919045788+919256352
725+916305960+915974045+915159346+914278525+918011062+920140148+915143038
712+908780121+905005864+904306504+907964112+912264302+912353932+911254215
698+912591634+912771667+909332895+907451153+908790596+908796309+905976433
685+902532603+902247705+905830026+905970065+901966973+902970573+905548342
671+900179086+891603523+891546329+896617654+897864491+900366498+910424399
658+923009719+929265272+931654141+930805399+916782377+898754715+891989060
644+888023760+880566185+877982940+883795940+901694157+928709284+931137790
631+905777534+880542320+853076188+835454300+837147142+836887062+830826777
617+828970210+820725609+809882469+815877346+829871265+850142639+915794191
604+1008576448+1005906966+954719144
##END=
