##TITLE=Sample description
##JCAMP-DX=4.24
##DATA TYPE=INFRARED SPECTRUM
##DATE=25/8/2023
##SAMPLING PROCEDURE=Instrument type and / or accessory
##ORIGIN=Default
##XUNITS=1/CM
##YUNITS=ABSORBANCE
##RESOLUTION=4
##FIRSTX=4397.6552
##LASTX=599.8556
##DELTAX=-1.9287962
##MAXY=1.9377524
##MINY=0.44995815
##XFACTOR=1
##YFACTOR=1.8046725e-009
##NPOINTS=1970
##FIRSTY=0.64765966
##XYDATA=(X++(Y..Y))
4398+358879326+358090619+358091213+359108078+359986159+359991642+359633685
4384+359172548+358594922+358597829+359461741+359968885+359278073+358581117
4371+358909976+359575291+359901508+360048945+359900518+358926721+357821176
4357+357902260+358964968+359877035+359785052+358842896+358076020+357528086
4344+356546529+355750654+356028452+356716457+356789449+356416233+356077499
4330+355581518+355193406+355870909+357138720+357238728+356114655+355604802
4317+356438395+357438779+357507576+356865281+356396747+356438890+356490678
4303+356023927+355432496+355372550+355741505+356085987+356062372+356075682
4290+356693833+356883909+355569264+354040103+354075674+355372385+356426142
4276+356486583+355854956+355035169+354437495+354312617+354521386+354933906
4263+355100994+354553027+353978836+354224300+355022982+355370700+354920661
4249+354490869+354604848+354765760+354622947+354741485+355041874+354204021
4236+352408291+351583616+352025266+352697484+353729739+354839446+354820488
4222+353922127+352970625+352131583+351826933+352331864+352961839+352978254
4209+352538190+352224391+352370870+352865431+353336310+353694499+354029072
4195+354125414+353883716+353563311+353206775+352727968+352415194+352519925
4182+352733319+352760369+352612998+352269012+351779505+351203299+350835434
4168+350989344+351192796+351040801+350883952+351101507+351524595+351719559
4155+351655319+351497479+351273781+350835500+350041541+349320540+349225651
4141+349576804+349968879+350452706+350808483+350577848+350178243+350305797
4128+350881507+351165878+350613387+349857740+349933605+350725021+351340101
4114+351084894+349898827+348824526+348724617+349025270+349221952+349641473
4101+350300348+350781961+350930851+350823180+350654044+350555290+350168764
4087+349384813+348690136+348367915+348345819+348431593+348494610+348507128
4074+348551022+348625929+348555778+348330957+348051672+347726743+347378629
4060+347284235+347462949+347646221+347914936+347838774+347128045+346776793
4047+347210417+347634166+347442505+347018954+346973805+346920630+346456653
4033+346109661+346079573+345978871+345694698+345563478+345781628+345943432
4020+346032607+346421908+346871220+347173327+347107634+346256702+345304209
4006+345376969+346105632+346377386+345973553+345412772+345298627+345623523
3993+345732350+345607570+345669498+345796556+345792329+345562718+345137384
3979+344936112+345106900+345461521+345759136+345528237+345003489+344835674
3966+344676711+344232319+343987285+344068336+344304122+344552591+344349437
3952+343645181+343129450+343272824+343514259+343162709+343011408+343806490
3939+344317465+343651325+342299589+341108535+341061371+342088871+342713232
3925+342322577+341858732+341668095+341103053+340590789+341174988+342386717
3912+343437700+344033392+343378382+340773566+337587689+336666143+338188567
3898+340344830+341444562+340784300+339293550+339201072+340094940+340045266
3885+339399405+339091386+339091485+340213379+341080693+339878805+337722047
3871+336268453+335956141+336043665+335577641+336235194+338201910+338811870
3858+337411056+333942063+329979270+332504125+337695856+340364151+340349322
3844+338877134+337144586+334846005+332454220+332753420+335283692+337815285
3831+339182147+339190206+338592334+337652490+335271240+332692583+333294484
3817+334953049+336893937+339332622+340311571+338969546+336540373+335293006
3804+334498948+333888228+335323061+337220484+338968951+340620613+341287976
3790+341449945+341447765+340657142+339764132+339386193+338662980+338590550
3777+340122453+341295011+340831001+339278720+338116731+337816936+338268362
3763+339066879+338694753+337311344+336695472+336214189+333994512+329992184
3750+328820253+331121146+333147014+334391772+335786873+336531224+335108842
3736+331826061+331187102+334839697+338449983+339437882+338569676+338074356
3723+338623545+339610817+340865945+341727743+341083236+338646103+337432986
3709+340923182+346384718+351017351+355354351+362021804+370586614+378564781
3696+385271867+389824110+391491262+391760968+392849966+393527006+392080415
3682+388119834+382116904+374945511+366817331+361373498+359525749+356824888
3669+354847339+355296453+355258769+353849532+351917132+349475375+346107184
3655+343490941+341504970+336842678+330724084+330795589+333970104+335489225
3642+335114853+333307828+330699907+328157778+325897345+323170128+318821370
3628+315481120+315645798+315242097+312694089+308644201+305300088+304312189
3615+303502310+301766063+300018455+298275471+296744328+295755801+294327771
3601+292158297+290182003+288621763+287069085+285938836+285138667+283243821
3588+280681809+280078025+280570934+280396216+279246678+277502835+275988008
3574+275057610+274174707+272283493+268753680+265972660+266360590+267139208
3561+266776230+266434275+266306573+265471758+264138898+263173904+262181794
3547+260519084+259168538+259176349+259781058+259951532+259477102+258861163
3534+258540511+257966684+256695817+255479778+254884581+254598047+254611803
3520+255055286+255348624+255015685+254392117+253832591+253411567+253256947
3507+253194293+252689312+252065892+252125392+252244673+251893189+251749650
3493+251740551+251310824+250964195+251085078+251259449+251226933+251156170
3480+251126412+250815041+250380195+250363879+250770371+251348905+251628008
3466+251270381+250747235+250449141+250178642+249999977+250174018+250412810
3453+250232610+249690720+249329526+249408793+249483949+249384997+249668971
3439+250400772+251030317+251490529+251714260+251372173+251000873+251431706
3426+252424163+253162982+253392097+253494385+253683635+253877674+254335640
3412+255091253+255756948+256567669+257818817+259149530+260173067+260905941
3399+261619906+262282397+262874440+263783584+265140257+266807260+268602412
3385+270302889+272045065+273967457+275798873+277561526+279403165+281179871
3372+283368666+286259900+288836279+290916050+293764546+297560614+301389115
3358+304996198+308598953+312062331+315265646+318845744+323211644+327476610
3345+331027842+334468298+338315295+342287666+345883156+349060544+352116984
3331+355008945+357417212+359717179+362151505+363948952+365112263+366761316
3318+369160235+371062150+371919655+372621697+373378632+374073408+374814489
3304+375220634+374885764+373786659+372492756+371361978+369821323+367678799
3291+365594372+363735922+361640727+359292341+357032205+354756645+352098984
3277+349444824+347438905+345693806+343836678+342390515+341517190+340746384
3264+339812023+338761635+337595649+336076000+334427971+333627538+333757800
3250+333697723+332982601+332043914+331113351+330365499+329954763+329264941
3237+327770228+326103770+325157354+324914499+324639740+324288950+324364848
3223+324183029+322976980+321865788+321661675+321376115+320556923+319821324
3210+319630654+319816799+319837937+319691392+319519911+319111520+318474873
3196+317942066+317820193+317886712+317761932+317641545+317606965+317188732
3183+316267120+315530365+315676415+316346651+316709859+316822716+316912651
3169+316682314+316108255+315563888+315490599+315896513+316121863+316051150
3156+316192146+316367227+316152579+315836732+316017858+316646479+317111116
3142+317310638+317512835+317671006+317638837+317605346+317866961+318062784
3129+317850513+317747631+318013076+318266764+318443761+318660259+318924120
3115+319368346+319857159+320011433+319802630+319565655+319452005+319124335
3102+318615672+318554669+318956124+319332510+319661832+320021804+320329426
3088+320616340+320585063+319977249+319256678+319020198+319351171+319754641
3075+319810953+319611663+319429018+319325046+319099696+318862919+318936010
3061+319150295+319214303+319254564+319400119+319460329+319380203+319291391
3047+319130511+318822988+318582578+318530459+318462686+318261348+317984012
3034+317852759+318102780+318540566+318851293+319053094+319235970+319349222
3020+319534807+320083533+320811865+321138215+320815961+320278233+320033033
3007+320010872+319977150+320129178+320797036+321727202+322383897+322784989
2993+323365389+324430937+325670839+326356929+326434049+326582840+327250963
2980+328027351+328255277+328279850+328555666+328605637+328390328+328454766
2966+328719452+328845321+328730483+328360240+327938803+327744995+327769039
2953+327810886+327977644+328616305+329478831+329901952+329808416+329618208
2939+329602454+329711347+329764093+329718217+329620058+329373967+328952035
2926+328727378+328870753+328723811+327917236+327116572+326742266+326546311
2912+326438706+326593508+327093618+327729208+328123495+328142354+328062889
2899+328183738+328507908+328892915+329154958+329181447+329080216+329099207
2885+329302858+329551162+329754614+329843360+329969461+330291549+330502532
2872+330383400+330106890+329972698+330126674+330345913+330442553+330462898
2858+330413290+330290988+330095066+329658106+328885880+328304257+328738179
2845+329968206+330812400+330940516+330966971+331110808+331215738+331316902
2831+331584462+332041965+332516246+332980785+333574033+334120480+334183002
2818+333884364+333969212+334577951+335065575+335235075+335400809+335653605
2804+335957396+336275191+336488717+336605273+336785770+337067235+337337502
2791+337503468+337535571+337549905+337724029+338033335+338267471+338325666
2777+338417450+338786009+339268350+339445908+339289851+339146444+339180099
2764+339439798+339921874+340435128+340834535+341079107+341131952+341056549
2750+341079570+341317635+341640418+342009637+342443889+342729746+342714784
2737+342664185+342849505+343112407+343236064+343357739+343678143+343989201
2723+344052185+344109356+344489442+345096100+345464559+345491015+345573981
2710+345794905+345963645+346107349+346311660+346537605+346758595+347060767
2696+347481907+347946941+348315929+348446687+348420462+348472052+348548908
2683+348498276+348509473+348662227+348724287+348665332+348656414+348791432
2669+349058364+349383558+349658945+349842250+350037974+350224119+350209818
2656+350149410+350395534+350858685+351203695+351287454+351182755+351120432
2642+351289271+351654362+351977738+352089076+352173396+352469128+352811232
2629+352912628+352855192+352840792+352843731+352863317+353001209+353198980
2615+353389849+353663122+354014143+354348683+354564026+354636225+354835185
2602+355245723+355570718+355756863+355931878+356131433+356427066+356736340
2588+356773596+356573777+356591579+356913766+357083134+357039471+357195924
2575+357570164+357819789+357785771+357631101+357638598+357720639+357585093
2561+357388808+357420911+357532611+357480526+357396338+357480989+357612968
2548+357670074+357721531+357790494+357890040+357990148+358017726+358107925
2534+358303979+358393023+358375980+358443753+358664446+358914336+358936663
2521+358719074+358593370+358683107+358789754+358899143+359121124+359385380
2507+359621464+359804010+359967036+360267524+360634927+360769186+360695765
2494+360707424+360787582+360764562+360788408+360951236+361067098+361224311
2480+361552741+361784961+361833347+361831827+361697172+361560767+361734989
2467+362018534+362075078+362032472+362124290+362335570+362537899+362697523
2453+362759880+362644249+362534794+362594773+362682495+362696499+362742342
2440+362922047+363119918+363161896+363084148+362998507+362996690+363123518
2426+363250246+363408813+363822818+364292179+364457649+364410815+364387795
2413+364354734+364268233+364378943+364767781+365104369+365222246+365299399
2399+365447265+365629448+365935716+366441110+367032277+367745879+368855255
2386+370366086+371801415+372771710+373228487+373070283+372137441+370630739
2372+369170771+368072327+367246199+366800157+366507991+366150629+366336081
2359+367343466+368684666+370030489+371640073+373303097+374038927+373492215
2345+371993109+370128020+368649986+368015057+368224817+368953084+369817558
2332+370787093+371874935+373031838+374382583+375816789+376968903+377752293
2318+378417377+379230195+380304660+381374667+381984396+382187617+382245944
2305+382089359+381755149+381445974+381142745+380747962+380312356+379908160
2291+379517274+379205919+379076450+378970595+378631332+378205998+378138258
2278+378327277+378314462+378240281+378358125+378477587+378485282+378462130
2264+378512563+378684474+378830061+378833595+378766086+378703234+378810773
2251+379238716+379765545+380130306+380325435+380338580+380232494+380213635
2237+380358892+380615949+380936221+381159424+381101493+381019121+381303591
2224+381729982+381948263+382115517+382362665+382548778+382707477+382957664
2210+383202665+383356675+383435446+383448492+383508570+383712518+383976907
2197+384272573+384643477+384965698+385110129+385156731+385259184+385485888
2183+385741855+385855768+385838230+385817125+385840674+386007697+386340750
2170+386680707+386936145+387029912+387037343+387205521+387475723+387671183
2156+387788597+387849467+387915061+388017382+388109265+388153160+388165281
2143+388270871+388502893+388721174+388877066+389062749+389354617+389610221
2129+389689389+389802014+390072711+390327753+390481928+390531238+390510629
2116+390589070+390802695+391096182+391509295+391804037+391759020+391715026
2102+391963265+392329512+392629207+392890921+393130902+393324281+393521391
2089+393703607+393790767+393914424+394276939+394709209+394953517+395197263
2075+395646344+396092717+396366320+396568319+396769724+397003099+397362113
2062+397880652+398473207+399046077+399603390+400170679+400784272+401482780
2048+402258904+403123873+403953536+404604616+405268345+406082187+406849229
2035+407539612+408283567+408979862+409603430+410318386+410984395+411310348
2021+411296476+411073967+410853505+410896342+411156239+411396815+411444342
2008+411251029+410924185+410644372+410611641+410773709+410861993+410721624
1994+410227691+409656935+409675827+410150340+410499577+410654280+410720072
1981+410773643+410984857+411346910+411547059+411508747+411472680+411454977
1967+411573746+412045550+412519798+412812426+413181877+413509778+413697377
1954+414044798+414482088+414723589+414844339+414819304+414577638+414744132
1940+415727506+416846593+417570665+417944871+418283342+418763535+419159210
1927+419178862+418894260+418895911+419259648+419455702+420023155+421236735
1913+422003446+421923254+421779912+422294092+423166921+423856281+424365803
1900+424761346+424870702+424750050+424656614+424457819+424388460+425239822
1886+426546309+427442555+427881068+428005880+428127687+428483167+428881121
1873+428770411+427722765+426741207+427731253+429813500+431161140+431642258
1859+431879168+432201521+432567735+432820167+432890021+432720687+432020131
1846+430783961+430512009+431936901+433118674+433540276+434021922+434299853
1832+433356839+431849674+431690479+432397641+433212837+434436060+435424223
1819+435757641+435738749+435437600+434709730+434160673+434651964+435650366
1805+436101330+435687093+434934452+434803562+435161123+434781070+433524422
1792+433705217+436176765+438026430+438414905+438224895+437886226+437832787
1778+438275593+438072768+436324797+434372745+435232034+438104541+440558518
1765+441398221+440930446+440867990+441406511+441703763+441853776+440979361
1751+438423129+436506252+437514662+439478372+440567997+440804477+441033196
1738+441222942+439951597+438075741+439475895+442598688+445163375+446518644
1724+446732038+446071941+443703903+439334998+437406099+440930611+444804857
1711+446706474+446432144+444375493+442354512+441101663+439016707+437042990
1697+437750647+441042873+444536868+445719665+444778897+442368781+438335142
1684+436103608+439505983+442739817+443713646+442942113+441680544+440387268
1670+439131777+440252349+442282115+442333606+441513323+441882675+442013400
1657+439956154+435171758+431532275+433698975+434274751+433661125+436707888
1643+440537281+442014159+441112298+438304162+437800981+442949049+447504892
1630+449699765+450984519+452010731+453115747+456004042+459199761+460710724
1616+463367195+468427342+472233088+474196203+475675526+477723358+479973453
1603+482135166+484544258+486782497+488279654+489574845+491273242+493160195
1589+495125425+497153209+498921790+500317518+501438289+501655415+500552578
1576+501188664+504622679+506275101+506652379+509127891+512223139+513886063
1562+513817596+511089619+509985131+516185238+522066593+526362572+529993104
1549+533781840+535946789+534871135+531595719+530236718+538946355+549102353
1535+554361559+558868224+565023578+569795853+572583545+575060113+577743040
1522+582553826+590038225+597188051+605074599+612935648+618341532+620532937
1508+621061715+629523477+643434324+651864379+656805956+660813766+667155530
1495+675653227+681886725+685656734+691300353+700854944+710047615+717765654
1481+725330575+731670292+735097999+736092339+738431973+747986300+759942816
1468+767753598+772593580+778513577+784690135+786967215+785384581+790278928
1454+803848133+815432095+822082538+825720237+830807929+837448398+843292298
1441+847996074+850991049+853462597+858588337+865099733+871181104+876433672
1427+879535394+879495298+878948025+879861776+877549753+872092015+870461491
1414+870472060+869705019+869122802+868511257+867244965+865636966+862513908
1400+856357035+849941024+846864272+846420310+847001932+845932751+842260571
1387+839292415+839820003+842098272+844468292+846026154+845278269+843268584
1373+843937533+846642985+847933453+848212473+847783308+845069268+842068084
1360+841424303+841619829+841920251+842956668+845059756+847210801+847868718
1346+847726103+847981475+847540949+846098750+845734253+846482403+847865679
1333+850374681+851929439+851052481+849712140+849576263+849948687+849763598
1319+850047440+852228672+854852545+856982650+860275207+864141262+867309237
1306+870730669+874262415+877994375+883014823+887953493+890856717+892969449
1292+896332091+900406750+904172730+907670522+911214818+914666900+916705254
1279+917462717+918729009+920468789+922239880+925056174+928691429+930917844
1265+931146331+931769106+934522052+937413980+937806220+937856753+941178110
1252+945625589+946665837+945261291+944803721+945816094+947494377+948793498
1238+948896413+948889081+949372280+949270884+948845616+947972027+945716878
1225+944432487+946345730+948947937+949648922+949003028+947495632+946608369
1211+948541231+950926180+949633135+945568318+942873766+942654526+942432710
1198+940545229+937356181+934175589+931839852+929777653+928304870+928786946
1184+930158993+930083161+929114121+927993813+925214576+922229972+922004325
1171+922845877+922878905+923012867+922806508+922274626+922714162+924232523
1157+925977192+926216116+925140858+925825395+929397369+933276106+934452958
1144+933757521+934343437+936542901+939529883+943362315+946235747+946739093
1130+946586240+948092315+951107305+951971382+949399165+947740699+949696945
1117+953454470+955984015+955550358+955088296+957900231+960496030+959711814
1103+958303898+959643380+963952736+967619962+968323589+967576893+968468450
1090+974018336+981714180+985780119+987898136+993132406+997748988+995987739
1076+992410613+992538630+994502802+996793753+1000646861+1004879459+1008988930
1063+1013355820+1014528775+1013696669+1018285309+1026596794+1029773489
1051+1028029150+1025795998+1023919217+1023022508+1023209248+1025735755
1040+1030409211+1032308186+1030965600+1032310102+1036878529+1038780080
1028+1037113357+1035673801+1035856512+1036550363+1036436879+1037305448
1016+1040760238+1044057023+1044243895+1042083933+1040481482+1039726661
1005+1038228117+1037542391+1039213803+1040701581+1040066585+1038465852
993+1037454999+1037280875+1036041600+1033340046+1033494550+1038401448
982+1042821117+1042637151+1040065528+1038209687+1038531380+1041776773
970+1045181559+1044659056+1042959107+1044263315+1047511218+1049823638
959+1049344732+1048376815+1049597793+1052848404+1056434910+1055899725
947+1051439630+1048223235+1046923717+1046627853+1049641191+1055079641
935+1057331289+1057091836+1057953998+1057528664+1054171174+1050857347
924+1051872956+1056751516+1061011858+1063205773+1062226428+1058539319
912+1056358946+1056474147+1058464940+1062182897+1065472680+1069010833
901+1072626403+1073534275+1071570499+1066315355+1060296340+1059110240
889+1063519869+1070005701+1073741823+1071278664+1063551906+1057246671
878+1057000811+1055680221+1051767928+1056410337+1062919883+1052897616
866+1037000270+1034226648+1038574118+1037862035+1036324253+1037325397
854+1036853559+1036561064+1036439323+1029594279+1016096612+1004316201+999820700
841+1002175791+1005598544+1005518154+1002193494+993836364+984744561+982782568
827+982088981+974593418+964905328+962150070+967727435+971906726+970485797
814+969700459+969639951+965927940+958948868+952532593+949589142+949123249
800+949537948+949745166+946500896+940078412+935645862+935746465+937982722
787+937408101+933213287+930807795+931157693+929263077+924010047+917265078
773+910271738+905282931+904027803+905430897+905766064+903122375+900536021
760+900796216+902855509+903466196+899398935+892489553+888165665+885970693
746+883849902+883993573+885513586+886522986+886907432+884268564+879768835
733+877950118+879450644+881423668+881487874+880807961+881247959+881766829
719+882482478+885278295+888180395+889073603+889567966+889160797+886204795
706+881822712+877840597+875581683+875155094+874990945+872578649+867797258
692+864906057+865028393+863095927+859577723+860688321+865172593+868149402
679+869544503+869652703+868780963+867456079+862080648+852613844+854177982
665+868414881+873574178+866205839+856605669+848174227+842898077+846757592
652+855820132+858972122+856706537+859625878+866629588+861137898+841573788
638+829750902+835442214+850735941+866886677+863322300+834819439+822003006
625+843248173+867295564+867394647+856904110+848570232+844723664+841173291
611+833394348+825536403+827931591+843695239+855929851+847393380+832627373
##END=
