##TITLE=Sample description
##JCAMP-DX=4.24
##DATA TYPE=INFRARED SPECTRUM
##DATE=25/8/2023
##SAMPLING PROCEDURE=Instrument type and / or accessory
##ORIGIN=Default
##XUNITS=1/CM
##YUNITS=ABSORBANCE
##RESOLUTION=4
##FIRSTX=4397.6552
##LASTX=599.8556
##DELTAX=-1.9287962
##MAXY=1.8196595
##MINY=0.31214523
##XFACTOR=1
##YFACTOR=1.6946899e-009
##NPOINTS=1970
##FIRSTY=0.49974608
##XYDATA=(X++(Y..Y))
4398+294889390+294491812+294235131+294126962+294050991+294363261+295282853
4384+296107060+295919807+294862906+293857461+293267091+293192387+293795805
4371+294280379+294071408+293891770+294099563+294142912+293781631+293498009
4357+293487528+293490078+293403521+293360137+293552050+293800518+293726676
4344+293062886+292226210+292064686+292228848+292014672+291827929+291989278
4330+291982859+291754562+291800390+291890077+291653708+291461162+291690638
4317+291934200+291736501+291452052+291380619+291406329+291495595+291622440
4303+291730258+291860445+292050072+292183284+292067236+291516891+290628971
4290+289960749+289871027+289866947+289438788+289108001+289527560+290277661
4276+290343625+289709590+289349699+289457429+289654705+290029369+290382454
4263+290096528+289467734+289272022+289312593+289166983+289001853+289038062
4249+289195753+288979748+288196129+287602506+287691788+288091775+288587464
4236+288957696+288785338+288282000+288020254+288071024+287942297+287588103
4222+287565101+287744968+287626493+287378622+287283870+287227772+286952802
4209+286458274+286202648+286378224+286628310+286831073+287158027+287582704
4195+287858905+287732974+287049840+286114649+285632291+285662626+285572464
4182+285296140+285385388+285749359+285913961+285888761+285709070+285382117
4168+285077726+284968940+285186880+285646043+285927942+285745895+285608058
4155+285804578+285725847+285126491+284436480+284204050+284284997+283744694
4141+282721012+282384387+282772943+283101004+283249691+283590731+284137928
4128+284421533+284267411+283913939+283568467+283276052+282779238+282292185
4114+282375189+282718708+282956854+283187684+283182039+282881130+282683590
4101+282753053+282988596+283145373+282785657+281866681+281256668+281527224
4087+282028856+282197380+282068319+281709711+281149958+280400965+279851535
4074+279806761+279940114+280162010+280577947+280746577+280343266+279809346
4060+279801134+280323060+280549142+280026741+279419682+279416060+279707121
4047+279676733+279721998+280347487+280898834+280763617+280199925+279678052
4033+279372904+279382946+279489076+279075688+278400749+278309725+278664640
4020+278701166+278438048+278527665+278786052+278511996+277709332+276969026
4006+276839701+277176872+277476321+277643069+277688879+277525807+277259102
3993+277114337+277142949+277232372+277193050+276805039+276250333+276014175
3979+276122186+276133494+275804870+275515005+275679624+275972954+275801282
3966+275236834+274990106+275294462+275511048+275457517+275462142+275205795
3952+274304369+273188099+272849205+273388769+273615942+273369021+273800750
3939+274838623+275033015+273450302+271336675+271242275+272751622+273210116
3925+272480415+272240757+272209472+271541707+271420559+272802954+274169434
3912+274303437+273563149+271896534+268877015+265966493+265380783+267045692
3898+269775856+271564815+271040339+269485481+269711352+270516724+269744254
3885+268498782+267796075+267568023+268606987+269199854+267823737+265561212
3871+263795748+264077928+265658637+265946322+266382535+268484661+269602760
3858+267878376+263162399+258398220+261311714+267090835+270222041+270203875
3844+268121410+265569953+263294591+262432539+263873319+265666463+266912692
3831+267796075+267899865+267639632+267164994+265139595+263048250+263674635
3817+264795496+266782944+269856627+271495035+270447929+267416628+265176349
3804+263917230+263039369+264003189+265921210+268306183+270591886+271706098
3790+271804860+271109556+269834592+269016329+268842934+268700349+269505265
3777+271112880+271589259+270390424+268614021+267801438+267891143+268531878
3763+268925552+267496871+265349340+264912704+264722146+262332019+258466892
3750+257912872+259737283+260646464+261808633+263625835+263961986+261744639
3736+258408173+258982364+263641539+267229674+268009319+267173435+266805331
3723+267694851+269271920+270936425+271652990+270369356+267474203+267460258
3709+273307594+280885187+288218726+296620597+308128333+320949439+332401006
3696+341786358+347572302+348455210+345517131+342567480+340556554+337089215
3682+331488167+324889271+317871905+310229262+305789574+304086539+300607242
3669+298437482+299228452+299265945+297297225+294239528+291155276+288185947
3655+285757941+283012179+277834524+272865630+274985077+279364358+281138949
3642+280272783+277819647+274900015+271999076+268959246+265155932+259395153
3628+254787803+254863527+254916935+252189075+247071986+242926138+241422155
3615+239833709+237763466+236197389+234788826+234066282+233828981+232200456
3601+229244967+226722807+224598243+222368797+221111841+220380522+217987863
3588+214786367+214470546+215877015+216433163+215534428+213682090+211986582
3574+210998828+209873870+207308819+203324249+200872080+201815044+203189824
3561+203336471+202959680+202324642+200906109+199354961+198606056+197798661
3547+196437985+195832931+196404291+196819911+196268740+195191193+194515216
3534+194214677+193269040+191735426+190761107+190371830+190099023+190152167
3520+190345469+190319952+190192632+189775481+188818836+187890663+187586219
3507+187461536+186932558+186639791+187130573+187609133+187644709+187553808
3493+187446553+187041836+186512840+186488220+186565966+186103585+185811663
3480+186171026+186365419+186037885+185633484+185312862+185040301+184951387
3466+184935648+184652413+184273775+184321643+184694003+184894023+184915038
3453+184889802+184636920+184248152+184190172+184575546+185020165+185345465
3439+185596326+185796328+186021460+185918672+185422526+185392120+185898343
3426+186170745+186159684+186373157+187018640+187814727+188535443+189205933
3412+189793260+190457015+191446246+192492754+193304018+194038186+194778052
3399+195703553+197110638+198516827+199427274+200355834+201830959+203801191
3385+205872752+207695599+209523686+211688029+214078085+216666666+219595795
3372+222530005+224943081+227206572+230128860+233769770+237574367+241041882
3358+244349314+248160594+252610552+257275319+261736796+265867643+270041699
3345+274603062+279317386+283834944+287936230+291522043+294901999+298218822
3331+301069711+303575252+306464901+309599624+312084132+313702475+314837245
3318+315901321+317461525+319429472+320560936+320772703+321504585+322721903
3304+323411087+323521595+323279933+322683636+321564552+319416458+315973493
3291+312037706+308587390+305692888+303093193+300485444+297584611+294589096
3277+291839237+289340290+287080298+285313884+284193112+283374093+282305321
3264+280764409+279007086+277471520+276238305+275062630+274004146+273318339
3250+272709609+271748427+270743809+270061061+269406451+268452707+267477703
3237+266809376+266023787+264884725+263955901+263386159+262654805+261461070
3223+260061282+259109896+258866140+258687786+258312964+258016592+257645094
3210+257300502+257085552+256628411+256091274+255855484+255658313+255217809
3196+254871212+254836762+254576986+253692407+252906432+252874900+253009871
3183+252790454+252413557+252174004+252181848+252244488+252280714+252297790
3169+252276072+252318348+252326279+252030083+251565785+251575633+252153640
3156+252640553+252805050+252785723+252607668+252420239+252440041+252737767
3142+253096586+253173752+252836001+252329919+252266066+252734584+253085278
3129+253190054+253414746+253773020+254052774+254067176+253829804+253691317
3115+253841569+254051314+254297953+254653677+254664176+254073912+253542893
3102+253607750+254008739+254449525+254736559+254726570+254544892+254350939
3088+254357516+254605369+254852185+254934837+254792886+254605563+254502370
3075+254232077+253852296+253746993+253852736+253857977+253677424+253311167
3061+252825783+252479204+252415017+252478343+252569507+252627698+252501661
3047+252285779+252250098+252319139+252102272+251649810+251464157+251550187
3034+251473671+251216252+251026326+250906110+250907517+251147105+251501210
3020+251769498+251847403+251757082+251626667+251654523+251791814+251808116
3007+251865674+252072588+252201895+252354944+252800337+253442127+254113655
2993+254779327+255343318+255820647+256485088+257549867+258626535+259137048
2980+259295020+259576532+259936019+260091125+259951917+259707493+259479459
2966+259220791+258971637+258776189+258542563+258309851+258324377+258638264
2953+258911757+258911511+259006738+259485896+259985119+260115429+259940961
2939+259718818+259492859+259284979+259217045+259213880+259155425+258977510
2926+258572934+257920996+257257558+256819902+256517410+256191582+255750551
2912+255365019+255439776+255867109+256312818+256742859+257080171+257340527
2899+257643511+257851673+257859481+257772977+257726868+257729787+257663805
2885+257663717+257878720+258030731+257987857+257910392+257874500+257937333
2872+257933517+257692646+257546262+257695442+257817979+257727817+257636688
2858+257711498+257850548+257874623+257503934+256614448+255844652+255913693
2845+256518343+256979000+257244105+257564921+257938635+258303274+258693765
2831+258956917+259027700+259204208+259607360+260102820+260507907+260646060
2818+260737101+261083135+261496610+261819959+262211715+262572891+262679179
2804+262689150+262822274+263114073+263502331+263708787+263504089+263255163
2791+263524875+264115509+264455898+264574303+264803532+265074774+265108855
2777+264999613+264987655+265091656+265317316+265522190+265526059+265542572
2764+265728453+265961129+266263357+266703598+267179994+267456653+267371696
2750+267178939+267270121+267571452+267729741+267765757+267925875+268194408
2737+268532511+268939357+269237663+269345463+269433990+269649503+269929995
2723+270185286+270434933+270747554+271081524+271274774+271354824+271438919
2710+271564797+271845061+272247861+272553009+272714041+272856028+273055256
2696+273253852+273365926+273497361+273716602+273783568+273655017+273646189
2683+273852557+274077285+274244560+274440272+274640573+274754071+274788908
2669+274839960+274999743+275208398+275340449+275399590+275522127+275814032
2656+276132439+276258810+276289708+276421038+276541535+276534659+276523246
2642+276631521+276845662+276964313+276950684+277104418+277473156+277806141
2629+277964500+277921204+277825133+277955567+278289853+278504716+278464497
2615+278414431+278686095+279240484+279718516+279936790+280034866+280256850
2602+280629544+280925529+281003574+280980291+281096568+281377869+281641214
2588+281827447+281893218+281843257+281873557+281978772+281966902+281915675
2575+282013486+282193230+282298199+282308838+282282495+282264434+282243789
2561+282273860+282401462+282453340+282374046+282311511+282340756+282555126
2548+282873463+282999886+282874834+282672757+282626929+282843708+283163381
2534+283436117+283595444+283562945+283390623+283262212+283312437+283504069
2521+283740016+283995396+284158485+284144118+284178516+284429622+284749154
2507+285048920+285368646+285601815+285632625+285689093+285985517+286321791
2494+286578560+286808335+286906657+286861338+286860969+287070731+287385041
2480+287509407+287462946+287453045+287483292+287515738+287574843+287706314
2467+287838735+287845909+287901498+288122146+288278535+288285482+288293571
2453+288385615+288487841+288557691+288675339+288793164+288779693+288736837
2440+288896216+289226053+289452311+289477810+289472359+289541787+289592997
2426+289603671+289700305+289948457+290247080+290418136+290532197+290736068
2413+290878389+290969202+291210055+291507940+291747017+291990667+292246645
2399+292439842+292541469+292654141+292910629+293257489+293537999+293713961
2386+293715157+293384229+292591958+291265275+289517765+287504166+285316364
2372+283094251+280910036+278913601+277308940+276075021+275149310+274713501
2359+275110744+276582264+279049749+282270308+285576790+287315384+286387421
2345+283830741+282049379+281889507+282552822+283393630+284222497+284947503
2332+285542041+286279902+287274251+288296631+289378170+290757892+292256880
2318+293464561+294362241+295315597+296486946+297594353+298468328+299221172
2305+299903497+300551109+301194253+301753514+302215385+302629563+302990281
2291+303384166+303868125+304291378+304596455+304842408+305050588+305274454
2278+305448060+305500184+305563035+305712655+305930330+306252043+306668192
2264+307016705+307172233+307241908+307371339+307598124+307938231+308351003
2251+308678273+308837354+308942059+309073670+309239890+309474413+309735526
2237+310004517+310299816+310498007+310622162+310912748+311326048+311601475
2224+311729710+311854498+312009077+312198791+312423677+312637168+312792872
2210+312865852+312971437+313215597+313501576+313757694+313935556+313994081
2197+314082432+314249812+314355467+314462846+314723044+315111618+315502689
2183+315757998+315888308+315990516+316122198+316343285+316532261+316575206
2170+316703511+317028389+317345565+317595388+317830157+318007315+318121165
2156+318275779+318525109+318754884+318925887+319108075+319260930+319371966
2143+319525138+319754069+320012367+320250091+320496185+320757298+320906952
2129+320965829+321195534+321624836+321996844+322124692+322067187+322115794
2116+322408174+322779584+323081179+323306135+323545407+323871621+324199102
2102+324471083+324797192+325185942+325514091+325681156+325764793+326118442
2089+326810264+327420347+327777513+328095146+328511575+329050331+329680462
2075+330265433+330760365+331284349+331867597+332444549+333120332+333981926
2062+334787070+335430426+336119926+336934742+337776781+338485450+339029763
2048+339610654+340290131+340884985+341402743+342061223+342818920+343496111
2035+344030365+344389992+344677167+344954951+345130280+345226896+345267941
2021+345145087+344920342+344934798+345273428+345547413+345627885+345716904
2008+345787634+345705016+345516181+345366773+345426951+345751724+346015263
1994+345839899+345573229+345835924+346467181+347114441+347794410+348569095
1981+349359502+350013550+350582764+351230516+351939888+352385088+352358077
1967+352562317+353706443+355190677+356367970+357281125+358033969+358919691
1954+360183470+361458540+362386362+363072099+363417834+363356671+363911887
1940+365513980+366873672+367459065+367719544+367980516+368341375+368647014
1927+368436900+367526101+366778427+366729926+366746843+367122052+368095351
1913+368549765+368117649+367743426+368136255+368769938+369093586+369256570
1900+369352131+369245210+369131923+369314638+369448993+369551905+370336297
1886+371356022+371964453+372431283+372968350+373646033+374352873+374662663
1873+374036928+372240970+370716360+371816416+374264874+375736270+376132793
1859+376270700+376533114+376773265+376853983+376776535+376269821+375076877
1846+373645717+373625634+375390817+376704188+377043275+377396010+377562898
1832+376276679+374215283+373846616+374774367+375919514+377438110+378580231
1819+378948757+379046288+378924102+378124304+377299499+377682586+378747788
1805+379138402+378393893+377401707+377495017+378137564+377819262+376641125
1792+377052596+379826495+381949758+382469346+382202395+381755085+381742001
1778+382093434+381417931+379246518+377640767+379292206+382448595+384909398
1765+385732796+385157180+384987900+385521205+386105859+386694523+385946321
1751+383446583+381899991+383171191+385070799+385984799+385961058+385903236
1738+385882450+384591730+383350988+385434120+388587624+391060210+392228358
1724+392231489+391607266+389353165+385056274+383454919+387470967+391501506
1711+393174118+392550704+390467959+388911448+388033851+385942171+383710756
1697+384309866+388170456+392078247+392971460+391804719+389659051+386149964
1684+384346550+387589178+390567142+391376366+390617332+389646706+388423550
1670+387222376+388944825+391312424+391086554+390285806+391587395+392567587
1657+390689257+385972383+383247548+385660624+385617504+385359803+389977142
1643+394724403+396424871+395425264+392697897+393699895+400814897+406109672
1630+408718090+410906385+413190346+415733134+419792689+423071228+423971863
1616+426142642+431104942+434788445+436471854+437673204+439347610+440886078
1603+442166634+443806923+445342753+445908028+446098306+446920824+448212319
1589+449744280+451406798+452818578+453982119+454829293+454421586+452693650
1576+453394370+457044283+458624641+458960106+461289895+464308095+466031284
1562+465366368+461130674+459862534+467837934+474638081+479199989+482488587
1549+485657180+487629487+487099771+484890337+484626024+494036066+504105080
1535+509412376+514718406+521448246+525957362+528650965+531735533+534639074
1522+539149140+547251544+555670244+565206587+574780211+581032493+582932875
1508+582355325+591429656+608009250+617993149+623721799+628594517+636712854
1495+647391247+654753117+659045437+665898095+677533713+688791451+697345702
1481+704296840+710440301+715670150+720130308+726037206+737876960+751720359
1468+762332560+771317942+782001049+791962016+797738569+800163286+805490560
1454+816275804+826600795+833692267+838102059+843148173+849591224+855549403
1441+860093550+862854858+865753827+872447088+879995507+884808152+888445580
1427+891606224+891260067+887701212+882391032+874147837+868639993+871016807
1414+874197569+872987743+869341592+865858286+860839606+854264099+849298669
1400+845065578+839447859+834720539+833329580+833915184+833699864+831038795
1387+826702582+825130630+828289727+832675040+834063748+832123552+829041973
1373+828622097+831572134+833308477+832791387+832017616+829978166+827028480
1360+826549586+827813787+828152910+827695260+828079331+829221418+831054974
1346+833836189+836203928+836694640+834957031+833231311+834625084+837433873
1333+838793529+839037197+839574616+840715718+842217678+843607512+844463865
1319+845032939+845855598+847511398+850785927+855712317+861037129+865520429
1306+869115299+872587844+876513888+881168614+886197001+890964346+895780790
1292+900615242+904264839+906367949+907937860+909521910+911191638+914259711
1279+918600778+920787948+920362374+920789706+922366652+922796869+922331762
1265+922227232+922586262+923369530+924454287+925693164+927017509+928307526
1252+929609713+931025151+932314676+933420747+934838999+936036234+936574989
1238+937272579+938166496+939432175+941467404+942563134+941156488+939434426
1225+939311185+938978815+938377806+939332921+940832489+940926467+939047399
1211+935497830+931108085+927117466+924162997+921887195+919565530+916477269
1198+913442538+911593929+909719081+907292676+906027841+905534808+904059578
1184+902812963+903350523+904278415+903540378+901170176+898647753+896972679
1171+896497654+896788380+896950169+896961916+896836143+896776070+897967678
1157+899644440+900079651+900419055+902049954+904679158+908011861+911136700
1144+912264366+911494464+911487922+913813948+917614220+920942280+922074518
1130+921834579+922510855+924837514+928315053+932163087+935589557+937220666
1117+936463989+936855306+940501737+943778729+945207673+946428754+947311135
1103+947218282+947324711+950626111+956117705+959619160+961970510+965543926
1090+969386544+971874640+972874142+974201440+977233920+980262953+981239733
1076+982543608+988372989+996818841+1001947186+1003807543+1005843123+1007954393
1063+1010664491+1015877458+1019862731+1018282831+1015643990+1017129490
1051+1021195798+1023996779+1025705688+1029684208+1035271610+1038650035
1040+1038628862+1038471224+1040400376+1041744979+1042897546+1045470265
1028+1045790747+1043030213+1041831712+1042439896+1041193491+1040242738
1016+1041893614+1043635302+1045814031+1049189572+1052069126+1053742442
1005+1052555477+1048428955+1045551793+1046239394+1048527013+1049171213
993+1047798965+1046144220+1043322628+1040356271+1040583267+1042781762
982+1044646691+1045968574+1046014297+1045143804+1045656181+1046981018
970+1047018159+1047439864+1049563866+1052194970+1053745185+1053546959
959+1054142903+1056564737+1058796574+1060169736+1061597977+1064072779
947+1064044079+1058731718+1054842533+1056483983+1059279126+1060464965
935+1061103819+1062949052+1066189113+1067807280+1066817064+1066726743
924+1068705628+1069036732+1065897401+1062632861+1061860075+1062940118
912+1065213669+1068085837+1071197523+1073741823+1073282273+1071119583
901+1069893507+1068835622+1067901680+1067079583+1065971050+1065174136
889+1064173369+1062351419+1061305281+1062860772+1064462970+1062619285
878+1059450059+1057747973+1056366933+1053522831+1047489878+1039963617
866+1037572031+1039311117+1037602912+1031981464+1025435712+1018823205
854+1012429112+1007890663+1006577643+1005460177+1002312898+998648951+993466513
841+985308503+976442000+968013241+961321949+959071682+957956608+953984067
827+951183507+952712268+954903025+954542167+952653602+950309498+947061277
814+943669416+943329027+946264644+946782930+941971832+936166790+933257481
800+932159429+929686035+925186907+921568050+919652755+916218196+911901327
787+910534917+910085356+906900585+903119868+899964078+895894815+892827657
773+892470737+892223975+888886137+883769470+881419457+882032072+881629149
760+878956543+875785699+872802319+869864662+867276819+865625803+865378477
746+864733293+862783812+861785647+861566951+859912417+857496211+856482571
733+856779840+857128670+855993618+853870390+855598995+860618167+861744918
719+858789112+857561489+860033899+863081362+862091216+856475607+850452291
706+847773073+848186760+848908688+848048325+846946545+848048677+850910786
692+853446293+853346266+848804721+843217038+841309622+840511372+837518566
679+834779556+832624393+832005798+835302555+834637745+825490152+822645699
665+830163449+834667641+834651603+832125170+827093336+821737362+817745969
652+813995079+813487977+818546752+822728985+819969436+813585894+809755938
638+807806598+805165224+804290933+804414596+801468146+796899590+794398621
625+793951311+793363174+790640203+786639455+781766455+777871010+781480160
611+787732512+784042609+777494043+780151384+785886927+785802305+783119992
##END=
