##TITLE=Sample description
##JCAMP-DX=4.24
##DATA TYPE=INFRARED SPECTRUM
##DATE=25/8/2023
##SAMPLING PROCEDURE=Instrument type and / or accessory
##ORIGIN=Default
##XUNITS=1/CM
##YUNITS=ABSORBANCE
##RESOLUTION=4
##FIRSTX=4397.6552
##LASTX=599.8556
##DELTAX=-1.9287962
##MAXY=1.8062545
##MINY=0.093810059
##XFACTOR=1
##YFACTOR=1.6822056e-009
##NPOINTS=1970
##FIRSTY=0.094058216
##XYDATA=(X++(Y..Y))
4398+55913627+55766108+56111942+56653753+56888891+56885113+56885401+56848303
4382+56668683+56520465+56696227+57207136+57620916+57648332+57507971+57413942
4367+57404336+57642309+58218732+58772161+59003995+59104034+59162914+58855759
4351+58196756+57863695+57997758+57901032+57404969+57111030+57280951+57588102
4336+57698606+57529160+57254886+57007479+56881849+57116770+57437722+57308061
4321+57046229+57189181+57452121+57454636+57335880+57297609+57441509+57748832
4305+58033129+58177591+58263005+58409913+58538546+58466591+58267984+58305994
4290+58771948+59331364+59517442+59378693+59412026+59837180+60292225+60487981
4274+60545133+60382056+60023351+59993703+60262644+60367745+60353280+60339072
4259+60280196+60291233+60466141+60684976+60804020+60857559+61033512+61346588
4243+61528166+61449378+61345574+61532892+61915589+62088778+62005322+61962378
4228+62114578+62408937+62759515+63039431+63113166+62986220+62840021+62861121
4212+63046601+63364705+63705197+63896603+64039281+64229451+64447042+64678832
4197+64743523+64561210+64382679+64447356+64755109+65120059+65267157+65110497
4182+64846547+64747872+64944921+65253923+65442631+65424432+65184289+64923808
4166+64865933+64960396+65106891+65286538+65457464+65627890+65779173+65833061
4151+65808595+65734701+65689210+65697665+65508332+65207307+65388251+65940293
4135+66138990+65999798+65954121+66028396+65971385+65737482+65715705+66122013
4120+66633334+66838129+66795451+66798697+66768943+66603398+66500843+66651741
4104+67010344+67410863+67646387+67648447+67737675+67929550+67913778+67830472
4089+67894879+68023163+68112815+68290797+68590024+68699231+68579868+68547315
4074+68700259+68855014+68937284+69055708+69135245+69063672+68932961+68846900
4058+68888432+69064876+69288433+69498786+69584546+69349160+68900368+68884069
4043+69464913+69873436+69846569+69838499+69909178+69844390+69785364+69752620
4027+69463279+69259334+69506178+69686476+69541270+69341045+69252774+69452910
4012+69807704+69859333+69700849+69792720+70022177+70015697+69810570+69643063
3996+69644312+69746229+69778747+69832046+70015515+70136818+70215314+70388167
3981+70450506+70278464+70087576+70190476+70539025+70711829+70658813+70665249
3966+70638320+70350334+70175023+70497228+71041510+71309255+70892747+69804174
3950+68602390+68329033+68846298+68727063+68591087+69749170+71052756+71011344
3935+69289761+67225100+67270148+68798203+68952679+67999852+68111695+68509552
3919+67885773+67882828+69798872+71945396+72937035+72484983+69889349+65122358
3904+60976351+60434403+62888706+66869806+69678052+69261770+67426188+67791191
3888+68621537+67495272+66127182+65315885+65519972+68195311+69671480+67702827
3873+64505195+62526444+63451594+65129643+64651155+64947140+67690089+68950447
3858+66702503+61179919+56212840+60645584+67960784+71824789+71680570+68516453
3842+64239793+60329040+59282884+62450406+66108336+68612944+70444296+71113292
3827+70848501+69650357+65943491+62510017+63967451+66851385+70697156+75042785
3811+76852045+75222401+72134304+70471491+68574810+66908866+68999858+72072780
3796+75256088+78815852+80939752+81295228+80532819+79447134+79196954+79276022
3780+78688756+79385721+81924278+83285229+81986825+79518442+78787542+79745829
3765+81064908+81787659+80298708+78157686+78288166+78194969+74668521+69597439
3750+69980300+73154878+74657280+77086040+80441979+81217418+78098407+73644063
3734+75147594+82446242+88311586+90108524+89461439+89291169+90769135+93464862
3719+96563517+98331277+97119647+93202706+91989517+97429309+103585650+106534090
3703+107039038+108566441+112132911+115143109+116491402+115685208+112854005
3690+112405085+119186110+127436420+132774326+135468812+136028883+134742261
3676+134433308+140307722+146612659+151435634+160798177+171622858+179723634
3663+185800262+190871724+194980753+199518727+205605293+209214583+208543209
3649+210935058+224784429+239917712+250771464+259156214+266813589+274081207
3636+280693573+286540368+290598215+293586427+302087856+314958618+324916940
3622+330722049+334545493+340673462+348442768+355169935+362155440+369496049
3609+376121348+383941889+392598317+399486277+404452204+409175808+414318401
3595+419749237+426225507+432049183+435040318+437169631+442595116+449987528
3582+456144162+460956489+465443121+469688175+473469348+476376367+477174766
3568+475136019+474745270+480001566+486472804+490638596+493204649+495326520
3555+496587667+497554193+498853997+499482214+499285422+500987525+505562314
3541+510059328+512814873+514139621+515784288+518565168+520342813+520020803
3528+519630338+520399611+521239785+522203619+523712473+524710995+524409713
3514+523840455+524115199+524419315+524409890+524684881+524590135+524279251
3501+524993604+525899647+526854161+529049626+530796906+530804807+530668959
3487+530630409+529380813+527416474+526726144+527482627+527893537+528042140
3474+529326495+529724791+527502114+525649281+525840652+526518510+526816284
3460+526817347+526524569+526505967+526645890+525540256+523680336+522833040
3447+523862069+525759441+525766315+523745390+522361505+522446224+522798139
3433+522772345+522914358+523568724+523912773+523505406+523151436+523033092
3420+522770325+522800655+523075327+522931365+522890583+523240053+523348653
3406+523842298+525413762+527242572+527947323+527000710+526080955+526711333
3393+527389014+527329346+528351855+530154799+531246047+532387043+533948798
3379+535086250+535864666+536436014+536396011+536531292+537852319+539968734
3366+542506370+545208873+547282733+548301699+549139641+550930467+553329633
3352+555353428+556829472+558757599+562018163+565600949+568326129+570264071
3339+571394542+572430055+574410481+576478672+578145024+579945205+581070858
3325+580982950+580720395+581274878+582870294+584380141+584648117+584956308
3312+586407691+588330007+590319574+591838634+592031563+590756492+589548848
3298+589688381+589782454+589250011+588887466+587870130+586433026+586196620
3285+586524866+585902921+584389531+583564841+584426912+584944261+583705862
3271+583293109+585221945+586503678+585289479+584417451+585206319+585449209
3258+584395306+583591238+583604738+583079806+581756404+580802811+579517712
3244+576971041+575418604+576228377+576962254+576134836+575021017+574611489
3231+574624174+574305353+573475348+572132529+569789205+567275238+566300492
3217+566277709+566057035+566102602+566404840+566895119+567359036+566542318
3204+565014755+564033241+562935083+561558498+561190603+561848725+561339986
3190+559162025+557626844+557047382+555654745+553450068+552013531+551702257
3177+550988612+549049288+546773498+544786660+543453373+542927272+542054429
3163+540172612+537783474+535553569+534455447+534118236+533242453+531787526
3150+530403712+529378156+528519911+528017975+527828305+526736809+524419705
3136+522141966+520597254+519595012+519286927+519075324+517550914+515194197
3123+513624681+512901257+511956451+510345126+508767036+507441154+505572589
3109+503794377+503192734+502527844+500939621+499965051+500003035+499186495
3096+497092934+495497127+494839076+493572792+491376406+489839807+489424575
3082+488972988+487988462+486912946+486439179+486660455+486598731+485553404
3069+483671303+481333400+478735919+476162497+474325466+472859379+470722696
3055+468477130+466706323+464676151+462355928+460512591+459022551+457457571
3042+456055687+454668082+453048040+451661958+450323675+448544471+446848391
3028+445618566+444388423+442916666+441726809+441136930+440670072+439926239
3015+439060802+438320122+437815245+437647260+437933908+438817700+440250233
3001+441767556+443269821+445622960+449338866+453723169+458343134+463054692
2988+466841144+468860013+468982113+467216692+463800580+459537030+455605482
2974+452383965+449585334+447023073+444606439+442698969+441404445+439996856
2961+438460505+437600383+437376521+437317100+437426941+437608426+437819249
2947+438349885+438793464+437953113+435860863+433854607+432078379+429798018
2934+427400093+425728638+424560183+423074536+421014884+418347388+414813144
2920+410488757+405909540+401452990+397127468+393169594+390016355+387586930
2907+385515585+383488744+381267307+379066492+377385010+376466885+375987661
2893+375398101+374823918+374740404+374948782+374811446+374331159+374065912
2880+374212957+374556935+374852796+375155212+375490721+375652718+375683651
2866+375482040+374749298+373523477+371931143+369928785+367240101+363545738
2853+358951958+353818400+348493861+343483006+338888978+334400751+330224046
2839+326721443+323688639+320714547+317837433+315300931+313050156+310948552
2826+308857578+306808980+305156305+303994298+302942522+301804007+300797584
2812+299961237+299205782+298499188+297665746+296734812+295855485+295000005
2799+294049104+292713921+290890869+288906263+287007935+285115843+283162488
2785+281252644+279406986+277555251+275795588+274295715+272962091+271588748
2772+270285968+269196527+268096793+266843281+265644212+264695739+263994513
2758+263357793+262542616+261530347+260533190+259653934+258872861+258190131
2745+257491882+256669920+255772257+254857941+254016792+253328517+252707635
2731+252065386+251497634+251023070+250485188+249923247+249437415+248940086
2718+248437760+248020029+247622442+247082133+246367726+245644958+244994507
2704+244321343+243582666+242819044+242040433+241178770+240203864+239244743
2691+238392274+237594194+236760433+235797982+234821730+234002514+233196320
2677+232320802+231485730+230616608+229643935+228697392+227897665+227192311
2664+226398979+225547980+224897281+224431894+223897254+223245917+222612438
2650+222115144+221771343+221408710+220889554+220372506+219996692+219686038
2637+219430074+219247561+219077610+218981375+219026994+219051797+218939441
2623+218802867+218714622+218713719+218857557+219057112+219248164+219455833
2610+219587181+219567126+219561936+219701256+219776426+219628531+219356676
2596+219019306+218620708+218197627+217848884+217570934+217103686+216331117
2583+215504000+214863346+214352730+213749528+212969199+212161393+211443053
2569+210702604+209858125+209032939+208330260+207718165+207122617+206465628
2556+205783076+205216972+204777149+204420840+204163760+203913979+203524205
2542+203037062+202662931+202515673+202542549+202618392+202637667+202597221
2529+202582924+202657811+202728002+202746533+202871610+203114641+203292246
2515+203377479+203455111+203494565+203478798+203520520+203695839+203897007
2502+203948650+203846144+203712687+203572641+203319795+202970803+202654763
2488+202314222+201853902+201294618+200692249+200114488+199606635+199200792
2475+198800618+198273702+197686214+197117187+196520399+195928748+195496950
2461+195179051+194731415+194159783+193668885+193222737+192645614+192044857
2448+191596441+191147211+190563604+190015180+189611144+189253613+188871404
2434+188494332+188140237+187787809+187493241+187319268+187209853+187097673
2421+186885043+186505792+186122484+185901705+185800952+185717350+185601184
2407+185480378+185396580+185340118+185296271+185236461+185181948+185200426
2394+185172718+184932592+184581758+184232323+183707090+182795679+181472030
2380+179810125+177923985+175884653+173691013+171318050+168894436+166831630
2367+165216053+163781340+162750557+162378765+162458665+163145257+164829697
2353+167396848+170068419+171447662+170733698+168812038+167493579+167223070
2340+167482683+167956238+168243719+168226924+168389240+169106729+169971989
2326+170532212+171040561+171910285+173051529+174082932+174787630+175220986
2313+175566027+175957697+176471113+177043932+177495270+177816182+178156386
2299+178527275+178840693+179119458+179395813+179648287+179871511+180031648
2286+180113975+180117820+180034554+179906536+179726504+179487937+179323336
2272+179277061+179198295+179033499+178869730+178747523+178675613+178616370
2259+178461477+178224009+178067575+177986435+177828760+177681485+177702833
2245+177766240+177673619+177466747+177342911+177341901+177287884+177113007
2232+176980295+176998401+177060355+177008092+176871553+176816615+176850825
2218+176874494+176841365+176749347+176709627+176779996+176852668+176882059
2205+176889570+176891289+176922204+176970551+177011086+177069709+177152798
2191+177168530+177041363+176876177+176757213+176591017+176377997+176211712
2178+176078947+175976760+175873988+175656787+175371344+175167607+175069176
2164+175011828+174926631+174810395+174738485+174729485+174745961+174787895
2151+174845137+174890703+174887974+174812645+174722859+174649142+174588553
2137+174577391+174613763+174687002+174759797+174773421+174775175+174836810
2124+174923354+174968991+174981870+174976750+174965093+175007913+175084270
2110+175109108+175123565+175230943+175429860+175644138+175829769+175986628
2097+176149653+176357588+176546620+176671324+176851799+177110740+177371788
2083+177698192+178081216+178360318+178475757+178555302+178733226+178976063
2070+179127572+179043189+178915066+179088614+179373119+179459202+179483774
2056+179606140+179766047+179866090+179915146+179995241+180057780+179926343
2043+179687050+179696351+179961545+180189482+180312007+180404539+180481339
2029+180553515+180645905+180715370+180765383+180747809+180452887+180190864
2016+180568627+181263652+181629155+181730492+181873621+182108414+182375274
2002+182619226+182845090+183145468+183278694+182834513+182390970+182815451
1989+183705372+184504940+185203066+185802104+186289814+186647823+186986664
1975+187431801+187902043+188045438+187619611+187400762+188195282+189214815
1962+189716060+189969402+190060693+189987720+189972520+189963325+189754327
1948+189224541+188196256+186813930+186425998+187668384+188879907+189146997
1935+189002610+188947388+189014019+189024064+188595048+187367385+186323280
1921+186319081+186547142+187286635+188723296+189347580+188749675+188211917
1908+188743794+189736026+190398612+190792355+190958640+190618595+190102468
1894+190080943+189888580+189336277+189920753+191277337+192114552+192615957
1881+193036132+193405622+193782517+193943592+193041288+190348600+187980561
1867+189548393+193029453+195034114+195605143+195920953+196452103+197058175
1854+197519115+197556408+196761534+195022156+193061466+193425021+196695648
1840+199210057+199979455+200522174+200839914+199405131+197302924+197616430
1827+199343868+201241239+203730581+205646306+206511389+207087468+207295066
1813+206545706+205964809+207072657+208813205+209451874+208486943+207150803
1800+207411976+208529320+208266199+206649416+207271770+211503058+214866216
1786+215966890+216273841+216502628+217260617+218670615+218642694+216101019
1773+214024342+216633905+221674577+225979335+228010304+228237444+229474514
1759+231641048+233750448+236025759+236251429+233921214+233361594+237113022
1746+241914896+245673215+248755837+252433104+255562213+255828382+256687424
1732+263222193+271139943+278147770+283176785+286381897+288561984+288185089
1719+285141035+286604324+296194733+305860915+312290095+315336009+316636380
1705+319276663+322642780+325262194+329623325+337261885+349647754+361938487
1692+369127268+374153572+377945587+380044604+388055418+403665816+416580833
1678+425881848+433825801+442478366+449471986+455499575+465784903+475582078
1665+480291722+483130250+487596509+490919008+489948904+484666919+482249010
1651+487847796+489645248+490573471+498880465+507756007+511981750+511860890
1638+508635759+509437666+518692016+526606666+530845555+533983735+537576017
1624+542753476+551180479+558961052+563733022+570517802+580724187+588471631
1611+593104528+596819655+600395709+602345202+602305163+601326165+599165637
1597+595562370+591466735+587451744+583281913+578989840+574557100+569568780
1584+564174829+558295914+551193057+542056272+534568547+533192032+531176068
1570+526315057+524342320+525544189+526045593+524078951+517622063+514063796
1557+523315205+531460591+535788876+537156568+537739679+537381068+533745841
1543+528142910+528419602+546812970+565951907+576899964+588792188+603965102
1530+615168839+622342419+628346375+631972389+633493503+636062001+637822780
1516+638406849+638255552+634585531+626175713+614222793+611177871+622600792
1503+630660184+633253484+633459488+636787444+644414631+649740481+651285477
1489+656268836+670082739+685041322+695813988+703231343+708580862+711397670
1476+711792954+713386705+722519841+734683655+742404312+746690645+752510494
1462+758938930+760489595+756460219+758730233+770754160+781321459+787936979
1449+791530112+795433774+801500020+807802671+812036139+813296045+814484308
1435+820428312+827257843+830836732+833620658+837060723+838169758+836971291
1422+834974815+831534538+830917518+836027867+841543847+844687342+846146663
1408+845499383+841790528+837925345+835874445+832109111+826267365+822587139
1395+822127864+823421431+823763638+821446640+818832931+819171381+820626733
1381+820670457+819326788+816905689+813655259+812402368+814126015+815527509
1368+815192673+812621199+808011935+806122323+808400771+810519985+811248121
1354+811323238+810581850+808729158+807103731+806687967+805840352+803028150
1341+799556976+798450633+800004133+801949020+803247973+803792640+803908646
1327+804470250+805441737+805847722+805226520+804123012+804253616+805531239
1314+806346185+807391371+809312376+811696909+814749767+817826720+819878967
1300+820835714+821357350+822599044+824549600+825183982+823231443+819906250
1287+816804211+814045796+811270869+808647451+806646440+805814132+805573120
1273+804674695+803578628+802733281+800655240+797120925+794100877+792278586
1260+790857320+789806182+789527612+790354747+792022764+793391944+794350179
1246+795814956+798025586+800730286+803360081+805240481+806794689+809033736
1233+811833465+814611793+817482033+820714818+824375698+827841061+830065864
1219+831250370+832933482+835448193+837073124+837329159+838029304+839988718
1205+842127065+844153376+846861264+849745677+851474284+851896851+852156429
1192+853268087+855382411+858171157+860948918+863491266+866332381+869589472
1178+872382328+874435354+876902089+879834761+882330268+884518575+886888935
1165+889908770+893561146+897503076+902154929+906726068+909568104+911579320
1151+913534411+914782554+916901981+921827798+928019475+932071103+933600013
1138+934989673+937251751+939854547+941809213+943341807+946297298+951317649
1124+956775803+959889748+959291081+958036560+960795614+965948340+967753977
1111+967356355+968784990+970644697+971452415+972531475+974911968+978252750
1097+980435459+981226453+983915279+988350357+990173002+989893015+992494110
1084+997661010+1000349481+999862852+999369916+999801696+1001837573+1005866241
1070+1009416926+1012374825+1015987800+1018178021+1018326058+1018464528
1059+1019772764+1021660392+1022571147+1023291418+1025783948+1029070236
1047+1031615277+1033177564+1033261680+1031961381+1031043610+1032107150
1036+1032960788+1031468161+1030703954+1033204918+1037934369+1041819748
1024+1042019091+1041127469+1042870674+1044033921+1040772365+1037374749
1013+1037854079+1038361117+1036496520+1035850162+1036620817+1035706023
1001+1034338685+1034030281+1033056952+1031635402+1031314455+1031374691
989+1030771276+1030160350+1030725568+1032926206+1035238740+1035038971
978+1033225823+1033761986+1038178569+1043009073+1043879932+1043165118
966+1045318843+1047746744+1046558766+1043616243+1043137622+1046716369
955+1051372829+1053954791+1055243681+1056832613+1058446419+1058665250
943+1057579884+1056084847+1054887869+1056020785+1057862634+1056539020
932+1054074623+1054201542+1057015374+1060836054+1064568507+1065957883
920+1063452456+1061305250+1062723327+1065744368+1067311899+1065641472
908+1061938853+1058468104+1057388761+1058884364+1060272607+1061240905
897+1063930865+1067286671+1067607122+1066288114+1067387441+1070548793
885+1073741823+1072340470+1064452784+1058662345+1058809460+1057308117
874+1051666281+1047404184+1045925730+1044702673+1042910075+1040957252
862+1039109450+1037591524+1035931515+1033956156+1032224502+1029156691
851+1023174562+1015580115+1008246734+1002429365+997083319+990553334+984210573
837+978940990+974659901+972068940+969677108+965617401+961067168+957921618
824+954471561+949568917+947739965+947418522+942350550+936628990+934779771
810+934848723+935370076+933244626+927671599+924634614+925844349+925808916
797+921730643+916247118+912097413+910226935+911002622+911881700+909407453
783+904923691+900164973+895178920+891298785+889874259+891259030+892821884
770+889626232+880994111+873130023+871170609+871472281+868373998+862654777
756+857532947+855166840+854999599+853413218+850172142+848319947+847250738
743+845065690+842922028+842638285+845186940+848059093+846173166+842155057
729+841409488+841943100+842880146+846016271+848423976+846223551+841243876
716+838564617+838639380+838569153+837699357+837290750+837835418+837440346
702+835819312+834283245+832133488+829807349+828604559+828176748+826739962
689+823772850+822151249+823040107+824989317+827237292+827283496+823149098
675+817191487+811851181+807928385+807875662+814003844+819196255+819690112
662+817658770+815533604+815822449+814587629+808274631+803994818+804692199
648+802246581+796186217+796257578+800669342+800782017+801830605+807185651
635+809132592+805460800+798893893+792580329+789263286+787159449+785073188
621+784654093+783328353+778457810+773632975+771371747+774095155+785144052
608+795621141+791288887+777901024+769272305+767140193
##END=
