##TITLE=Sample description
##JCAMP-DX=4.24
##DATA TYPE=INFRARED SPECTRUM
##DATE=25/8/2023
##SAMPLING PROCEDURE=Instrument type and / or accessory
##ORIGIN=Default
##XUNITS=1/CM
##YUNITS=ABSORBANCE
##RESOLUTION=4
##FIRSTX=4397.6552
##LASTX=599.8556
##DELTAX=-1.9287962
##MAXY=1.818035
##MINY=0.80789036
##XFACTOR=1
##YFACTOR=1.693177e-009
##NPOINTS=1970
##FIRSTY=0.87006176
##XYDATA=(X++(Y..Y))
4398+513863425+514246608+515002378+514799433+514429346+514792146+514566848
4384+513944920+514461028+515173534+514983333+514884695+515219966+515478602
4371+515484129+515611985+516491986+517164572+516254754+515210321+515926910
4357+516236026+514623032+514722762+517152004+517925446+516990141+516741961
4344+516415068+515016916+514089990+514937957+516971343+518006835+517118385
4330+517077902+519016100+520252107+519796794+518904402+517999407+516790224
4317+515991894+517136092+519342466+519929649+518882224+517744398+517121378
4303+517211884+517714862+518459684+518847408+517817443+516641352+517188897
4290+519216827+521258275+521664128+521044629+521190263+521695318+522063575
4276+522578522+522824977+522671352+522695149+522897178+522565532+521933465
4263+521302138+520813804+521946596+524147161+524824323+524140508+523158243
4249+521943111+521597630+522199564+522281199+522229275+522360652+521487938
4236+520402001+520931522+522495479+523277756+523338446+523663368+524081191
4222+524499823+524292513+522531069+521348324+522710005+524680836+525227607
4209+524320535+523291802+523812382+524689602+523921616+522814874+522860497
4195+523530196+524034793+523820303+523251777+523211786+523612289+524539004
4182+526167311+526846656+525558901+524197360+524062815+524045002+522984446
4168+521360750+520819647+521982433+523850788+525362222+526126898+526678809
4155+527242969+526815149+525446779+524734063+525446357+526847325+527674521
4141+527485411+527426587+528079424+527955264+526937233+526674690+526778327
4128+526410492+526472449+527239836+527965824+528542658+528934043+528714906
4114+528400474+528448948+528359005+527920413+526894813+526037026+526823633
4101+528649956+530244012+530999887+530446534+529198452+528567124+528994839
4087+529780989+530018749+529557943+529463213+530637122+531859576+531577390
4074+530388343+529650351+529658131+530075848+530123900+529070349+528159757
4060+529182505+531382120+532838708+533035245+532773512+532942943+533200417
4047+532701768+532188722+532533710+532747779+532288663+531766147+531053255
4033+530732733+532258952+534066301+533182393+531060999+530910261+531731226
4020+531546728+531270738+531779912+532666002+533254488+533225270+533450533
4006+534689743+536118803+536286192+535320614+535073138+535993199+536424187
3993+535745864+535293367+535460650+535257600+534838616+535038216+535809123
3979+536722179+537422646+537607073+537042596+536474598+537228044+538630103
3966+539144381+538756200+537944880+537286375+537587395+538833963+539595858
3952+538940979+537873664+537833604+539065598+539861499+539119810+538394667
3939+538452470+538569871+538175740+537628970+538493270+539851255+539053945
3925+537398813+538539245+540997811+540853761+539151070+539337821+540790818
3912+541893371+542755911+542828641+541038682+537800689+534908811+534630391
3898+537823360+541528600+542752321+541530465+540706508+541413205+542109517
3885+542071603+540735937+538628343+539571990+542637947+542868948+539287516
3871+535272808+534874629+537347452+538083790+538128955+540479414+542599857
3858+542982723+541580524+536245357+533782531+538188589+542865709+544836752
3844+544367920+542466579+538875537+535885866+537295247+540017342+541628787
3831+542789002+543226644+543233755+543682486+543090761+541143692+541517299
3817+543009020+544364611+546502092+547782877+546764530+544683760+544819326
3804+545698059+544073976+542929039+544547525+547643650+551149712+553299339
3790+553439904+552674488+551951739+551634315+551663604+551128837+550743964
3777+552403814+555020934+555921493+553972241+551415952+550036282+549625676
3763+550467059+550929835+550048004+549927259+550025122+547875672+543787179
3750+542591268+545053284+547286165+548662878+550730975+552073646+550688802
3736+547301690+546661984+549557347+551562607+550884881+548928378+548619614
3723+550674580+553576596+556100922+557297255+556428836+552886198+549744345
3709+551656493+555271965+557839837+559744909+562202490+565605865+568909617
3696+571866867+574264216+574526442+571241594+567816885+568430823+570603542
3682+570623010+567582892+562183128+554464975+550552003+551643784+551549722
3669+552434722+555763432+557751125+557627775+556740205+555064304+551984935
3655+550082820+549454872+544906876+536704684+536760867+542693321+546249864
3642+546052165+543848432+541493502+539374080+537311088+535371552+531975675
3628+527771399+527344213+527684554+526090815+522808854+519354998+518052282
3615+517654173+516088808+514341163+513276629+512531138+512232548+511761428
3601+509969603+506862847+503831178+502249092+502595101+503507699+502536664
3588+499234250+497236665+497456260+497706236+497335761+497035481+496754738
3574+495673236+493990892+491880940+488741092+486501945+487621149+489240797
3561+489242733+488545329+487879503+486682465+485142834+484965552+485856396
3547+485296565+483585108+483205938+483927632+484196476+483370688+482114122
3534+481504198+481050151+479853572+479118079+479762678+480331309+480340110
3520+480530135+480681754+480206973+479006556+478043125+478700679+480534641
3507+481112320+479768170+478838005+478948507+478675966+478778090+479733741
3493+480011949+479291206+478700326+478236705+477459814+477144642+477645861
3480+478625485+480012372+481106934+480662533+479132054+478605525+479376890
3466+480080102+480306773+480200144+479874200+479838153+480556009+481432489
3453+481613256+481354128+480955069+480891070+481664934+482489736+483024432
3439+483652029+484464264+485403581+485887198+485730897+485603745+485842103
3426+486323537+487265530+488867365+490016139+490059580+490224399+491024912
3412+491479416+491364514+492113384+494180741+496011993+497102577+498339957
3399+499941510+502034038+504408364+505843795+506108063+506061278+506597241
3385+508711031+512012600+514862798+516699120+518263815+520269462+523067419
3372+526734711+530481842+533352775+535588613+538311799+541618543+544436918
3358+547289686+551443973+556352798+561258913+566051322+570519161+574808698
3345+578848541+582089491+584860905+588463458+593260479+597615704+600709893
3331+604046278+607734550+610021890+610578658+611029677+613408333+617441734
3318+619989153+619962187+619599527+619680987+620248597+622192146+624038747
3304+624365429+624630436+624927126+623321524+619912270+617377383+617147649
3291+617196722+615423696+612202706+609003754+606845608+605420175+604352402
3277+603564421+602256425+600527402+599461812+598605820+596883133+595521910
3264+595531274+594856506+592697163+590575840+588765111+587917603+588943308
3250+589803701+588613774+586974871+587061963+588055598+587890919+587020951
3237+585963986+584406471+583732337+583939470+583370452+582320421+582246073
3223+583565546+584751846+583926481+581683813+580285099+580836305+582904613
3210+584792506+584670915+583451700+582616266+581751825+581149997+581642520
3196+582403218+582033483+581195022+581475553+582322604+582489254+581924601
3183+581288626+581705709+583307474+584659791+584806728+584389785+584450721
3169+584823977+584670211+584254043+584544431+585833137+587557759+588843121
3156+589016354+588048241+587093962+587599440+589571080+591540398+592452926
3142+593171838+594357048+595225502+595577812+595579994+595546059+595918998
3129+595918505+595196072+594902199+595531766+596239062+596536244+597057317
3115+598402136+600069483+600949132+601603060+603180147+604363808+604056628
3102+603301949+603015750+603245061+603526332+603770006+604153435+604603539
3088+605417640+606206184+606357697+606757531+607470881+607098012+606008907
3075+606178092+607970902+609160617+608126499+606641361+607014582+608943768
3061+610828246+611516462+610845425+610172629+610512266+610916958+611159294
3047+611847791+612066260+611814912+612176656+612585291+612707937+612979844
3034+612989067+612707374+612762361+613288925+614272281+615829866+617517350
3020+618407278+618454027+618587727+618842174+618547315+618504437+619808140
3007+621693533+623129316+624255737+625308091+625788962+625141863+624584602
2993+625932026+628323496+630424965+631957063+631601866+630208186+630790159
2980+633034481+634823560+636012078+637012543+637489401+637435470+637250796
2966+637347745+637992027+638795849+639452382+639960147+640165591+640152566
2953+640222972+640737074+641524632+641947066+642036130+642539249+643514156
2939+643924269+643859778+644449707+645627031+646845542+647812634+648230210
2926+648092427+647578183+647302968+647584590+647209680+645798609+644994436
2912+644856159+644248417+643743819+643823026+644314105+645403000+646425854
2899+646651504+646648617+646941223+647424136+648111788+648860553+649467590
2885+650537757+652233689+653452904+653526689+653032089+653298082+654241659
2872+654263133+653979327+654609458+654979299+654881858+655631326+656625384
2858+656599405+655982440+655503963+655420461+655651955+655831631+655947659
2845+656143739+656756761+657712096+658026105+657728501+658052578+659065997
2831+659483081+659389582+660150104+661256952+661678471+662235802+663114043
2818+663710308+665005210+667517003+669560317+669899250+669449005+669368813
2804+669550108+669723728+669851233+670092161+671190279+672538196+672954434
2791+673447555+673906530+672989637+672717660+674701481+676844207+677627119
2777+677527142+677009097+676512526+677099217+678726151+679859894+680300986
2764+680765100+681134730+681326515+681442403+681471339+681843645+682855867
2750+683703481+683677431+683351734+683627302+684662055+686023278+687093585
2737+687384290+687168004+687286779+688185648+689075505+688936665+688470650
2723+688853516+689958393+691006944+691720295+692318180+693037022+693955675
2710+694476537+694534762+695092023+696085799+696586595+696635105+697625431
2696+699452951+699849899+698956380+698754808+699422677+700425676+701361720
2683+702101332+703260279+704578696+704849547+704088743+703455022+703342091
2669+703515923+704147532+704420213+703490154+702676405+703055681+704674448
2656+707196028+709058821+709273911+708631107+708563729+709776607+711107275
2642+711508939+711849984+712558688+713076029+713604142+713965886+713481495
2629+712554534+711924614+712310015+713783536+714955227+715130256+715314789
2615+716164656+716891876+717058597+717408231+717799757+717713933+717786169
2602+718518529+719637487+720747855+721751488+722669085+723308369+723520712
2588+723366876+723039278+722856505+723151716+723987079+724970013+725678365
2575+726588710+728067934+728889287+728473893+727988868+727955707+727992600
2561+728266971+729067835+729653822+729370932+728584289+727847846+727906986
2548+728851267+729515123+729859477+730790522+731461629+731376508+731883852
2534+733214660+734782665+736343136+737034802+736328562+735282193+735402798
2521+736405305+737014243+737269957+737589035+737676479+737424356+737530739
2507+738349417+739292853+740233755+741077637+741585825+742275731+742768007
2494+742707388+743135877+743569998+743042519+742659442+743031395+743603934
2480+744178655+744581517+744942487+745625774+746689393+747987040+748575420
2467+747972255+747164772+746860690+747549891+749315665+750776654+751075174
2453+750985900+751129034+751194089+750854452+750370554+750370343+751335957
2440+752694575+752939164+752068809+752038817+753194244+753989406+754317989
2426+754776823+754966989+755061403+755749971+756641377+757243064+757845807
2413+758154606+757627620+757170898+757789553+758795791+759553427+760402589
2399+760895711+760721246+760961470+761731145+761823799+761501129+762065642
2386+762879743+762252217+760460674+758731511+756834641+754143102+751442551
2372+749253216+746207254+742176388+739039111+737597906+738056318+738915760
2359+737895371+737249680+739248638+743148409+748694969+754153240+756482190
2345+754636012+751465292+750305217+751209438+753142214+754512943+754161689
2332+753398280+754199708+756333211+757934025+758943080+760540162+762300656
2318+763871196+765665344+767390917+769049393+771068628+772967822+774096284
2305+774598558+774756408+775075909+776303291+778047310+779002786+779169718
2291+779869269+781285479+782258485+782531589+783091244+784228929+784972695
2278+784748946+784420010+784790696+785145752+785148568+785678442+786462198
2264+786723051+787005800+787727529+788013517+787466957+787501315+788884505
2251+790351056+791028922+791431361+792080571+792972541+793755452+794049044
2237+794221115+794633341+794569976+793722080+793109410+793639072+794694101
2224+795158356+795285720+795755959+796626878+797732317+798465945+798133911
2210+797075855+796640396+797520396+798876973+799925947+800819536+801328076
2197+801081093+800887759+801329062+801724390+801904629+802211879+801941451
2183+801024558+801067223+802274610+803192278+803625696+804212104+804719025
2170+804980935+805476520+805882972+805704846+805622471+805995833+806634694
2156+807487799+807801386+807425420+807708944+809054185+810549602+811259150
2143+810770746+810115692+810268683+810646832+810869244+811181000+811602448
2129+812067548+812384515+812600871+813021616+813381882+813598168+814118677
2116+814475986+814031374+813643861+814396850+815805105+816882734+817551377
2102+817648325+816850981+815679712+815099006+815862837+817594254+818687584
2089+818546913+818387796+818979908+819907081+820670560+820586636+819229989
2075+818035909+818803190+820793911+822254617+822862359+822793432+822446754
2062+822497517+822629880+822461962+822434433+822459005+822377053+822770902
2048+823652100+824215909+824112483+824109526+824832874+825982176+827415917
2035+828552758+828575640+828067874+827617348+827365155+827972826+829111497
2021+829530130+829078196+828444474+828295566+828884369+829535058+829652565
2008+830056905+831398415+832558701+832653748+832212093+832265320+833452923
1994+834455993+833880286+833300495+834120017+835264884+835465892+835099149
1981+835598748+836746149+837364452+837502025+837769144+838377167+838331967
1967+837458584+837933119+839916306+841067298+840817428+840392882+840259674
1954+840471877+841030265+841099614+840973236+841815499+842658818+842476045
1940+842439716+843042389+843854729+844609056+844756204+844477045+844755077
1927+845640570+845859531+845185467+845147519+845608253+846183538+847723522
1913+848744968+847685996+846347020+846738124+847701062+848104628+848871768
1900+850349513+851444392+851499097+851114752+850857068+850786380+850978658
1886+851097151+851542960+852900381+854188665+854560477+854579839+854697768
1873+854116710+851852393+848923516+849118399+852606297+855691967+856946596
1859+857290246+857514207+857534976+857375085+857483440+858041193+858858815
1846+858430114+856719397+857415498+859686574+860754488+861005132+861424820
1832+860828062+859057922+859403543+861357864+862302638+863295640+864550058
1819+865036984+864899270+864550199+863864448+863095406+863343445+864440507
1805+865445970+865999289+865445618+864883288+866529303+868611621+868147155
1792+866153688+866271618+867731269+868840933+869545412+869568927+869571110
1778+870642896+871189314+869050671+865193777+865490044+869599695+872078327
1765+872172530+871183823+870607834+871050193+871664905+872656428+872522446
1751+869503732+866221348+866251764+868332674+869739309+868879233+867567716
1738+868387238+868666256+866175021+866528106+870010723+872992052+875028255
1724+876070400+876238599+874015328+867113881+862676140+868097167+873927321
1711+875874883+874508309+870431467+867224629+866930193+864271533+859103122
1697+858435254+862133313+868122302+872253637+872640516+870344868+864322577
1684+858231077+862076847+867523501+869397490+868403432+867203085+867012708
1670+865146042+864208802+867173374+869150084+868273674+868014792+868789114
1657+867663538+860286923+847622208+846897030+847957832+845156883+848885075
1643+856840002+860845522+860138086+854462050+848075409+851683630+858222066
1630+860717313+859822668+858861560+859474864+862249904+865649654+866898369
1616+868196087+873457081+878456026+880740549+881426019+881914353+883572477
1603+886710529+890221238+893763982+896910764+898720894+899454240+899987704
1589+901619989+904553160+906556343+907196401+908131529+907858707+902990013
1576+898187430+902228857+907204920+906910976+905454142+905552428+905369866
1562+904742904+899264074+891308091+899083765+909231266+914517818+915744355
1549+916181363+917193093+915014882+906399268+895662823+898842133+909782120
1535+914598150+915722036+918906556+921341607+919938844+918246503+917972977
1522+915827715+914506060+916650687+921850922+929064477+933968585+932909683
1508+923245306+915630298+924772124+933876424+937255756+936132152+934853655
1495+937988327+941365829+939706859+934874917+935163792+939399961+942598351
1481+944271049+945447457+944395949+939385598+932190067+928875438+931417787
1468+933782644+933707802+935278131+938889097+938231016+929650323+923900713
1454+928879380+934018643+937274766+940351424+944180225+947760566+949571893
1441+950177382+949625542+947738177+949440234+953761101+955023335+956117791
1427+960587285+962369253+959174735+955228215+950356283+948036486+950985639
1414+952627992+951248745+949339061+946579581+941677796+937370728+934761142
1400+930797795+926828815+924422560+922367207+923153216+924721080+921859300
1387+916648012+916125109+919903852+923663234+925071348+924018572+921781502
1373+920854188+921659559+921978004+921537335+920849049+919759662+919435232
1360+920846092+923050212+924309066+923999985+923787993+924344480+924208667
1346+922659249+921267751+920561090+919083274+918102805+919585408+922111986
1333+924009560+924811058+925706830+927494219+929340538+930617134+930786318
1319+930797865+932462044+934351944+935606855+938532915+943059085+947899758
1306+953412593+957559559+958604379+959191492+960851376+962743177+965333825
1292+968671406+971358650+973799686+976675617+978037827+977945102+979421721
1279+982565968+984891890+985355512+984591962+984161924+985050444+986602326
1265+987880823+987664255+985346570+983922263+985797167+988641063+990669592
1252+992817810+995095153+996295077+996395757+996897749+998319099+999652442
1238+1000417822+1001262831+1002163813+1002149309+1002119669+1003289177
1227+1004925546+1006205099+1005853845+1003977604+1003627758+1005348896
1215+1006377241+1006033098+1005265324+1004780229+1004972155+1004030690
1204+1002086015+1003049305+1007052854+1010467741+1012202467+1012906101
1192+1012422555+1012110376+1013454632+1015000600+1016030635+1017394604
1180+1018599879+1019266973+1020082482+1020905595+1019974832+1017221195
1169+1016040210+1017867097+1020177671+1021055348+1019952725+1017982703
1157+1017782610+1019332239+1020989800+1021749266+1021705756+1023638533
1146+1027797748+1029212551+1027852876+1029636041+1033295728+1033246656
1134+1031292264+1029830431+1027589277+1026130049+1026349433+1026990899
1123+1029178826+1032076231+1033185543+1032744029+1030494920+1028237784
1111+1029974059+1033805606+1034633296+1032993477+1030771121+1027649192
1099+1027104252+1029765235+1030471193+1030270537+1033882419+1040304473
1088+1045673822+1049318020+1050855540+1048277424+1043890657+1042107422
1076+1045129516+1051452791+1055286310+1054819028+1054563526+1057828308
1065+1063668248+1067114325+1065398749+1062702071+1063316220+1065217948
1053+1063831308+1062466634+1065507033+1066823831+1063971133+1063205753
1042+1065358477+1067415872+1069066533+1070650169+1071619373+1071366265
1030+1068902418+1065701846+1065699241+1069182421+1071357394+1068403523
1018+1064760944+1066064928+1069528254+1071183140+1071486870+1068888970
1007+1061286776+1053746256+1051643239+1053364658+1055466901+1057128898
995+1058314389+1057823168+1057081867+1058705915+1060344184+1060226537
984+1061168001+1063149217+1063223143+1062475928+1062457974+1061458073
972+1059195797+1058023824+1059594998+1061365137+1062051381+1065056719
961+1068835180+1068599885+1065591168+1063153723+1061540447+1061453778
949+1064284509+1067434107+1067452413+1065496895+1065407480+1067419885
937+1068123872+1067770013+1067668417+1066761944+1067536688+1071521087
926+1073741823+1072662152+1071488841+1069164186+1064855499+1062606671
914+1064690961+1068205542+1070137193+1071339511+1072711436+1073199981
903+1073174001+1073079165+1070711422+1065991636+1062264922+1061011278
891+1062152554+1065060591+1067931594+1069774815+1069010139+1064074841
880+1058291647+1055858427+1055831954+1055212244+1054145316+1054079839
868+1052419391+1048881716+1050492458+1056008954+1054203541+1046127798
856+1040904682+1038032482+1034384411+1031424416+1030080301+1027720232
845+1022421007+1019006191+1019711092+1015469291+1004128624+997241470+996832343
831+994500506+991206013+992158602+994148196+992900889+988996190+984577036
818+981402373+980237441+980223360+979664339+978053245+975731900+972427550
804+968384573+964072507+959561755+955570739+952798374+951486857+949651029
791+946360197+945153514+945230467+944018856+943384008+942146980+939232255
777+936776434+934428264+931252404+927323767+922980299+919253093+916124405
764+912861524+911096594+912534630+912721839+906908512+901423416+902190979
750+902898979+898503622+893440890+890973030+889628211+889348208+890694998
737+890307767+887489286+885888402+886924914+889001460+889764235+890389719
723+890779696+887231320+883100830+883137229+884194300+883574730+882664666
710+880594598+875761952+872363892+874249849+875818066+871886049+867571307
696+866473260+865645923+863831779+860076903+854176273+851170162+852183370
683+852047839+850491662+850928248+853318521+855893750+856320056+851743546
669+844985234+846577669+853833257+856984756+856217123+850539890+841400106
656+835247846+833913095+834424662+836613716+838738137+834296524+826822186
642+824887297+824211051+821227891+822956773+827895098+830277908+833962660
629+837503292+834702061+823480310+804167256+785261358+775953304+775394142
615+776560201+779435217+786884632+795822211+810709845+828870006+828990892
602+820679431+826824650
##END=
