##TITLE=Sample description
##JCAMP-DX=4.24
##DATA TYPE=INFRARED SPECTRUM
##DATE=25/8/2023
##SAMPLING PROCEDURE=Instrument type and / or accessory
##ORIGIN=Default
##XUNITS=1/CM
##YUNITS=ABSORBANCE
##RESOLUTION=4
##FIRSTX=4397.6552
##LASTX=599.8556
##DELTAX=-1.9287962
##MAXY=2.0119882
##MINY=1.2025268
##XFACTOR=1
##YFACTOR=1.87381e-009
##NPOINTS=1970
##FIRSTY=1.2859895
##XYDATA=(X++(Y..Y))
4398+686296649+686126088+682349875+678794418+677537313+677372859+677641457
4384+677948226+678932980+681992910+685465153+686134231+684352081+683494120
4371+684355835+685117541+684550699+682389318+679910544+678112872+677958914
4357+680843385+684709618+685790563+683749803+681701791+680467653+678490130
4344+678154415+681147291+684175921+685398799+684959449+682450328+679040623
4330+676678843+676617960+679067724+681783287+683077227+684421616+685316477
4317+683489794+682313167+684842708+686793511+686092942+685268826+685156030
4303+685472788+685693354+687260472+690070572+689532231+684925603+679868747
4290+678054152+681241256+685670387+686633192+684461633+682050867+681227959
4276+682399815+685278942+687483964+685874730+682509685+682483156+685116523
4263+686254088+686143837+686223361+685670896+684311047+683499146+684216955
4249+685759199+688047180+690737677+691100177+688285687+685423038+686522496
4236+690720437+692274832+689434640+685859589+684248510+684981270+687395535
4222+688664918+687873183+688172446+688834589+688089551+688067475+688348415
4209+687298007+686533756+687811919+690349349+692688544+694825686+695947410
4195+694334804+690738441+687301506+685286003+684477664+684672910+687972301
4182+693166574+695181632+694525405+694042031+693355585+692273814+690730170
4168+688190768+686693757+688990773+691890066+691741962+691667591+693230193
4155+693846276+692810183+691045528+689096507+688194458+689097016+690422638
4141+692159109+694484053+694166405+691382707+690754536+692268724+693113898
4128+693840996+695153513+695671241+694450399+692734604+692561306+694048265
4114+696008675+697440604+697293772+695207207+692729896+691573881+691949677
4101+692543811+691211636+688645260+686917949+685986254+686724167+689422743
4087+691136694+691385061+693263402+695737786+694626432+691278754+689736638
4074+690464626+692281066+694055772+695613475+697517837+697983080+696691176
4060+696777188+697301915+696268875+696355842+698284696+699011348+697946626
4047+696989293+696262068+696089852+697223918+697171433+695712084+696891702
4033+700601179+702515973+701155934+698130675+694626368+692111968+692113686
4020+693601917+694816970+696465520+699574501+702259018+702912127+703598254
4006+703877095+700026639+694290971+691389641+691672299+694314446+697164244
3993+697039106+694928621+693810014+694306557+696015673+697905020+697580628
3979+695012534+693797735+696132604+699764975+702339813+704273057+705194701
3966+705260546+705825989+705520937+703007682+700162655+698307535+696906588
3952+696873761+698964843+700614157+699998646+697798967+695790908+695864960
3939+697184411+698097085+698056432+697770975+698603489+701266057+704926675
3925+706746233+705390201+703821810+703571916+702463424+700771231+701182017
3912+702511711+703144017+702985734+701153643+697512811+694065697+693810586
3898+697899994+702561461+703902033+701859111+701305819+703803806+704396986
3885+702687426+702670885+702668467+702859005+704423897+704285081+701446798
3871+697006915+694478391+697022947+698825391+696783423+697039742+701346980
3858+705927779+706942051+700496971+697378194+703684457+710074570+711929182
3844+708009509+700940266+697017667+698553612+701065659+701979159+703208653
3831+705009761+705612294+704933037+704695485+703431573+699963020+701293732
3817+705762625+706940970+708228866+711370355+711419469+705062183+699024899
3804+698447433+699662040+700899296+702237769+704459651+707825015+709485334
3790+708959272+709086445+710341705+711572027+712206750+710773930+709187408
3777+710600124+712641329+712711373+709324634+705107289+706055652+710549675
3763+713418686+712794650+708946230+705559617+705120140+704288389+700000110
3750+699454643+705483084+708735907+705836868+704741800+707164144+709851333
3736+709963365+707529506+707800012+711362912+714604347+714629476+712291935
3723+712125700+714297387+715701769+716161922+715323746+711503637+707354364
3709+707738048+711634564+716467674+718543233+717055319+716282989+716175155
3696+715503851+715949372+715937476+713075018+712758387+715682874+718480377
3682+720582465+721227304+720682219+716063250+709364650+709975325+711491485
3669+709078366+709486543+712335514+713041554+711776624+711125678+709331823
3655+706251979+705859261+706687449+703114243+696842206+694844326+695464353
3642+696714078+698199638+698563600+696713124+694078548+691250953+684970200
3628+680004064+684148565+688530746+688094767+683815331+678655984+676217735
3615+675397309+674097198+672411240+671189061+672228972+674829958+675553811
3601+673848576+672012160+670215187+667429898+665506197+666233422+667191964
3588+665559637+664003142+664036606+662946500+660629636+658943105+657697897
3574+656818432+657519637+658364111+655868478+651800510+652724698+655638115
3561+655303354+653168248+652396490+652883618+653800490+654304541+652313149
3547+648127741+646555342+648374136+649492679+648943905+647513503+646720623
3534+647452111+647517383+645594446+643108801+641754932+642396526+644313866
3520+645996388+646445791+645578350+645144026+646086791+646462013+644891905
3507+643290496+643596502+644870211+645401236+644937074+643597965+642235126
3493+641921040+643008029+645215151+646751606+646810135+646197042+644596460
3480+643336365+644500904+646015220+645829898+646294633+647405224+645984301
3466+643731691+643549360+644112194+644100298+643925919+644048639+645218332
3453+648089951+650215960+648483878+645874622+646818850+649567177+650090949
3439+647562871+644858314+644746027+646254298+647569614+649209322+650703661
3426+650455611+649073496+649088192+652077378+655801997+657165281+656461659
3412+655708477+655185659+654129907+653934662+655424738+657150840+659382328
3399+662264126+664078276+665346896+667896096+670578513+670949410+670133819
3385+670550585+670752955+669305885+668782876+671091470+674803301+678498019
3372+682257246+685471515+687919498+690435362+692804139+695815910+700163610
3358+703965588+707143277+710504251+712320818+713080680+714991530+716671572
3345+716964472+719157280+725867522+733666725+738105272+740583664+743008045
3331+745028637+746827455+748052496+748633779+748098937+746825801+748478486
3318+753579049+757371294+757602421+756380942+754765792+753666779+754224906
3304+753817110+751449160+750384311+750406195+749986630+751013308+753269417
3291+754205311+753720855+752946043+752529214+751362893+748961797+748943221
3277+752197761+752927085+747724478+741018880+738268390+739864837+741840006
3264+741952293+742545728+744204012+743496381+739212809+735685854+736128895
3250+737615472+738421393+739420015+740023757+740664715+740381802+738922899
3237+739917004+742002361+739951359+736385469+736433819+736871452+734664266
3223+732811690+732552126+733658137+735000681+734662739+733822209+732908327
3210+730393609+727809291+727776591+729169267+729903172+730881055+732539975
3196+733795362+734402602+734152517+732901838+730662270+728095511+726879886
3183+727130734+727037342+725658599+725139979+727379483+729697938+730096637
3169+730860824+733376433+735914436+735983208+733753247+731788066+731952584
3156+734039149+734867782+732859404+732094644+734980132+737711663+736837479
3142+735297908+737472012+740514765+739900845+738849038+740946227+744221316
3129+745829532+744395313+740683800+738370180+739858157+741974687+741574462
3115+740997631+741925255+741601945+738774350+737130571+739299776+743330655
3102+745530461+744995301+745208232+747000688+747984678+748211924+747764494
3088+746423794+745288010+745222547+745720808+745417220+745112295+746560193
3075+748776412+749746470+749896037+750487436+750772893+750708639+750870993
3061+749790049+747992249+748247678+750127673+751413533+751103965+749653650
3047+749313354+750728551+752036042+751926681+750557099+749376973+749635328
3034+751543824+754435102+756588466+755729996+752501285+751496683+753085941
3020+753226156+751980503+750922652+750327054+751822792+755458599+758433090
3007+759868899+761183579+762570593+763392864+763595808+763020250+762439220
2993+763539124+765156374+764845660+762642737+759451306+758223339+760732841
2980+762898929+763900605+767825495+771731744+771079208+770136443+772075349
2966+773068182+771346279+770299116+770884535+769965754+768834678+770216475
2953+771207781+770990269+772198833+774258169+775546065+775911300+776062649
2939+777291252+778752446+778120712+777026408+777537393+777061525+774629384
2926+773681911+775787879+778370925+778669105+777153072+775885152+775436514
2912+774506854+772320980+770591507+770658752+771193403+771531854+772631885
2899+774537582+776715821+778136299+777779716+776725619+776375525+776994471
2885+778633415+780494579+781968369+782922522+781932488+778966904+776728481
2872+776790319+777946842+779030523+780841746+783134690+784409099+785352500
2858+786945893+788318530+788139380+785761314+782375020+780994431+783290938
2845+785936011+784810851+782267759+781936687+782380173+781907995+781237391
2831+780348892+779458995+779939315+781643850+783005163+783853645+785356954
2818+787131978+788289011+789612343+790221173+788407405+786142899+785648582
2804+786109308+786806887+788405242+790310875+790878736+790293762+789943987
2791+790050866+790573112+791942249+792983623+792638619+792075403+791939831
2777+792457942+793555873+793896487+794064504+795904101+798352529+798769104
2764+797017491+795588107+796043426+796816711+796203491+795923187+797729321
2750+799937843+800804074+800848544+800461806+799699845+799435764+799699463
2737+799746987+799499065+799001249+798707458+799548433+801231846+802400521
2723+802991793+803865595+804814340+805335505+805584381+805562496+804703835
2710+803905103+804755875+805395624+803927751+802726885+803872148+806132328
2696+807342610+807697029+808872639+810007405+810080566+810830440+812397876
2683+812669083+811319794+809895818+809782322+810644037+810690288+809751403
2669+809653494+810670566+811162593+810787879+811178943+812844416+813647856
2656+813332625+814597046+816687110+816446123+814887529+814706788+815115347
2642+814495320+813600396+813625017+815134497+816801051+816493137+815356780
2629+814985883+815833666+818252575+819693092+818860260+818433061+818577412
2615+817576944+816439125+816746148+817361214+816623810+816218813+818118148
2602+820538139+821464681+821891626+822586914+822656386+822227214+822146546
2588+822607654+823509321+824583904+825274294+824670107+823550801+823706030
2575+824412388+824348515+823975455+823894850+823891797+824019543+824288014
2561+823760551+823145804+824403163+826822581+827777052+826583248+825692205
2548+826975648+829290795+830829221+831090376+830919369+830829221+830270840
2534+829594637+829644960+830116756+830165806+829140209+827516597+826867369
2521+827619151+828531442+828627061+828091837+828030000+829840078+832625303
2507+833343431+832162032+831660463+831448612+830547899+830161225+830530404
2494+831028857+832318916+834331174+835443356+835364023+835193207+835251164
2480+835528859+835700630+835355498+835337112+835989776+836751101+837371637
2467+837244464+836325556+835423443+834845722+834756783+835470139+836812048
2453+838192763+838694715+837791393+836655037+836080242+835305240+835242575
2440+837723639+841492282+843522672+842792457+840873018+840168632+841146705
2426+842064086+841865533+841024876+839950484+838990796+839482950+841307597
2413+841820491+840472602+839310289+839174145+839406417+839326703+839364619
2399+840452689+842134512+843170224+843477121+843884216+844514741+844392530
2386+843491435+842895137+842018535+840049474+838588090+838473195+837588195
2372+834168183+828538758+822982368+820862085+821627545+822099786+822836617
2359+823886135+822249226+819384542+820464914+825858886+831131792+833436505
2345+833711783+834265011+833941319+831257184+828886943+828172506+828181031
2332+830144493+834381560+837438819+836824390+834279898+833796268+836730679
2318+840226525+841944356+842868926+844272354+845655551+846621918+847471991
2305+848360489+849500727+851047805+852459058+852606399+851429963+850281709
2291+850226997+851619610+853830358+854860027+854036610+853162935+853426634
2278+854699707+855908017+855611045+854341534+853719662+854041763+854507897
2264+854935860+855208720+855081610+855639801+856587782+856742248+856621818
2251+856192838+855726386+856147287+856841175+856900086+856870058+857783431
2237+858615564+858075441+857757666+859180052+861307333+862486378+862003703
2224+860037123+858044777+858157891+860297641+861910756+861423564+860049465
2210+860064924+862169620+864375788+864333482+862683150+861132890+860045647
2197+860180964+861897905+864092113+865601847+865719160+864818320+863761486
2183+862831763+862131449+862244563+863479401+864180288+863485509+863588380
2170+865281018+866640804+867070739+866849155+865520034+864065456+863974609
2156+865565457+867417206+866748001+864676959+864607233+865857276+866960487
2143+868805683+870620533+869804305+867013736+864775186+863270605+862568955
2129+863449946+865453743+867292195+868178594+868704911+869190385+869032102
2116+868330452+867581533+867895491+869775359+870805218+869219523+867504745
2102+868114466+869455293+869631581+869642205+870332595+870674354+869775359
2089+868763377+869195475+870499339+871071398+870436929+869669561+869947575
2075+871002754+871445603+870701392+870250972+871156520+872220797+872293004
2062+871685127+871133745+871045505+871261618+871612857+872347461+872946686
2048+872077846+870131051+869451603+870871826+872631392+873353145+873145558
2035+872592330+872755257+873813363+874656692+875184727+876312558+877864599
2021+878495060+877935789+877823629+879330373+881280731+881813410+881015568
2008+880342483+879869669+878522607+876383748+875208329+876612520+879388075
1994+880208756+878673574+877960854+878764549+879029139+878473175+878500722
1981+879585484+880426141+880543581+881214758+882219869+882111400+880947369
1967+879547567+879222094+881115322+883234905+883000470+882436682+884168509
1954+885995446+885529694+884387930+884363246+885163187+885246400+883976572
1940+883548354+885128515+886713001+885958102+883879935+883628323+884946629
1927+885632502+885398003+885185326+885600947+885386679+884464272+885103004
1913+886355464+885541718+883860976+884425210+885721822+885649361+886025983
1900+887065958+887255414+887441371+888891304+890320434+889855318+889545431
1886+890895356+891272169+890600038+890547298+890732301+890656340+890674917
1873+890612571+889314050+887674025+888617108+890649152+891516783+892049526
1859+892686603+892492502+891586700+891075969+891172860+891484019+892180707
1846+892053152+890461349+891580274+895105448+896915081+896467333+895476218
1832+893463832+889585066+887414142+888846199+891325927+893806864+895471574
1819+895948777+896087339+895922503+895700537+896240978+896536995+895661730
1805+895180327+895232177+893652016+891750963+892299738+892817785+890498248
1792+888338204+890763156+894636006+897181389+898672101+898989622+898562804
1778+898210675+897148689+894388466+891045750+892203165+896385837+898636157
1765+899362873+898764285+897132911+896171188+895448226+896026265+897439808
1751+896445194+894576777+896378967+899283795+899733833+897687793+895544481
1738+895964427+896279467+892657147+891239024+894918218+898446510+899761762
1724+899869532+899481013+897325549+891883226+887599845+891614628+898569039
1711+902791283+902584331+898419726+895067531+896217502+895275437+887508425
1697+883092527+887080144+895101695+900228977+899890335+896520900+890934927
1684+884507342+886724580+892103283+893634648+890801073+888249964+887799544
1670+886203797+887830972+893759214+895199604+890706090+889715611+892844632
1657+892609942+884411978+872018426+871728515+872804498+871190492+875364195
1643+881274432+882733463+880662421+876262554+872576743+875612244+880456933
1630+881814110+880121344+879308870+880595049+884515867+888940481+888985905
1616+886588818+889494791+894645040+897714895+899523510+902064948+904018741
1603+904319212+905004194+907050361+909242342+911249448+914059230+917780922
1589+921085148+923209502+923941753+922894335+921902520+921780945+918527805
1576+913745462+916090383+919151586+916835485+915766118+920244745+924292292
1562+924530989+917995380+907912331+914163628+923153009+926665395+927652057
1549+928553152+928079829+924086931+916218702+907351723+910435383+921739402
1535+927121477+926634795+927588693+930121861+929851927+927398091+925270365
1522+923765593+923776981+925709334+930420105+935340309+936289563+933320098
1508+926768330+924423728+934247277+942090440+944322883+942650603+940110182
1495+941086856+943073921+940600936+936207750+937569762+941053265+942564845
1481+942581894+941730995+939435761+934652146+928360578+927964616+933607209
1468+936744627+934948227+932573470+932834434+930590031+922552385+921096154
1454+929354365+934306887+934725371+934247849+936009005+937858845+939237779
1441+943213437+945914813+941420281+938350999+941737993+944835013+946805601
1427+948872953+948168377+944648038+941577038+938684997+937220177+938856131
1414+940475799+941507566+942875940+942125621+935996408+928791785+927236500
1400+928061507+925686431+921031326+919740949+923516017+926076159+922397155
1387+914952054+911818199+914976611+919195991+918852133+914600434+911776147
1373+913012639+915521441+916249875+915723176+915502355+915252461+916279012
1360+919623763+921729287+921507639+920779333+919724154+918298777+916938992
1346+915947877+916123528+917314597+917618821+916318138+916193254+918166005
1333+920157269+921412084+921603513+920710688+921823188+926158545+929775903
1319+930775543+931434441+932519458+933456879+934486610+935669917+936651363
1306+937491765+939269525+942391102+945377108+947774450+950705998+954719827
1292+960285760+966593296+970485931+971107358+970834689+970269437+970053388
1279+972260256+975132066+975868643+975735425+976671701+979034117+981173485
1265+981110376+980450459+981349454+982489374+982406860+982270971+983744188
1252+986446200+987958416+987686446+987847083+989501805+991472393+992002654
1238+990842313+990241244+991799711+994198325+995394165+994629278+993344372
1225+993638354+995002465+996475237+997567188+997426718+997178860+997612230
1211+998548697+999697523+1000182233+1000867343+1001435712+1000145398+998608180
1198+999600059+1002312059+1004048721+1005603371+1008138829+1010100765
1186+1010931306+1010992571+1010838678+1010523384+1008365947+1005010445
1175+1004760741+1008463984+1012120594+1012949927+1010835624+1008177382
1163+1008035576+1009940191+1010172590+1008140801+1008988520+1013948103
1151+1018534755+1021162206+1022339723+1021773899+1021366103+1022743066
1140+1023129422+1022439159+1024044576+1027294663+1030492710+1030486348
1128+1025537070+1021542645+1022025129+1024272840+1026171348+1027433415
1117+1025526446+1019344048+1015045271+1016526822+1020565590+1021967363
1105+1020083233+1020295974+1022558826+1022585546+1021544872+1024253246
1094+1032995913+1042154965+1045863743+1044349046+1040366517+1038454776
1082+1038410498+1037899640+1040525882+1046401956+1048855728+1049242593
1070+1051503346+1049940108+1043197802+1038054042+1040862807+1051283925
1059+1059178366+1060627790+1061424677+1061826492+1057452073+1049440384
1047+1045243969+1047686926+1052127700+1054532167+1055872422+1057055474
1036+1056705763+1057453282+1060962869+1062615491+1060641722+1057788298
1024+1055341524+1054097970+1054546927+1055301953+1055476268+1054036323
1013+1051044210+1049072604+1047965194+1045917755+1044462669+1046601274
1001+1052263144+1056715114+1055788572+1051284434+1047202470+1043813249
989+1041325760+1042726643+1046971280+1049112684+1047576739+1045192502
978+1044557524+1044159398+1043013754+1043859564+1046983749+1049554834
966+1050402234+1050934913+1052079986+1052970456+1054746753+1057137415
955+1056956038+1056225632+1056097632+1054169032+1053280343+1054050701
943+1052393753+1050053922+1052481229+1058067584+1060716092+1061904362
932+1064543391+1065340724+1063271718+1061401393+1062509439+1066660811
920+1070028274+1068041336+1060233163+1051588214+1049887687+1057302506
908+1065149486+1067183566+1067651227+1067749581+1065197964+1063008782
897+1063317523+1062920097+1064165687+1069915797+1070879619+1064533021
885+1061057152+1059475401+1053943440+1051769209+1060239270+1071676888
874+1073741823+1065772249+1057600177+1056909597+1057083657+1048151533
862+1037944618+1036416498+1039320118+1040020495+1039317573+1038448224
851+1035716693+1032888843+1031550306+1029185283+1025833660+1024519999
839+1027184794+1030053741+1026204748+1017428235+1010424902+1006933700
827+1005512332+1004746300+1003876060+1003525776+1005711204+1008654585
816+1007854199+1005309707+1002901168+997056712+990601517+988964036+990085124
802+990828890+989487745+985480087+984119602+982085522+968526158+954142487
789+953465712+960789302+965593147+965600336+962441288+956999920+949416320
775+944040034+944720118+947506552+947929934+945251715+940987102+940008392
762+942030448+942149351+940346525+937000820+930697419+923654960+920375100
748+920674108+921217093+921618208+921226127+918211556+913795212+912020697
735+913346064+913072377+910318389+908135823+907869770+909372315+910841207
721+910204893+907568090+906284075+911174123+919086885+919048014+912623038
708+908634911+905035367+900461440+897503617+894514494+891869803+890814878
694+889325629+888612082+892201256+896491317+892890373+885573273+885925784
681+892010718+896296453+898403122+898214938+892444788+881709775+874123249
667+878920160+887308090+888646881+888116047+891053512+891235970+883739719
654+878513255+887211644+902711759+901706266+885910515+876786008+876682183
640+875612244+871409722+873862858+892845013+918194570+921751808+898896802
627+879216051+870299640+856487074+844523457+844226167+843639412+848386128
613+862156133+868783353+870347863+874776358+880985540+890399257+886510121
600+869131983
##END=
