##TITLE=Sample description
##JCAMP-DX=4.24
##DATA TYPE=INFRARED SPECTRUM
##DATE=25/8/2023
##SAMPLING PROCEDURE=Instrument type and / or accessory
##ORIGIN=Default
##XUNITS=1/CM
##YUNITS=ABSORBANCE
##RESOLUTION=4
##FIRSTX=4397.6552
##LASTX=599.8556
##DELTAX=-1.9287962
##MAXY=1.9253718
##MINY=0.62149143
##XFACTOR=1
##YFACTOR=1.7931422e-009
##NPOINTS=1970
##FIRSTY=0.73615295
##XYDATA=(X++(Y..Y))
4398+410537965+410244353+409939207+409518351+409474374+409985079+409835664
4384+408547501+407698044+408342740+409434021+409814622+409384592+408478860
4371+408010570+408566348+409250135+409371429+409448547+409994386+411225641
4357+412455933+412274507+410814259+409799997+410288995+411537203+412282617
4344+412168404+411526699+410754227+410123625+410096467+410533245+410457025
4330+409679766+408768150+408405764+409117340+410149851+410320308+409928537
4317+409620632+409428769+409818445+410783744+411431931+411278660+410337626
4303+409590882+410114251+411127350+411500605+411075295+409897989+408798266
4290+408926574+410052324+410964372+410999208+410664611+410574995+410921293
4276+411819048+412571310+412474747+411835269+411000505+410222647+409588854
4263+409014694+409142104+410637720+412517726+413440544+413291162+411752401
4249+409738103+409766790+411304886+411754694+411150917+411139782+411906968
4236+412327459+411952009+411392774+411258682+411451243+411602454+411578886
4222+411250937+410963940+411081478+411194861+411337262+411569047+410894933
4209+409439140+408943460+409962475+411208157+411496384+411193564+410882568
4195+410108267+409241260+409222246+409637219+410032612+410708289+411609401
4182+412374826+412739240+412510380+411944796+411605645+411274205+410295012
4168+409246312+409168563+410016823+411434956+412671263+412664848+411919101
4155+411687516+412109103+412215007+411330082+410551527+410993225+411789431
4141+411791724+411420596+411473913+411620204+411487010+411288399+410858469
4128+410169430+409889646+410275832+410837294+411171593+411283978+411280355
4114+411015995+410574430+410646163+411485481+412498380+413054524+413013041
4101+412596140+412303293+412678177+413135731+412701745+411911389+411426646
4087+411071606+411190373+412007188+412800801+413157902+412894073+411631639
4074+410474044+410844076+411603052+411466999+411305751+411412386+411252234
4060+411498910+412389186+412833576+412662289+412314894+411822804+411930336
4047+412707329+412773610+412118709+411780123+411786938+411698419+411359101
4033+411153909+411347467+411579751+411589457+411485415+411480163+411683760
4020+412003764+411984418+411550699+411700945+412549670+412926283+412828623
4006+412687784+411864953+410539361+409886621+410121098+410977835+412294783
3993+413275739+413492832+413565628+413820182+414034084+413907870+413093748
3979+412217799+412209455+412285676+411723083+411377383+411636758+412079652
3966+412345974+412168204+411680602+411498644+411811070+412071408+412270983
3952+412830717+413282852+412979667+412051198+410976871+410460050+410990399
3939+411958192+412183761+411324465+410539262+410955564+411931068+412361464
3925+412234918+412366383+412678676+412146000+411317950+411801563+413009750
3912+413945066+414536545+413922064+411137554+408009838+407597126+408873057
3898+410503329+412253100+412807914+411768124+411065855+411100126+410178238
3885+408757547+408539124+409633629+411800699+413071942+411840189+409262899
3871+407769478+408707320+410208088+409955229+410042651+412193999+413571511
3858+412329785+408226998+403006271+404622083+410436682+414184097+414431106
3844+412363923+410195291+408043444+406081434+406812389+409267553+411282349
3831+412592085+413061472+412745655+411808145+409257581+406675671+407970083
3817+410225074+412125357+414551237+416029734+415533456+413727109+412712249
3804+411957726+410809805+411449050+412444132+413170334+414840361+416266937
3790+416364065+415940450+416178783+416725753+416261618+414855320+414633573
3777+416174296+417178885+416545856+415066296+414549442+414901191+415027205
3763+415333881+415472360+415555926+416548715+417041536+415074772+411558942
3750+412660228+417310849+420266946+422774330+426755392+430021787+431212123
3736+429988380+428715143+431549479+436507641+439218490+438302386+435585222
3723+433510360+432307359+431016304+429575702+428644274+428381941+430307188
3709+435416194+441110662+445952616+450558662+457011110+465322888+473674323
3696+481537091+487644038+490318954+490308151+490845714+491636402+490271520
3682+486198383+480130792+472629346+461962656+452618267+449471936+446546089
3669+444405012+445434665+445925126+444506794+442365718+439915506+436563684
3655+433674534+432054400+429040200+424295641+424440369+428394274+431324575
3642+432383346+432097845+431141089+430036579+428940579+427272944+423527623
3628+419678725+419212163+418348812+414378321+408185713+403422606+401137898
3615+398861700+397131939+397234718+397799771+397885631+398075499+397886927
3601+396472684+394485211+393121127+392069403+390482709+388431448+385372307
3588+381517592+379718758+379714171+379311963+377838552+375828941+374064477
3574+372769135+371945240+370967110+368383139+365141841+364435783+364781084
3561+364020578+362816979+362199573+361757144+360969415+359936704+358963261
3547+358298421+357889664+357851272+358232539+358295496+357456576+356226584
3534+355607682+355287046+354254502+352873499+351877319+351113755+350892740
3520+351367778+351597336+351320544+350823401+350013334+349312894+349111624
3507+349201406+349267321+349078317+348549895+347606102+346751593+346793077
3493+347523600+347988134+347723707+347130832+346870494+347002624+347145225
3480+347367736+347701336+347730089+347602047+347973707+348924514+349617542
3466+349196586+348137250+347701070+347990793+348267652+348426607+348545940
3453+348500799+348059999+347139973+346593502+347056706+347842873+348543181
3439+349343309+350171292+350578852+350098330+349521078+350174816+351500906
3426+352132605+352090622+352165513+352593183+353127555+353873833+354927419
3412+355771424+356199327+356682808+357237655+357531300+358061916+359284628
3399+360600281+361953528+363733348+365297672+366538799+367989142+369152487
3385+369962387+371575707+374151334+376307934+377456487+378602714+380553323
3372+383013540+385512781+388499159+392498170+396650453+399801603+402182675
3358+404694281+407625015+411002532+414767166+418528842+422382926+426782483
3345+431371976+435295499+438611687+442131174+445661331+448250088+450539915
3331+453795905+456874691+458464211+459715211+461504039+462949528+463272492
3318+463601006+465299254+467077878+467357097+467245642+468145292+469130901
3304+468636950+467377108+467091374+467192059+466176866+464537951+463071255
3291+461328131+459164684+457430237+456157963+453965298+450775821+448304635
3277+447068261+446059251+444613196+442527598+439945788+438072130+437904100
3264+437974271+436399111+434406519+433710267+433341599+432067164+430722726
3250+430469667+430616423+430060013+429126093+428275007+427341253+426562698
3237+426228832+425896362+425364085+424746912+423936745+423119265+422320733
3223+421346292+420454886+419900537+419507105+419220806+419034992+418955249
3210+419551248+420341238+419940991+418812914+418116097+417840734+417913763
3196+418379426+418524853+418012586+417508031+417381685+417460930+417538778
3183+417515676+417516807+417564806+417452686+417552606+418038081+418213757
3169+418240848+418580331+418759131+418631521+418885943+419709173+420356395
3156+420605099+420963065+421729786+422192359+421289119+419962364+420557499
3142+423265822+425052955+424038693+422278883+422389740+424154768+425147524
3129+424569741+424273602+425790891+427558312+427091984+425613686+426070508
3115+428462051+429365922+427334439+425888950+427789798+430821184+430984128
3102+428583345+427519355+429381578+431382679+430517633+428671465+429259320
3088+432590899+435003615+433129459+429728807+428710489+429981400+430997590
3075+430319321+429485255+430142516+431865528+432224856+430247987+428492266
3061+429057352+431041567+431666585+430479839+429620277+429595779+429513376
3047+428988644+428588696+428932169+429778368+430559715+430908539+430781661
3034+430560646+430722825+430880717+430402156+429947461+430241572+432083286
3020+438904136+451158218+459523514+456735281+448699032+442747516+439661949
3007+438069637+437598389+437843138+437990858+437869697+437886583+438264791
2993+438996710+440392272+441858503+441978634+441496117+441965637+443247850
2980+444585673+445000114+444338498+443929044+444573308+445875166+446484228
2966+445608512+444759620+445433501+447303137+448490548+447268002+445187789
2953+444762346+446157642+448062646+448649337+447892621+447577769+448422107
2939+450005975+450799355+449698269+448315638+448449829+449986264+451202262
2926+450314944+448366396+447483566+447906150+448685337+448285854+446355887
2912+444673361+444913124+447097978+449168319+449382220+448606158+448217147
2899+448652661+449401101+449482839+448884280+448468876+449045994+450440260
2885+451247568+450841504+450228951+450302944+451113842+452097025+452377939
2872+451839146+451209508+450989424+451155426+451470012+451758937+452080006
2858+452438968+452691694+452845132+452891768+452702730+452331203+452130930
2845+452335225+452753854+453186144+453546071+453816846+454122525+454472579
2831+454656996+454667832+454953533+455661884+456432329+457111030+457638720
2818+457923291+458034446+458012275+457987112+458235185+458687021+459221293
2804+459952746+460696266+461288276+461657410+461625533+461635006+462275547
2791+463173967+463501916+463261123+463224060+463665924+464177360+464602271
2777+465074450+465540114+466024060+466346192+466123781+465822623+466056735
2764+466579207+467121357+467636615+467815215+467617003+467491554+467710309
2750+468185712+468712206+469359395+470162083+470569177+470445556+470554019
2737+471304220+472151849+472489006+472574400+472978104+473364722+473180105
2723+473130478+473861333+474592254+474701515+474667876+475017631+475459362
2710+475517034+475595049+476224488+477073446+477661667+477957007+478006136
2696+477963024+478237822+478855261+479330564+479458207+479454085+479604498
2683+479963228+480158182+480154925+480538418+481314846+481733707+481567473
2669+481434212+481654562+481842769+481779213+481840575+482430757+483118134
2656+483223572+483090079+483253821+483654633+484214168+484644497+484658790
2642+484602780+484740329+484984280+485347862+485761007+486107936+486339056
2629+486383764+486550165+487127284+487635462+487732192+487743128+488098001
2615+488897099+489503901+489659267+489956402+490287708+490244130+490147800
2602+490354987+490808884+491346247+491836442+492175959+492409605+492660536
2588+493032163+493456310+493719873+493895913+494104829+494269701+494436069
2575+494643256+494811651+494983936+495211134+495318999+495103302+494734833
2561+494781270+495489355+496389005+496806071+496559761+496267777+496423808
2548+496731048+496840841+496799157+496925172+497260367+497595696+498142998
2534+498721379+498732947+498574956+498876047+499426540+499848160+500009509
2521+500053652+500266889+500607835+500892372+501352152+502037103+502313330
2507+502159361+502390514+503085270+503504065+503374860+503215207+503352456
2494+503692471+504178711+504572310+504823873+505148199+505359474+505405379
2480+505559714+505902854+506439818+506840863+506660102+506268497+506336873
2467+506929349+507572948+507811813+507705244+507550777+507577103+507862471
2453+508173867+508308357+508278142+508169412+508213123+508593060+509088907
2440+509433974+509785458+510217748+510584921+510985268+511396883+511619726
2426+511689032+511596856+511488958+511801251+512392929+512726297+512750495
2413+512842073+513196647+513508109+513629736+513853676+514254355+514613217
2399+514806610+515189538+516687913+520416215+527414701+538832357+555622149
2386+577372430+602079372+627407841+652398855+677634916+703132911+727841515
2372+751467281+775140981+799353771+821285345+835886893+841477252+843322556
2359+844282337+836429441+817573131+796609250+778137464+767432680+771238499
2345+785496342+792234357+784951998+773970322+765673269+762993766+767190358
2332+772980891+772945855+768429624+765656649+766265811+765444310+758665808
2318+747681806+736921710+731984523+735018502+738349981+732678249+717325869
2305+698705033+684656870+676507005+669399889+660882652+651138049+639445562
2291+626498585+614614434+604430061+595176617+587022032+580777237+576305881
2278+572355134+568107485+563893873+560330909+557677266+555459338+553276013
2264+551526076+550379451+549487878+548401219+546759346+545021475+544008974
2251+543445949+542616403+541755180+541308463+541055670+540717849+540433710
2237+540312649+540150137+539940623+540025253+540478718+540951894+541142062
2224+541079703+541069398+541410777+541947508+542278648+542451232+542727592
2210+543108826+543516319+543907923+544115808+544132927+544467192+545217593
2197+545668730+545583469+545460114+545652708+546094173+546511240+546721053
2183+546908163+547408131+548008517+548332810+548498646+548676814+549011711
2170+549454638+549566658+549408634+549449386+549677714+549913155+550146270
2156+550301901+550285447+550242102+550318721+550385334+550485122+550750579
2143+551063105+551397602+551659170+551594185+551336307+551388029+552106884
2129+553248923+554001052+554071754+554058923+554177624+554187330+554224526
2116+554530005+555015347+555421079+555735665+556126837+556634351+557024825
2102+556995673+556868329+557191858+557781109+558106200+558133257+558302317
2089+558907292+559724007+560355307+560739565+561060069+561376849+561559338
2075+561676078+562061267+562683992+563135728+563280190+563578888+564458893
2062+565535481+566355320+566947131+567329594+567759126+568644582+569673503
2048+570317236+570625772+570870820+571188664+571620988+572385117+573435644
2035+574260536+574687608+574807938+574875748+575225304+575603246+575705361
2021+575755952+575858399+575773902+575564488+575494883+575539824+575716729
2008+576029520+576272906+576411917+576588224+576843377+577027462+576962643
1994+576585099+576071669+576116344+577099327+578264933+578788402+578818517
1981+578908000+579208692+579580120+579987979+580422363+580540965+580176850
1967+579981796+580445565+581126726+581711822+582278105+582769929+583183704
1954+583645812+584110644+584501351+584791938+584699264+584185834+584212094
1940+585290144+586347453+586896051+587626740+588688902+589454161+589844668
1927+590084398+590006881+589847594+589930628+590052221+590622226+591747545
1913+592425714+592395532+592318946+592653144+593362493+594096240+594562402
1900+594944733+595228672+595191974+595143709+595039534+594792293+595520987
1886+597207801+598243171+598453848+598624438+598691251+598639595+598729810
1873+598582488+597550376+596164653+596595847+598712658+600411172+600925998
1859+600815508+600960635+601613143+602328873+602664867+602583561+602110086
1846+601069929+600413964+601457179+602896552+603532041+603851347+604267317
1832+603781277+602398013+602155093+602994278+603875546+605053650+606202037
1819+606932261+607424750+607471884+606649718+605785868+606078250+607053189
1805+607852420+607831744+606727567+605970618+606474807+606711213+605572931
1792+605045074+607358734+610110369+611346644+611282556+610706102+610303628
1778+610363328+610134635+608581979+606491560+607091748+609665082+611825969
1765+613158574+613742607+614315737+614817267+614684837+614669081+614075077
1751+611586240+609613692+610863595+612806626+613476884+613321119+613203316
1738+613099672+611578329+609367315+610836670+614065902+616678460+618556140
1724+619394860+619180194+617245872+612640025+609282086+611935197+615983870
1711+618423577+618817276+616977490+614568230+613403954+611735356+610051135
1697+611160564+613860344+616339608+617359953+617087449+615858952+612344718
1684+608712547+611425490+615532266+617033998+615642225+613310615+611783089
1670+610856548+612337073+615152994+615955948+615092829+615504012+616659646
1657+615733636+610468301+604131497+606244119+608227836+607781551+610312337
1643+614205379+615750323+615016111+612614164+611392382+615198799+619415668
1630+621394997+622264099+623402846+625375062+629465218+633369894+634184082
1616+634497805+637986710+641736752+643807824+645184572+647168953+649271803
1603+651101684+653126286+655141515+656506629+657551638+659076505+660863306
1589+662730615+664838717+666410586+666948149+667407862+667858070+666789991
1576+665841511+668182096+670211884+670384601+671510983+673875301+675699664
1562+675913864+671903485+667022408+672692743+680194156+685733258+689176890
1549+691642991+692871155+690556896+684456231+680041915+688309118+699561836
1535+704312876+706380093+711160784+716249879+718822083+719911501+720059088
1522+720698965+725131962+731129981+737623613+744502102+749194906+750074910
1508+747362433+749432175+761044486+770253455+774995321+776921000+779089799
1495+783295699+787272306+789524206+792629850+799701000+807085606+812314310
1481+816812924+821004065+823106051+823080855+824223724+830123085+838283388
1468+844600447+848387518+852091090+856098611+857617960+856837344+860609258
1454+869390955+876717656+881521616+884189153+887119222+891940533+897381044
1441+902280271+904381592+903239919+904897016+909025133+910639284+911683695
1427+913956669+913028001+908990563+905633622+901985362+900802206+904121652
1414+905469016+902609948+899562873+898760917+897694634+894427574+890525226
1400+886736094+882561374+878163744+874957714+874067670+872559690+867944003
1387+862559335+860822195+863768419+868663457+870552040+867896403+863915275
1373+863473843+866851394+868971595+868473056+866986881+864365216+862991725
1360+865336964+867599102+866851460+864910158+864710317+866168571+867077893
1346+866811306+865754064+863896527+862864548+864406035+867508355+871141590
1333+874023461+874075648+873100044+874243977+875817575+875796833+875863247
1319+877012232+878497876+880263868+882335273+884081454+886432077+891075021
1306+896695496+901943746+907478926+911930671+914336939+916199062+917755508
1292+919009133+921001360+923538262+926590123+930592127+933564544+934392162
1279+934546929+935292842+937528719+939759212+940155637+940313595+941213942
1265+941945695+941936521+941388122+941382537+942232426+942778698+942982129
1252+944309149+946419046+947634379+948194412+949565310+951886350+954024767
1238+955723813+957418804+958630481+958666713+957524043+955642374+954207589
1225+954036667+953403306+951493781+951513859+953993787+954490663+952763562
1211+953106270+956030954+958781924+959018462+956156735+952393730+949985734
1198+949034794+948866665+949509001+951757244+954998709+956562068+956022311
1184+955470721+954621763+952942728+952489795+953946852+955468129+955169365
1171+953722878+953964336+956454835+959257926+960761785+960730805+960209264
1157+960092790+961526246+964798956+967384722+967609227+966885518+965992218
1144+964357923+964019005+966576649+968984712+969554584+970598198+973838731
1130+977536386+978648275+977801578+977476421+978356824+979336749+978992579
1117+978651001+980685376+984374322+986626421+985735314+983848991+984176741
1103+985765430+986284843+987658201+991732203+996635019+1000794914+1004470098
1090+1008183243+1012170819+1013856902+1010272597+1005420638+1004747987
1078+1008370186+1013267617+1017032551+1020463352+1022545526+1022455778
1067+1024082892+1026330670+1027181290+1030140145+1033937986+1035568491
1055+1036180445+1035981801+1036013911+1036963920+1036365661+1034379085
1043+1033558115+1035738814+1041389804+1046608869+1048277401+1049091257
1032+1050474853+1050997590+1050262181+1049089994+1049182269+1050249616
1020+1049874200+1047369541+1043892801+1040536525+1038393587+1038715021
1009+1040919453+1043386418+1045260109+1044943063+1042806773+1040700532
997+1038287816+1037614500+1040741352+1044573231+1048073637+1051810715
986+1052796823+1051504439+1051259790+1051625633+1051183071+1049592122
974+1047191439+1045764897+1046468528+1048475646+1050432837+1051502112
962+1052517006+1053733535+1053982971+1055404128+1059842976+1063810010
951+1063858674+1060906666+1057859525+1055345758+1052973595+1052634544
939+1055291177+1059187809+1061712013+1060286069+1056198240+1053802808
928+1054079434+1056516948+1060258945+1063146799+1065716543+1066516438
916+1063997752+1064394841+1069688497+1073213169+1072886948+1071906292
905+1071064248+1069667356+1067798717+1066130053+1066366790+1069805835
893+1073741823+1072667961+1067078798+1063670667+1065560380+1069224196
881+1068549350+1062021481+1053191053+1045712709+1043669958+1047585270
870+1051161132+1049599369+1044885158+1041667560+1040827045+1039561586
858+1039414132+1039211897+1032926217+1023925399+1017093979+1013962939
847+1016369007+1019020057+1017236114+1013818875+1009453289+1002479866+995147514
833+991492806+990008292+986496252+981813819+980368197+983143632+985658263
820+984362688+979454220+972980865+968416036+966679694+964649574+961996863
806+960740245+959449722+956617180+951236834+944974222+945295057+952953497
793+957825533+954362422+947947104+942369642+937325953+936528252+940738473
779+941228568+933411239+924265162+919478088+916758896+914429480+915135039
766+918007203+918497498+914809084+908447217+904115669+905103040+906641137
752+903323153+897976512+895382702+895430236+895245154+893309237+890212766
739+889217218+892012930+892881300+888238889+885086708+888234169+892037993
725+890782772+887920978+888356493+890568637+891073492+889079271+885924830
712+884441048+885844920+887883616+887595489+884363731+881214741+881063431
698+881830552+881091885+881698720+885455144+887802443+885432807+880963777
685+876640273+873996869+873280008+872527513+872602304+873632023+876889575
671+882716074+877903073+859015916+851054058+852912259+856009261+861155729
658+866610135+868700553+866039731+860650210+859128600+860251126+854626397
644+843469013+838575371+844027982+852321246+859506543+862127477+856149934
631+849790659+847783940+846590945+839513679+831077548+833281449+833313293
617+818280086+801680063+797445111+808034285+813793638+806341355+807296616
604+813463628+802556411+785794906
##END=
