##TITLE=Sample description
##JCAMP-DX=4.24
##DATA TYPE=INFRARED SPECTRUM
##DATE=25/8/2023
##SAMPLING PROCEDURE=Instrument type and / or accessory
##ORIGIN=Default
##XUNITS=1/CM
##YUNITS=ABSORBANCE
##RESOLUTION=4
##FIRSTX=4397.6552
##LASTX=599.8556
##DELTAX=-1.9287962
##MAXY=2.0886919
##MINY=1.311294
##XFACTOR=1
##YFACTOR=1.945246e-009
##NPOINTS=1970
##FIRSTY=1.4008471
##XYDATA=(X++(Y..Y))
4398+720138791+716845844+712819163+710936078+710825647+712888473+717509654
4384+720579840+719602631+718599132+719397580+721434913+724655363+726555913
4371+723334911+716532507+713357344+715887326+719226051+720325089+720348805
4357+721524569+725184781+728168007+725099047+719426996+717166963+717075836
4344+717888502+719493426+720427124+721078004+721853349+722282325+723345146
4330+725579133+725858029+721920943+717033490+714200712+713233493+713586786
4317+715275667+718297745+720061391+718078845+715660704+715830088+717024175
4303+718200797+719431163+720868173+721983819+721579049+720572792+720293896
4290+720962793+723201132+727063454+727396401+720666187+716674621+720986142
4276+724473354+723424935+724658120+730144547+733501289+730657297+726316176
4263+725040093+725823527+726940950+727541517+725766657+722730912+721451398
4249+721397776+721311858+721266938+721209148+720670538+719960214+720503298
4236+722421743+724667190+726334071+726701397+724416545+719627879+716507197
4222+717346092+719771158+721083826+720442077+720215700+723675396+729361849
4209+732979041+733084202+730525601+726819979+723399687+721284281+721905255
4195+724494006+725528208+724742077+724648254+724959139+725798769+727777761
4182+727571975+725423721+726503578+729488826+729581608+727972761+725966377
4168+724286688+726544453+729973570+729183579+726652310+725119638+724178586
4155+723556447+722761370+721961144+721548714+721389196+722148852+724413604
4141+726699804+727889908+729327041+731372033+732467395+733112269+734109027
4128+732429154+727279780+722866714+721358003+722758060+727101694+731549936
4114+732119127+729684746+728031286+727678729+727940343+729915658+732949748
4101+734711433+734223747+732452564+731168147+729481166+727021904+725796931
4087+725167009+726175043+729996796+731066112+728889913+729535462+731352546
4074+730876627+730618751+732151913+734658117+736603710+736523185+734764013
4060+731180036+726300794+723919668+725702740+727698584+726690428+725056149
4047+725941496+728389911+729076151+728546793+729266003+730412658+731325336
4033+731741689+730942505+729907936+729327102+729862771+731331771+731665576
4020+732067772+734135011+734506566+733200209+734128392+734754269+732049755
4006+729452486+728231128+726450998+725528882+728340946+733381666+735957671
3993+735400982+734939219+735160755+733757879+730111149+727577735+728559724
3979+729931898+729885752+731157790+733379767+733172387+730642896+728638594
3966+727942243+727126145+727059103+729846102+733182499+733955024+733220494
3952+733426709+736069450+739221264+739247860+736594333+733960540+734039962
3939+736432487+737922200+735879842+729905424+725461839+727994578+733601425
3925+735843073+733827925+731842314+732266450+733175206+732629977+732106564
3912+732803957+734337733+735216890+734620428+733820755+734095361+734541313
3898+734787668+736024836+737772855+738836410+739556601+740116354+739627137
3885+737682525+735822359+734157930+733362914+734904166+736464415+735483161
3871+731756458+729904382+735379043+741142589+738452599+734255369+736280323
3858+741518801+744042103+736560077+728912772+731785689+735533536+735239993
3844+733262288+733367449+734630050+734835039+735568160+736883157+736612473
3831+735826404+736535380+737344246+737265621+735378491+730853523+730625859
3817+734428063+738797251+744932536+749842112+750385870+745723323+740412225
3804+739253437+739116042+739103847+739522834+738498499+738321577+741181074
3790+745684777+748482501+747670632+744943996+743195242+742363701+741441401
3777+742153748+744748137+746015150+743826879+742014392+743203515+744514038
3763+744658420+741289176+735643721+736551497+742510656+745298453+741680709
3750+737184483+738748102+741747384+740301365+739623337+742125374+742659818
3736+738506466+735919186+739683026+745126065+749685842+751902486+748792467
3723+744186607+743519732+744529114+745772288+749572163+753777176+751343285
3709+746313350+745346130+746414956+746822116+746370220+746757709+747521961
3696+748858468+750151404+747415391+740939928+740120092+745566012+749008610
3682+747715797+746138144+746682454+742744326+736719717+738578779+740986502
3669+740480739+742652770+745638999+745369418+742479525+741338815+741800394
3655+739791803+736174733+730651966+723121833+722359602+727261947+731670050
3642+733140459+731013715+727766362+726849272+728453215+729516097+726091822
3628+720966164+722432345+725752072+726060200+721614654+714152483+709980869
3615+708949487+709175068+709497413+706766854+703004239+701433327+699723794
3601+698160970+699062618+699702222+698806948+700248126+703607870+704467110
3588+701767867+699310750+697751911+695118239+692774372+692826585+694392840
3574+695013324+693740244+691930269+689444533+685468472+683074476+682535988
3561+682185759+681555470+680969426+681192678+681628886+682450682+684413189
3547+684783519+682131953+681200767+683060565+682912690+680527887+679781835
3534+679989828+679724659+680685566+682165719+681915687+680591927+679406726
3520+678630952+677792364+677484114+678668641+679329387+678570834+679040625
3507+680919849+681091746+678707555+677150676+678061026+679348691+680089779
3493+680631454+679300401+676379867+674968901+675250862+676364117+678409784
3480+680193714+680675148+680532299+680913230+680750097+678180159+674910438
3466+674101878+676309331+679809473+681729757+680589598+678083762+676216488
3453+676105383+678151847+681011772+681905943+679641437+677298918+677300022
3439+678057410+679285632+682741467+686707356+687644425+685585766+682645315
3426+679730480+678513351+681134766+684424955+683461474+680898400+681615710
3412+684930903+687568251+689369708+691255611+692700527+693678716+693069018
3399+690750277+690277851+693110751+696655937+698602449+699500113+699463160
3385+698292911+699917078+705311888+709609866+712072437+714166639+714431624
3372+714001606+714800606+715959578+718681128+723982727+727677564+728087666
3358+729185969+731839128+733801451+735335900+738878450+745570240+752316204
3345+755865740+757112530+758191161+762165200+768867408+772046738+770730331
3331+770308770+771616658+771757424+770493965+771460878+777261133+783650310
3318+783767114+779363547+775941417+773517637+772533565+774880496+779657151
3304+785574454+789648016+788415689+784785137+782840157+780597345+776061530
3291+772045328+772022654+775170423+776108227+772765213+769449775+770245404
3277+773632052+773306397+768315009+764737038+765528193+767854901+767367400
3264+763522237+759472698+757554805+757507556+758762803+760924110+760815334
3250+757539239+755975926+759058674+764158655+765897358+763134626+760525284
3237+759974356+759760725+759007442+758163890+757951179+756642739+753564342
3223+752341207+754053069+755755125+755590644+754244392+753462245+753505021
3210+753106011+753206330+755489344+758513445+759351972+757537217+756337185
3196+756607931+755021208+753003486+754714612+758402708+759391621+757965642
3183+757553579+757698389+757012762+757159901+758661810+760348484+761851557
3169+762448999+761024123+758929859+759210226+761657905+763189474+762223419
3156+758822798+755092173+754973162+759843579+765402503+765578935+762079650
3142+760959408+763117345+766549832+768627733+768022570+766590278+765893191
3129+767207024+770240624+771512356+770648397+770539804+770925025+770993968
3115+771422945+771714710+772714287+774429703+772980620+768177737+765432041
3102+767799992+772608942+774892814+773878284+773971127+775497426+774332203
3088+771659311+770713663+771998141+774769882+775932715+774348259+773500724
3075+774917082+775805554+773591421+769733390+767564423+768081217+770600474
3061+773742789+775140579+775356047+776415681+777484936+777393564+776073848
3047+774517582+773924859+774078678+774242731+774692788+776041736+776694025
3034+775358928+773642960+772934842+773115012+774368114+777031814+778670505
3020+777675647+777454785+779680377+781470190+781424780+780793020+779566392
3007+778104072+778683067+781756133+785271352+786705420+785870571+785053186
2993+784562866+784141305+785078435+786965625+788876900+790828008+791737500
2980+791267771+790624857+790375806+790912884+792737690+795228818+797522127
2966+800082014+802353936+801873972+798775229+795254679+792472214+792249392
2953+795014146+797574340+798705857+799782098+799755318+798153090+797770382
2939+799475135+800387752+799114427+797581877+797641873+799264507+800913739
2926+801590419+800835971+799278909+799738527+800929672+798920652+796001895
2912+795067768+794968429+795749718+797888963+799290675+798173681+796026347
2899+794844455+794840043+796282875+798255187+798496455+797143953+795936691
2885+795940735+796493196+795987739+795705656+798180484+801585271+802136138
2872+801014487+801701769+803856273+804869148+803786350+801902530+800885426
2858+801220886+802384025+803595884+803194607+800098561+796573169+795031244
2845+796127585+799329283+802430968+804069352+803755280+801808645+800714326
2831+801529381+802652197+803283651+803642888+803280709+802911483+803515850
2818+804247867+805128495+806559868+807504964+807131448+805935032+805594057
2804+806735871+807837482+808043391+808421258+809454173+810644276+811735838
2791+812293753+811429059+808674477+806278520+806540747+807715714+808619139
2777+810450685+812500336+813819684+815212632+816403471+816780113+816938773
2764+816516353+814848247+813055799+813031531+814812581+816613915+817101968
2750+815319080+812520436+811899891+813406089+814621809+815370312+817132854
2737+819705182+821727745+822204032+820457974+817935592+816934483+817597375
2723+818995164+820482916+821309125+821591821+822645020+824178550+824981104
2710+825259632+824797870+823562233+823034837+823316613+823064681+822095378
2696+821593047+823575286+827317372+828608714+827036944+825989628+826810505
2683+828165152+828042587+827254741+827658837+827923148+826774226+825567086
2669+824998447+824480795+824431585+825924362+828922235+831513498+831248452
2656+828692977+827295739+827849487+828252296+828620358+829509994+829506378
2642+828367690+827498645+827682124+827808918+826641672+825704787+827419346
2629+830513309+831754216+832237917+834116835+834897450+833004989+831802445
2615+832957250+834245467+834857187+835194118+834908174+834630871+835433364
2602+837187082+838284098+837812039+836947223+836645407+836669001+836367982
2588+835876681+836641178+838841154+839716696+837953295+836731325+838199283
2575+840428245+841142614+840470346+839905139+839446502+838766635+839084752
2561+840226320+840976477+841486960+841847790+841569691+840756167+840740173
2548+842356189+843393393+842117494+840845211+841422613+842824018+843653414
2534+843156475+841967107+841565156+842331431+842952711+841953625+840154803
2521+839550866+841008038+843805149+845734563+845465595+844164632+843298038
2507+843227563+844156849+845683086+846786537+847402915+847631192+847613910
2494+847617587+847437233+847593442+847892377+847872460+848901208+850038363
2480+848561090+846451077+846800632+848150560+848892812+849307571+849089467
2467+849119128+849879458+849957287+849773256+849865976+849310941+848633158
2453+848416280+848419222+848849301+849300830+849360335+849588367+850292011
2440+850889698+850374865+849458509+849521446+848918734+847295242+848031182
2426+851188940+853524534+853775853+852956201+853138148+854786093+855481096
2413+853635332+851236066+850532973+851075384+851984017+853075211+854225236
2399+854934947+854182032+852835781+852975444+853746498+853082565+852658981
2386+854200968+854840940+853282039+852259420+851679321+848821908+844731432
2372+842049899+839860403+837300454+834947579+831993707+829325534+829584329
2359+831096227+830513125+830425491+833467242+837529405+840219456+840175456
2345+838248860+837696829+838653140+839074947+839293112+840131332+841381799
2332+842552905+843945241+845529819+846086998+846137434+846860014+847451267
2318+847385878+847779005+850397233+854797981+858063167+859435219+859839131
2305+859476094+858979523+858771408+858743953+858877426+858747446+858570769
2291+858864434+859127458+859706393+861161604+862359797+862716522+863025385
2278+863321318+862758133+862108968+862833142+863818440+863898107+864250542
2264+865425509+866110401+865567868+865210469+865455538+864666711+863735158
2251+864368572+864956148+864491137+864728606+866109359+866888197+866215868
2237+864975145+864815443+866173215+866965719+866452908+866307117+867072718
2224+868416273+869345559+868871233+868049008+867684071+867568247+868347637
2210+869452680+869340289+868927368+869188186+869227100+869431109+870896616
2197+872985119+873983348+872931252+871951224+873323643+875027844+874629509
2183+872770263+871337787+870890733+870502325+870449622+870262159+869259763
2170+870027203+873194521+875603408+875965832+876133378+877048814+876786832
2156+874575948+872919240+872969431+872770447+872150085+872892583+873808815
2143+873121227+872513490+873166699+873747165+874237363+874806431+874099110
2129+872796798+872666205+873597759+875025209+876358346+876331137+875603592
2116+876140181+876995928+876806259+876329666+876357917+877244734+877882929
2102+876549608+874077293+873261135+875296813+877634245+877701349+876843457
2089+876870789+877912344+879577203+879968613+878023082+876261887+876571547
2075+877523446+878440169+880331221+881980759+881736426+880590445+880188801
2062+880929398+881749969+881318296+879281576+877366747+877657839+879249158
2048+880392197+881053924+881134020+879965610+878532890+878198410+878110286
2035+878078726+878647181+879019104+879199458+879565130+879691801+880046748
2021+881413468+882741212+882435167+881410894+882047127+884089485+884297600
2008+882136232+881345628+883097507+884523303+884003567+882956496+882964463
1994+883679261+884054738+883972558+883813530+884000564+884731602+885339155
1981+885155553+884963065+886111987+887794127+888004203+886689328+884923783
1967+883970413+884424761+884546835+883612340+883423284+884345829+884801402
1954+884157570+883771062+885497386+888271701+888986437+887595204+887047953
1940+888581360+890294877+890764422+889872090+888034415+886838306+887653361
1927+889568681+889824596+887871649+886644286+887070321+888582218+890999685
1913+892989585+893707754+893553996+893381609+893234715+892790111+892439147
1900+892215528+892145114+892686544+893481867+893371068+892467521+892826513
1886+893926348+893434986+892655229+893159767+893558286+892710505+891202346
1873+890580637+891097002+891313574+891730539+892910041+893376277+893507299
1859+894394974+895350734+895728785+896219534+896834993+896016077+893681708
1846+891839622+892301752+894500441+895408339+894465020+893831912+894235640
1832+894428373+894648622+896278120+898168865+898849161+899022835+899016829
1819+898502303+898399838+899469890+900660852+900756391+899753872+898660901
1805+898616655+899162130+898855902+897930661+897232225+897088702+897638711
1792+898329486+899461188+900926449+901538354+901183100+899874108+898119901
1778+898314166+899795238+899055437+896207400+895724250+897339102+899184559
1765+901006668+901706451+902023097+902648974+902183964+902183290+902757934
1751+900592031+896611619+895179511+895931875+897658935+899469338+900321102
1738+900935826+899996244+894993396+893023720+896810970+900832320+902995281
1724+904305682+906211074+907403935+904802437+899497712+899170771+902680167
1711+904849502+904144877+901545892+899724089+900412474+898550838+891282871
1697+888158818+891628136+896881997+899931040+899764045+898056167+894919490
1684+890503788+891445699+895179940+897255145+895534826+891784406+890973334
1670+892309657+894738952+897978216+898404128+895014294+893446384+894261624
1657+893584515+890834958+887477971+887230636+886639445+883624291+883665595
1643+886900630+888557093+887676220+882913047+874940701+874119701+879395562
1630+883768488+884292146+882834545+882905510+885615723+888708828+888915104
1616+888393898+893352132+899334762+902080580+903987994+907127245+909809513
1603+911707122+913729256+915116506+915060861+914617299+915147024+917051496
1589+920161209+923843851+926418323+925918566+923631507+921829990+918534162
1576+914284475+915970843+920154100+922264236+923703024+925821739+927965642
1562+929440770+925758128+915838718+916595862+922310137+927188459+930516092
1549+933320435+936824254+937994564+932153679+919801666+915842702+923339497
1535+928718006+928406201+927992606+929856448+929804358+928540164+928860120
1522+929550711+931990178+936293304+939636747+941394203+942185665+942016710
1508+939055423+934901336+939480723+945681825+946203031+941530986+940199013
1495+944932402+948111180+945299055+939199927+938334313+942975411+948314209
1481+949681112+947053263+944622007+942257366+936978379+934127401+937483040
1468+939523927+937284485+936194210+938434632+937910484+931243330+926736808
1454+930531841+934678145+936626312+936224422+934595843+934955938+937932546
1441+940732292+940406699+936432231+934014764+935616930+938851536+943063351
1427+945727970+945078071+944688253+947131949+946584637+941986191+942692716
1414+946204808+946177047+942851743+939733941+937377818+936185569+936067478
1400+932496983+925065454+920743392+921714840+924194141+925853484+925577284
1387+921829315+917580854+916437508+918242090+921240943+922213801+921025168
1373+922203567+925360099+925524459+923019113+920406523+917472874+916314576
1360+918676766+920641050+920737876+922016717+924472056+924884609+923502202
1346+923184207+924943931+925460112+921779861+918057876+917541265+918093726
1333+920420434+924936516+927247780+924610126+920564876+919821092+922360021
1319+925136051+928513690+932518861+933739851+933797824+936494861+940082699
1306+942290764+945116188+950680750+956797712+959939046+960427038+961193006
1292+962550288+963378029+964803335+967124343+969765491+972786896+974479086
1279+974986994+976404578+976840786+974591355+973707112+976855739+980258565
1265+981380523+981241657+979822970+978760089+979348399+979153154+978461398
1252+980431994+984396596+987955264+991395166+994447396+996098098+997751619
1238+999259226+997926457+994706559+993541152+995628797+998387791+999186484
1225+998695919+998058276+997250145+997487247+998892268+999960726+1000697462
1211+1001008716+1000498479+1000507242+1001722349+1001826590+999587700+999188445
1198+1003231489+1007392439+1009378233+1010957603+1011236560+1010634093
1186+1011564298+1012000506+1009435471+1006503232+1006028477+1007273797
1175+1009215529+1012280689+1015143924+1014819863+1012683498+1012641703
1163+1014558371+1015812760+1015305403+1014878326+1015607648+1016487172
1151+1018738625+1022015639+1023837319+1024928697+1025983979+1026688910
1140+1026650057+1025094833+1023931755+1023960006+1023141641+1023008536
1128+1024585638+1023645137+1021029054+1023364464+1029543137+1033320460
1117+1034797242+1034374394+1029906664+1026468478+1030326938+1035778496
1105+1033434935+1027624508+1027644977+1032510429+1036306750+1036290449
1094+1032708862+1029560173+1029469353+1030286982+1033043586+1038519044
1082+1042933581+1044861524+1044215363+1044235096+1049831402+1057229900
1070+1059741129+1057608871+1054520116+1052271298+1052234652+1056392906
1059+1062159822+1062395637+1058581912+1061403598+1066996227+1062185928
1047+1054903499+1056615483+1062161906+1065499957+1066543841+1064929663
1036+1063031503+1061860029+1058373920+1056313116+1060276002+1065306427
1024+1065457427+1061464635+1057924842+1057716605+1059233589+1059189465
1013+1057805464+1056673702+1054695139+1053442159+1055269600+1057053162
1001+1056802640+1057521972+1059116172+1056722605+1051450973+1050245548
989+1053604680+1055393268+1053539721+1052864389+1055493158+1056619160
978+1052602591+1046867909+1044627180+1045701215+1046315510+1045970490
966+1047150053+1050461262+1053474149+1053873832+1053432599+1054437017
955+1054882050+1053713885+1053587766+1055481024+1057575778+1059200496
943+1061467331+1063354461+1063288643+1061259952+1057907193+1057715870
932+1063522987+1069766068+1070676846+1066460006+1059770422+1055017362
920+1057437157+1064901473+1068290756+1067441750+1069726234+1073741823
908+1072088792+1067238905+1068168069+1072944049+1073671226+1069489194
897+1062754874+1058245227+1059560959+1063335708+1064902208+1062768356
885+1060560352+1062293418+1064770451+1064996215+1066107633+1069583446
874+1072135367+1070973821+1067999297+1065672160+1061791515+1055790132
862+1050758727+1047454994+1047078107+1049508199+1051486026+1052407835
851+1051200328+1048153491+1047597047+1046781011+1041015933+1036803137
839+1037739287+1038309948+1038070334+1034909389+1025555370+1017844148
827+1015875207+1017364675+1023126443+1030306470+1030811069+1023341545
816+1017008379+1015943904+1014312506+1009775404+1008912426+1012957798
804+1010789505+1000524033+992668981+989386391+988381176+989966735+991856316
791+989122815+982949903+979222342+977789192+975324170+970621054+965018742
777+961599431+959135450+955661537+954693152+958319905+961923247+960002719
764+954608705+950772613+947622882+942795609+938723456+938068225+938354291
750+935547375+930592021+927860298+929017799+931195713+929705449+925701626
737+924543205+924151979+920985702+917469258+914338403+914424321+921564943
723+928831378+928794915+928329414+931277893+927220816+916507554+913446254
710+918659056+921635479+918711084+914350844+914732939+917304593+914503804
696+910560896+909945315+906748826+901366641+900480865+902326384+903628267
683+906719717+907248768+900685977+897686512+905046402+913935043+917499593
669+915893566+909727824+907520678+910538467+911776861+909653550+908644168
656+905071528+893451654+884101741+886951617+897911295+908080615+908216968
642+900767054+896814341+899710852+912567404+929778865+929473924+913977021
629+914695557+949278977+985064881+940324458+851263888+809728166+827438343
615+851365065+842401109+830786444+839427382+868160419+902309347+927164007
602+934875965+927460246
##END=
