##TITLE=Sample description
##JCAMP-DX=4.24
##DATA TYPE=INFRARED SPECTRUM
##DATE=25/8/2023
##SAMPLING PROCEDURE=Instrument type and / or accessory
##ORIGIN=Default
##XUNITS=1/CM
##YUNITS=ABSORBANCE
##RESOLUTION=4
##FIRSTX=4397.6552
##LASTX=599.8556
##DELTAX=-1.9287962
##MAXY=1.8852724
##MINY=0.30312714
##XFACTOR=1
##YFACTOR=1.7557967e-009
##NPOINTS=1970
##FIRSTY=0.30312714
##XYDATA=(X++(Y..Y))
4398+172643641+172683698+172975035+173081086+173023206+173312946+173979231
4384+174445583+174464407+174102341+173643594+173616690+173920417+173930347
4371+173593436+173541548+173961324+174413723+174869959+175314940+175495455
4357+175424964+175111664+174739601+174650438+174733660+174606391+174299151
4344+174210056+174456395+174760886+174914650+174964078+174894367+174749106
4330+174652322+174513121+174533218+174877088+174931590+174479004+174270347
4317+174547323+174833109+175006087+175148004+175370495+175941252+176449325
4303+176179155+175691841+175871168+176291792+176356479+176214240+176117388
4290+176352796+176908107+177093544+176724757+176490232+176487227+176337876
4276+176314928+176625885+176820522+176754783+176884021+177254607+177306377
4263+177033508+176960521+177010899+176975984+177077232+177216535+177136063
4249+177039177+177211935+177636634+177926205+177625635+177034662+176920565
4236+177275417+177502406+177464521+177509178+177776666+178008136+178015588
4222+178014213+178242814+178406390+178193591+177997901+178203673+178435737
4209+178337935+178187446+178273062+178603878+178930350+179030020+179127890
4195+179291329+179288580+179140298+179074813+179239356+179461694+179453682
4182+179269637+179337022+179812302+180287684+180459848+180359347+180057962
4168+179679246+179465971+179555168+179826153+180169106+180546838+180718323
4155+180549842+180425001+180429618+180147447+179779305+179756713+179880553
4141+180111412+180714131+181252247+181152187+180743156+180602053+180819707
4128+181085464+181190123+181491185+182152463+182384612+181799224+181227924
4114+181216178+181534180+181887843+182092597+182138052+182154109+182252370
4101+182326816+182518517+183118197+183405969+182814623+182270005+182457225
4087+182840983+182901104+182876220+183123153+183433449+183545645+183500410
4074+183261081+183034619+183189605+183588147+183796872+183722307+183760956
4060+184042940+184152776+184009637+184005258+184210215+184326230+184262324
4047+184095592+184093233+184496952+184911075+185011203+184990037+184947891
4033+184861054+184672680+184297681+183937822+183885645+184049526+184258268
4020+184510717+184774013+185051057+185301657+185355769+185179904+185085157
4006+185336079+185694886+185943380+186068086+185937541+185722315+185720227
3993+185789802+185947080+186372203+186633190+186352395+185873058+185585168
3979+185531005+185549557+185594605+185864181+186245647+186437060+186546387
3966+186665593+186590688+186368011+186325950+186594643+186936680+186898896
3952+186234411+185237343+184809675+185136197+185226039+185163185+185726745
3939+186385969+186396628+185569773+184399030+184348296+185492050+185942515
3925+185418028+185543565+186147166+185881172+185394757+186145112+187640272
3912+188806890+189033251+187444091+183878244+180623135+180213424+181867661
3898+184203646+185886671+185744109+184628565+185046186+186091696+185691355
3885+184709564+184105810+184067484+185481374+186396849+185299569+183363636
3871+181992554+182437960+183646146+183533611+183785076+185787850+187148019
3858+186019337+181903340+177341512+179968477+185511672+188672560+188832486
3844+186573104+183280533+180436153+180042058+182639811+185206859+186654136
3831+187568542+187970835+188211589+187990762+185554989+182718382+183553266
3817+185309702+187366097+190224650+191557185+190298537+187970258+187024298
3804+186170505+184896783+185907141+188126093+190359778+192490839+193862109
3790+194352546+193867812+192685188+192115518+192248998+192027865+192323173
3777+193648240+194268306+193250428+191513173+190949681+191544591+192387589
3763+192874444+191790981+189850279+189403277+189146211+186377261+182078067
3750+181969249+184634506+186073025+187360835+189110074+189523111+187390776
3736+183749889+183481807+187493365+191302360+192632909+191876969+190956759
3723+191395885+193053398+194864014+195545286+194107242+190563937+188438935
3709+190850028+194039331+195153279+194385186+194005638+195183713+196317317
3696+196362806+194811260+191611365+189482188+191817154+195353518+197095237
3682+196828428+194822258+191235653+187303634+187331623+189048408+189323246
3669+191411280+194956452+196954254+197315471+196847201+195517908+193617824
3655+192722258+191535510+187043037+181846224+184076174+189226768+192015441
3642+192776303+192833131+192339485+191043189+189478980+187410890+183931966
3628+182694483+185566582+187521609+186922167+184463412+182473248+182399107
3615+182805219+183377079+184020789+184139893+184825121+186214212+186560254
3601+185730174+184951031+184205514+183469399+183837355+184417888+183078258
3588+181056303+181853794+183999793+185265231+185387917+184670219+183856518
3574+183428442+182951312+181321788+177953430+175555984+176666147+178366586
3561+178881211+179146815+179441733+178934322+178022462+177607405+177029316
3547+175965677+175655942+176493694+177354260+177586188+177541157+177461669
3534+176931394+175755187+174405050+173687606+173740819+174047092+174476000
3520+175127755+175685629+175656247+175101700+174424586+173948000+173944180
3507+174015877+173594336+173231032+173591994+174161868+174395510+174325341
3493+174143027+174032851+174152074+174437775+174517127+174253033+174152940
3480+174588501+175064732+175097711+174999247+175305537+175960925+176491420
3466+176556395+176048356+175340214+175094826+175354761+175771838+176145819
3453+176262462+175911989+175216951+174847485+175238135+176111583+177116781
3439+177845563+178165754+178326257+178372459+178526377+179146832+179939978
3426+180367121+180473308+180895749+182106804+183830497+185666081+187548513
3412+189285310+190654339+191832397+193053126+194429980+195972429+197568226
3399+199419103+201589595+203660111+205555171+207395338+209116095+210755549
3385+212337444+213961910+216086012+218808776+221355235+223252298+225144557
3372+227640536+230245520+232235428+233839899+235792805+238371683+241202875
3358+243897429+246438965+248874654+251212726+253482158+255811065+258313443
3345+260902030+263359648+265775392+268494185+271177315+273294866+274935558
3331+276142438+277079452+278216553+279485114+280683320+281965240+283070905
3318+283865816+284783905+285790342+286463416+286842574+287652151+289256638
3304+290874263+291763208+292152992+292678904+293386842+293804734+293856300
3291+293861121+293758735+293170632+292229543+291359608+290643421+289843486
3277+288763213+287712135+287151563+287190195+287548306+287763430+287656054
3264+287154347+286293985+285637511+285663209+286188816+286773050+287017505
3250+286866948+286634205+286399561+286216246+286141901+286008114+285908988
3237+285751099+285310021+284727807+283965553+283140259+282638823+282335894
3223+281887874+281575524+281906613+282483090+282596389+282379533+282178225
3210+282038719+282000273+281867369+281590800+281484579+281562064+281812358
3196+282102387+282010305+281700535+281731750+282163628+282413141+282273125
3183+282134722+281837360+281207823+280808603+280988201+281452787+281834695
3169+281925742+281754834+281871087+282649941+283550360+283825826+283566112
3156+283632716+284266310+284793003+284980087+285125347+285385995+285901316
3142+286561049+286861075+286695412+286456389+286393043+286561354+286900319
3129+287167450+287180452+287048635+286949440+286771726+286397253+286224223
3115+286580942+287098978+287372526+287234293+286765548+286396133+286188443
3102+285976577+285962082+286140950+286117493+285823814+285662225+285758873
3088+285899788+286009031+285931427+285680115+285703878+286039957+286298025
3075+286457679+286835581+287406338+287443884+286615059+285616905+284887648
3061+284179167+283301866+282416027+281870204+281666554+281349604+280775708
3047+280459081+280677124+281074495+281350657+281531545+281706493+281688840
3034+281447526+281524060+281965240+282321279+282765718+283409665+283958628
3020+284701107+285927659+287008577+287615046+288491363+289995095+291651182
3007+293326891+295263010+297414729+299498553+301697493+304936511+309879381
2993+316418421+324268440+332894835+340908684+346535423+349081407+349465860
2980+349228297+349215906+348995520+347821247+345935913+343872865+341577854
2966+339188742+337248990+335780360+334335323+332982046+331937418+331012319
2953+330341316+330096827+330167200+330793121+332106374+333474690+334218578
2939+334465172+334526548+334424129+334314479+334128516+333487352+332315795
2926+330909323+329383593+327454060+325066576+322410706+319571315+316847889
2912+314694914+313106009+311631607+310156391+308878817+307778617+306881457
2899+306316946+305907915+305429325+305034517+304929790+305058925+305280432
2885+305481570+305667160+305826441+305659963+304896759+303647904+302290553
2872+301089564+299999820+299081612+298421845+297719135+296775161+295761086
2858+294761778+293634352+292354469+291030896+289471932+287539106+285776627
2845+284786926+284368899+283979081+283469566+282951512+282576852+282374475
2831+282074075+281521548+281010606+280831483+280872933+280872967+280758411
2818+280770565+281100380+281479996+281657083+281703862+281695494+281674973
2804+281820183+282238940+282544534+282339611+281989257+281997439+282243285
2791+282439858+282503831+282390922+282212461+282139220+282116221+282048122
2777+281959010+281893068+281910771+282088808+282320125+282392195+282367040
2764+282435054+282595370+282757113+282933045+283210768+283481057+283583425
2750+283641933+283774396+283956574+284157950+284257042+284158493+283980405
2737+283947748+284051118+284115023+284208345+284413743+284578014+284662628
2723+284841106+285151487+285462173+285744411+285965510+286029060+286109210
2710+286476927+287020322+287480037+287763973+287857566+287860010+287942061
2696+288213538+288605630+288899342+289060219+289199165+289373892+289661223
2683+290089842+290481968+290518800+290178988+289927811+290032946+290215854
2669+290300010+290378870+290446391+290517103+290665555+290803110+290819031
2656+290802702+290841266+290871412+290905834+291057647+291286622+291462163
2642+291663980+291931452+292090054+292108894+292069108+292104244+292324324
2629+292594952+292822569+293082810+293362774+293591613+293840515+294241229
2615+294754649+295169214+295390686+295631780+296011482+296383646+296749327
2602+297157612+297491314+297730609+298004123+298434304+298980008+299435411
2588+299793352+300147864+300388483+300559578+300919182+301400725+301657333
2575+301688768+301692061+301681809+301778933+301967612+302009741+301969207
2561+302029158+302213594+302405431+302424951+302289297+302196451+302245233
2548+302423830+302643673+302699381+302653959+302794434+303073854+303263416
2534+303329138+303472532+303787631+304057682+304262487+304614690+305039372
2521+305309762+305437303+305589353+305896712+306380767+306895273+307296429
2507+307631116+307977175+308297842+308565245+308873657+309316398+309794852
2494+310197468+310560501+310842943+311038785+311198745+311220505+311269525
2480+311638125+312048175+312132399+312113592+312343178+312791113+313193729
2467+313337530+313310406+313338141+313398601+313475797+313759563+314207838
2453+314440785+314340742+314261848+314413457+314604716+314693726+314742373
2440+314799201+314920664+315119460+315301384+315442707+315536062+315641944
2426+315854760+316087129+316343635+316632154+316757454+316762953+316894771
2413+317166655+317455683+317784802+318212505+318567967+318711735+318876583
2399+319256352+319690301+320028756+320279389+320432899+320544925+320700438
2386+320709298+320321993+319503794+318197262+316408678+314422555+312597172
2372+310931070+309026182+306903047+304983494+303518327+302794807+302681083
2359+302857542+303916427+306364065+309750517+313023279+314746039+314279840
2345+312552531+311186592+310740863+311155462+312291137+313538158+314430906
2332+315017550+315451703+315936471+316844155+318178184+319576509+320956401
2318+322418480+323895834+325159388+326053664+326797077+327678078+328643405
2305+329584222+330495403+331263835+331877128+332484174+333041488+333476896
2291+333868649+334260978+334675034+335121849+335549416+335867706+336079674
2278+336323891+336656677+336986305+337242302+337480375+337767773+337991962
2264+338062912+338215573+338650642+339119048+339294352+339300836+339498511
2251+339891859+340240668+340497174+340743293+341021559+341268458+341447361
2237+341695040+342076337+342463167+342765502+343039627+343322952+343598910
2224+343909969+344272697+344655080+344991192+345145687+345162796+345264299
2210+345476198+345721468+346053982+346479716+346818985+346965061+347114327
2197+347464121+347897391+348230245+348517881+348910991+349428179+349911996
2183+350149899+350216810+350374970+350663591+350983137+351244464+351400384
2170+351513429+351687375+351962043+352354610+352826953+353197353+353435154
2156+353698042+354015552+354341922+354646362+354921403+355146067+355333761
2143+355652527+356087291+356386604+356552471+356717761+356856639+357043757
2129+357379021+357678064+357824105+358086857+358634462+359137698+359303972
2116+359401808+359743454+360121967+360298493+360428444+360655144+360922038
2102+361210048+361548469+361857967+362121059+362484431+362839249+363010309
2089+363167520+363373308+363591047+363973294+364442073+364757919+365012762
2075+365411949+365913351+366356330+366648039+366827893+367124932+367668055
2062+368220718+368608363+368852818+368973840+369168291+369562216+369933702
2048+370158161+370362694+370558978+370681256+370894412+371359626+371950038
2035+372446926+372800827+373143152+373520035+373865144+374142698+374379311
2021+374637752+374857187+375064877+375502662+376156183+376876613+377657708
2008+378328066+378683801+378852960+379071140+379438246+379980691+380480702
1994+380514717+380319350+380689919+381584500+382365051+382854436+383310926
1981+383857105+384401892+385001029+385687987+386348671+386721752+386582670
1967+386484426+387156889+388183287+388991370+389635046+390129387+390531256
1954+390967445+391385235+391738797+391877336+391597644+391101300+391265401
1940+392394015+393494180+394106828+394552251+395059696+395559096+395894360
1927+395863060+395324723+395002834+395441943+396007506+396755366+397860556
1913+398547040+398578814+398628547+399282271+400235818+400996239+401574600
1900+401859147+401629527+401447501+401857925+402189522+402268552+403066620
1886+404282682+405089746+405643869+406072318+406463358+407050783+407620725
1873+407359059+405730672+404232610+405450844+408185744+410004338+410706505
1859+411092384+411616939+412278674+412859446+413147998+412967262+412171095
1846+410980188+410964606+413016690+414980714+415939319+416738440+417349356
1832+416686296+415396976+415795823+417269104+418556150+420088058+421567314
1819+422608208+423400641+423847184+423644620+423416460+424187778+425421696
1805+426000736+425604571+424885023+425089318+426054339+426349172+425579314
1792+425848448+428674429+431259113+431986061+431700666+431463000+431841174
1778+432753102+432708155+430785615+428855233+430133996+433205077+435698170
1765+436787472+436655383+436849460+437674992+438370607+438915428+438179959
1751+435460538+433451127+434649231+436815139+438095600+438499030+438896418
1738+439556048+438924424+437588901+439501054+443316294+446733027+448677158
1724+449132731+448924906+447364957+443566622+441766870+445952646+450817504
1711+453334089+453434709+452145694+451468852+451468581+450107122+448530370
1697+450190395+455052504+459631492+461412574+461522462+460662100+457999372
1684+456784566+461153013+465679450+468096468+468803014+469366404+469966627
1670+470294423+473077664+477053170+478977985+479943991+482144560+483757093
1657+482470590+477851374+474673155+478023555+479581569+480338968+485756252
1643+492200342+496350948+498347867+498964521+503134375+513259851+522173644
1630+529038036+535952839+543629761+552936223+564673757+574525685+581016961
1616+588133344+596670152+603459961+608075307+611348171+614089759+616215949
1603+617926624+619540073+620435944+620288748+620043241+620479532+620881062
1589+620546205+619758559+618729614+617561893+616400147+614340833+610116900
1576+606698334+607652934+607832447+605364407+604518168+606327629+608161397
1562+608313481+604436151+600565203+606538985+613790207+619743622+624562380
1549+628832753+631713525+631826162+630054790+631477930+645465392+660376154
1535+669672025+679218563+690351256+698684720+704762314+711125337+717261388
1522+722976017+729383986+735846136+742645315+748428517+750896218+749186154
1508+743380750+743203002+753571201+760555936+762775889+763057177+765319089
1495+769788189+772179984+771471706+772514569+779876934+788092125+792870282
1481+795138508+797289073+799149116+798485920+795992691+798427870+805603254
1468+809920746+809867923+811242044+816393622+819589019+817106449+816169095
1454+822819516+829528327+833983170+836717425+839721426+844372552+849578582
1441+853467522+854583440+854506447+857731242+862270545+864278124+865634931
1427+868904944+870883938+869281352+866203278+862306190+860487495+863129413
1414+864973026+863689205+862184998+861083814+857553425+853796948+852499480
1400+849202921+843678736+840722533+840691777+842773225+843721985+839884781
1387+834675017+834834501+838631716+841337931+841481528+839401914+835836627
1373+833669021+834748479+836538115+837388564+836987442+834391217+831742102
1360+831826155+832354783+831892420+831938725+832413377+831751064+831073203
1346+831899957+832260953+829535388+824992282+824205383+829202840+834629799
1333+836252482+835300463+835526892+838155774+841207302+843058790+843449524
1319+843060419+843880452+846986770+850901578+853330239+854349203+856415442
1306+860740131+865590800+868808058+870890321+872816900+874208470+875892802
1292+878560520+880987824+882478452+883165343+883338542+883521179+883682021
1279+884271755+885831703+886580242+885142029+883571624+883540868+883838179
1265+883495922+882759400+881650951+880280089+879176461+879358894+881097474
1252+882975102+884009749+884267749+883677676+882557006+881754355+881491602
1238+881605801+882353865+883594912+884772546+885412453+885152417+885337769
1225+887671582+890214510+890314179+889424079+889093229+888286707+887824277
1211+889313479+891154851+891982148+892846651+893859776+894099784+894664600
1198+897520251+900743280+900670565+898439477+897452695+898406344+900306242
1184+902207497+903725555+905288355+907517473+910445568+913284992+914677852
1171+914736513+915630415+917610496+919119998+921336828+925429249+929293204
1157+931800148+933773168+935223670+936102703+937194857+938605709+939829239
1144+942673212+948099289+951891547+952162515+952481009+953605821+953895391
1130+954761252+957603868+959936797+960262420+961233790+963419795+964571154
1117+964485606+963549067+962773981+964153058+966414427+967128340+967548201
1103+969937551+973384497+976093020+978761960+981035618+981269447+981387177
1090+984484261+990372904+995580020+997764125+998668007+998546543+997249483
1076+998274014+1002019833+1005880665+1009191753+1012030431+1014465949
1065+1015604747+1016116401+1017392414+1017303337+1016812933+1020150501
1053+1025093235+1026592553+1025774558+1026017349+1026223003+1025005243
1042+1025353611+1028323121+1030583607+1030933605+1030178819+1028782633
1030+1029202493+1032559479+1036034330+1039379977+1043943790+1046237070
1018+1044540992+1042187558+1040422839+1038278114+1035351513+1032805529
1007+1033033588+1035773207+1037543425+1037202526+1035832547+1033662225
995+1032925296+1035522404+1039242626+1040691091+1039324778+1039549102
984+1043776769+1047062126+1044790845+1039891699+1038117543+1039592555
972+1041549688+1043420865+1045252393+1048457430+1052154907+1052545438
961+1050470983+1048340447+1046928441+1047433510+1048568709+1048332436
949+1048050062+1048788688+1049248200+1049392815+1049517877+1048735391
937+1048649165+1050457608+1051933367+1052275692+1052702206+1053849695
926+1054774217+1055218316+1058345342+1064439502+1066995534+1063519733
914+1061014487+1062720816+1062681912+1058929916+1057708829+1062389422
903+1069524815+1073741823+1072174813+1066361126+1061184223+1058441956
891+1056032985+1055848447+1059657475+1063510635+1064172948+1061094399
880+1058184907+1058474953+1055612581+1049285949+1049282079+1054670949
868+1055204669+1050001899+1045057535+1042038733+1039018234+1034813176
856+1031868583+1031663608+1030752597+1025747400+1017990635+1011676496
845+1007657469+1003543118+997455883+989773191+983332360+978660118+972649469
831+964640882+959414823+961034383+965405987+964043951+957398758+953886633
818+953519526+950935929+949009825+950708957+952144794+952154368+952333066
804+950189495+944456331+937851195+932276701+928833829+927644042+928239139
791+928925011+926792778+923814374+923118996+921469766+916373047+911108899
777+906948787+902343151+898099257+894378967+891264908+890805804+891161573
764+889727908+889011483+889852631+888106447+881953897+875663589+872538396
750+871342160+870121209+867599464+864632670+863430187+863551854+862870599
737+860368951+857481321+857504066+860598231+863209869+864461779+864833570
723+864076001+864028135+863828050+861122650+858822785+859500238+860432161
710+858691341+855819123+854278049+854005724+853169193+850953721+850448517
696+853078622+855576468+856089819+853185895+846701476+842585496+844299973
683+846701612+844466790+839524803+836408368+837067490+840259424+839850019
669+833755044+833151052+839335580+842219679+841410986+837559116+833660602
656+832697244+831287479+827063342+824080592+825676118+828717257+831398690
642+831976474+824227313+813067733+809604899+815324960+821383543+816527647
629+805520286+799975462+801934835+808792064+811900623+802394075+790816535
615+794949421+809612504+814584229+806814427+797077038+794292880+803509517
602+816322808+816602127
##END=
