##TITLE=Sample description
##JCAMP-DX=4.24
##DATA TYPE=INFRARED SPECTRUM
##DATE=25/8/2023
##SAMPLING PROCEDURE=Instrument type and / or accessory
##ORIGIN=Default
##XUNITS=1/CM
##YUNITS=ABSORBANCE
##RESOLUTION=4
##FIRSTX=4397.6552
##LASTX=599.8556
##DELTAX=-1.9287962
##MAXY=1.885185
##MINY=0.98000544
##XFACTOR=1
##YFACTOR=1.7557154e-009
##NPOINTS=1970
##FIRSTY=1.0400279
##XYDATA=(X++(Y..Y))
4398+592367012+591064188+590465533+591527726+592893560+594230604+595525755
4384+595540625+594515096+593548095+592791509+592782614+592865993+591817243
4371+591581569+593774874+595203105+593806786+592687150+593196927+594392133
4357+596632490+597917253+596302914+594398379+593517948+592499888+592578785
4344+594743368+596515027+595749886+594174724+594620609+596220690+596129707
4330+594314458+592842772+593168682+594607437+596252330+598878958+601679405
4317+602401363+600323689+597340257+596661754+598073011+599329257+599633711
4303+598272291+595905033+595403132+598046599+600471774+599352342+596850782
4290+595864294+596064593+596372645+597073758+598753890+600500019+600505315
4276+598977410+598872304+600654487+601377124+599861236+597267946+595751991
4263+597020866+600352953+603270251+604145387+603298769+601740852+600740106
4249+601049992+602516653+603878888+602850303+600747711+601247778+603176145
4236+603453644+602579459+601501309+600619520+601004229+602219261+603303114
4222+604399461+604407608+601729106+598222318+597475985+599554406+601499883
4209+601592292+601042387+601284239+601530505+601276771+601681917+603374135
4195+604830544+604064385+602337810+602076811+602905301+603876308+605208667
4182+606103085+605677909+604307119+602399801+601541912+602565200+603908627
4168+604824365+604307052+602738408+603675330+606397558+606552501+604976049
4155+605686193+608527242+609516106+606981683+604045373+604238271+607049038
4141+608489898+607027107+606155299+607155095+607522082+607332240+607669692
4128+608381805+610252798+612380173+611707374+608633231+607171458+608510811
4114+609986367+609812141+608386286+606826333+606158762+606650002+607674717
4101+608472652+608767329+608713758+609161069+610183678+609974145+608156452
4087+606614628+605829050+605328575+606060785+607999744+609343850+609840930
4074+610223806+610416500+610695356+611020655+610666500+610325245+611033963
4060+612231884+612466947+610907673+609789259+611066825+612053992+611159166
4047+610450109+611504427+613563836+613679195+611808202+611221361+612147555
4033+612682726+612664801+612940670+613325787+612948818+612209546+612476792
4020+614672948+617476110+617376572+614088211+611502865+611539326+613061596
4006+614367339+613584477+611325991+610994854+613075243+614763999+615509721
3993+616462056+617048218+617271602+618033212+618632818+618633972+618362313
3979+617504695+616286133+615766986+616262708+616402102+615552768+615516103
3966+616929465+617873788+617366795+616538916+616779682+618166360+618856949
3952+617732832+616161201+615532263+615485413+615023029+615068996+617009313
3939+619509651+620925524+620216467+617107221+614463075+614664393+615311663
3925+614563157+614543738+616020992+616631054+615881326+616223191+618452074
3912+620937407+622456010+622237379+620026421+617435915+615464569+613654616
3898+613928312+616073341+616827143+615260739+615281652+617729233+618248516
3885+616600364+616596358+617933878+619782532+620787352+618975838+616759516
3871+616290750+615646535+615693249+616504424+617612178+620008360+621665679
3858+621176882+618990300+614330607+613499401+617873177+621435437+623015013
3844+622186387+618087802+613663510+614108649+618688155+621385057+621743965
3831+622471898+624025401+625385191+626073811+624149925+619911538+620643477
3817+624502383+626402029+627310027+627813286+627170700+626274720+627201051
3804+627339155+623885803+622680412+624465650+625128265+626277368+629286194
3790+632503737+633799703+632988663+632187944+631817697+630411397+629334808
3777+630444735+632498305+633480515+631522409+628732147+629060841+631079104
3763+632039655+631548414+630267861+628678983+626484593+622358848+616159639
3750+615040003+619590653+622586170+625175862+630851714+634965713+634470737
3736+629971962+624648567+623579583+626420361+628856875+629527910+630487442
3723+632008490+632358028+633493144+636765141+638798478+636266228+631629552
3709+631601714+634689572+636647746+636727051+637754549+641374590+644523285
3696+644523964+641407249+636670084+633250138+634738798+639051873+643008756
3682+644782315+642974739+638085347+630767521+626264196+626791084+626116654
3669+625636413+628902367+632431290+633930678+633778655+632166963+628805748
3655+626947724+627584877+623991044+612640765+608562142+614481136+620040951
3642+621619916+620102806+617869171+616122702+614115914+610161815+602684497
3628+597320092+599953374+603383030+603500833+600257217+597556716+598348744
3615+598734675+597261360+595450117+593519849+592962408+593715938+592905917
3601+589878827+586723411+584184846+581859616+581467303+582745276+581688718
3588+577521012+575886100+577593799+578872790+577857650+575353984+573735707
3574+574058018+575001798+574180031+570259677+566443003+567215986+569817255
3561+570396966+569150871+568432851+568057275+567079478+566884815+567155048
3547+565937809+564218975+563476716+563204276+563003774+562531612+562252756
3534+562594553+561727498+559464259+558668768+559105996+558616181+558180141
3520+559148432+561174063+562700304+562133968+560299742+559444263+560288131
3507+561191105+561109560+561503197+562730383+563065187+562246916+560984492
3493+559716500+559063424+559091296+559240230+559548011+560078463+560777743
3480+562005438+563184043+563198607+562198743+561059858+560385599+560479637
3466+561133052+561544377+560848119+559781478+560225462+561762703+562444703
3453+562106843+561777063+561891166+562666084+564056224+564876430+565147173
3439+566330327+567828153+568230041+568170426+569243280+570775361+571026651
3426+571145269+571946667+572287175+572339727+572675007+573345023+574444289
3412+575826961+576656537+576447615+576600928+576640784+575109145+575091288
3399+577922356+580207730+581749418+584170112+586195301+587243984+588363347
3385+589984680+592396072+595161959+597328375+599474490+601939793+604345957
3372+606845005+608766039+610939109+615496073+620855114+623515691+623170499
3358+623372088+626798620+632251360+638924836+646350008+651105166+652385380
3345+654714819+659929034+664001751+664653502+664671563+667018384+671881975
3331+675129325+673610993+672322971+675427600+679183777+680686696+681900506
3318+683427596+684422978+686193754+688608745+689088171+688970708+691657426
3304+694949657+695009746+693793696+693544850+692459775+690281069+688766743
3291+687767490+686512535+685301984+684389708+682859902+679350670+675619887
3277+675280805+677547099+677968745+674601691+669683239+666730294+667016008
3264+668017297+667375323+665553013+662716173+660005623+659717465+661727309
3250+664785835+666027144+662629332+658257186+657803492+659625870+660347081
3237+659437318+657384970+655848985+656528642+657787740+657285703+656270291
3223+656202665+655900655+656031291+657926795+658785295+657153370+656375261
3210+657407037+657341108+655808043+654698999+654579906+655879675+657692276
3196+657546974+656403303+656965429+658666949+659447095+658591107+657186980
3183+657130964+658502569+659622068+659607402+659435485+660414911+661990888
3169+662744826+662126956+660548331+659926183+661126752+662492042+663926792
3156+665586622+665054100+662171225+660010919+660312114+661892368+663242381
3142+664726968+666650446+669104342+671511932+671383876+669465287+669391482
3129+670866359+671798257+671966032+671206799+670239526+670959650+672672985
3115+673159880+673694847+676543501+678896230+677663137+675299138+674037256
3102+674140868+675977980+677821610+678175426+678034334+677848091+677277341
3088+677204079+678555722+680311424+681015729+680976348+681522315+682636179
3075+682771839+681959033+681548048+681299949+680871106+680940702+681360378
3061+681518105+681691652+682289968+683291325+684809317+685931125+685241759
3047+683927528+684131018+685213309+685287046+685097815+685850734+686403762
3034+686655867+687055514+687158786+687551643+687911162+687586271+687638281
3020+688572691+689686691+690029779+689209369+688260361+688038063+688078598
3007+688523193+689917612+691942801+693755605+694424874+694596927+695593192
2993+697191983+699037718+700478103+700219548+699409391+700085450+701116139
2980+701708683+703216287+704720836+704936683+705395197+706754851+707454471
2966+707305231+707082526+706354526+705947546+706877067+707969544+708892955
2953+709876319+709758448+708676564+708120141+708425817+709859752+711980473
2939+713064191+713426426+714057400+714714312+715909586+717827360+718868778
2926+717815750+715386704+712916445+711860837+712525286+712533705+711319895
2912+711434507+712681722+712902119+712588838+712693265+712348344+711997923
2899+713872718+717188781+718305701+716989637+716403950+717447336+718221779
2885+718162233+718297213+718705483+719393085+720233660+720326680+719780917
2872+719344877+719048096+719033022+720333130+722803118+724505589+724872916
2858+724869250+725107367+725484744+724981756+723268965+722129572+722972795
2845+724609201+725181308+724316697+722889416+722323013+723159378+724094739
2831+724294019+724718584+725824165+726928455+727623865+727786481+727389482
2818+727356416+728179745+728920171+729786140+731220821+731978426+731868771
2804+731993635+732371147+732557594+732814248+733602610+734928112+736043538
2791+736690197+737612181+738626847+738999470+738319066+736823887+736430895
2777+737797543+738840929+739286678+741033418+743212124+743493764+742778529
2764+742787355+743289188+744195353+745372769+745919143+746384651+747593368
2750+748241046+747795840+747635669+747673827+747044279+746753947+747709202
2737+749102398+750018272+749838546+748649859+748448678+750465040+752743352
2723+753452613+753063219+752527369+752385666+752779813+753521122+754704853
2710+756602122+758187537+758281440+757518472+757035650+757480992+757922464
2696+757589764+758335147+760285105+760970262+760039790+759088134+758912754
2683+759413636+760278655+761133964+761653994+761620045+761611286+761980582
2669+762344922+763098452+763706410+763315318+763153382+763568509+763205935
2656+762278382+762436381+764388579+767234653+768917773+768804452+768727931
2642+769290261+769223042+768440519+768076587+768047526+767649306+767787681
2629+769422797+771588806+772307505+771538834+771743410+773476774+774300918
2615+773386266+772772334+773083306+773143667+773318436+774296029+775592199
2602+776572373+777334390+778462241+778995511+778011399+776745648+776154733
2588+776193706+777010110+778865894+781038285+781841585+781117590+780325154
2575+780105776+779948118+779568161+779974530+781735393+782950492+782416680
2561+782001960+783139995+785038419+786307022+786373087+785871254+785156493
2548+784128248+783735731+784896716+787094298+789167898+789976222+788837304
2534+787051930+786759697+787634561+788317613+788633882+788966785+790057428
2521+791009627+790146578+788693903+788258678+788357741+788577458+789421904
2507+790641349+791494689+792273817+792996861+793166742+792841443+792549754
2494+793053963+794142977+794999508+795518044+795661309+795029859+794181136
2480+794216510+794636323+794951369+795591102+796131297+796053690+795628718
2467+795673734+796723638+798406554+799619413+799648745+799481241+799742037
2453+799593273+798788412+798236538+798877426+800119210+800767159+800928484
2440+801103932+801643380+802383195+802152275+801215013+801172712+801738166
2426+802163410+802903021+803763219+804260978+804805451+805633533+806122805
2413+805891477+805587498+805566518+805225671+804876879+805601146+806745632
2399+807048253+807280938+808284197+808859088+808666122+808814751+808752013
2386+807964670+807447899+806752014+804390595+800811089+797853391+796151192
2372+794810481+792822228+790024633+786914572+783532784+780051254+777535436
2359+777226840+780011466+785055665+790138702+794227102+796732940+796584244
2345+794439623+793299754+793974183+794953270+796259828+798064689+799209039
2332+799352914+799496858+799934527+799883604+799286714+799591168+801522318
2318+804369683+807369613+809527407+810603587+812042818+814585524+816955363
2305+818130675+818369539+818401927+819513550+821601545+822586471+822332125
2291+822395067+823049466+823987068+824658034+824810533+825047768+825103376
2278+824747388+824790503+825134066+825004992+824641195+824855413+825470432
2264+826057884+826791860+827222332+827169372+827309309+827533644+827400971
2251+827335450+827923106+829168759+830356021+830352219+829551500+829568610
2237+830346991+830969546+831447751+831724638+831667808+831735094+831903956
2224+831769111+831846854+832926226+834207730+833933151+832910610+833129852
2210+833946595+834640104+835604660+835869394+835024541+834780448+835690212
2197+836875572+838155786+838776305+838337617+838016460+837722598+836763066
2183+835995820+836207593+837091148+838330284+840030310+842002131+842790900
2170+841018495+838689803+838512589+839432605+839979115+840822610+841728639
2156+841754508+841392884+841502471+842639149+844750636+846226735+846140301
2143+845711119+845705891+845873734+846145597+846346846+846453039+846647634
2129+846592297+846365994+846640233+846972865+846772838+846771276+847156189
2116+847478839+847837951+847910126+847767201+847628282+846655850+845704058
2102+846542664+848097525+848592364+848672891+849196791+849444210+849212543
2089+849461932+850455413+851058278+850536008+849889892+850063914+851007490
2075+851945431+851836455+851255317+851290013+851477343+851298229+850956906
2062+850782002+851328715+852799586+854235014+854315949+853188165+852142810
2048+851905983+853001922+855213354+856488883+855976119+855473607+855744995
2035+855955206+856235149+856945632+857506333+857582921+857339168+857167454
2021+857702150+858719531+858871419+858306509+858525411+859101049+859224691
2008+859191965+859553385+861026157+862694475+863301889+863611843+863836109
1994+863113269+861673563+860771676+860940470+861882824+863215048+863912087
1981+863630107+863667994+864270927+864436462+864106411+863643076+863374811
1967+863675802+864633637+866112928+867268345+867500895+867553109+867717761
1954+867468237+867417585+868203095+868609056+868028530+867817707+868814243
1940+870033214+870273232+869564107+868870395+869168874+870202008+871305619
1927+872233918+872038848+870866524+870052700+869506869+869945829+871429465
1913+871408688+869877048+869463754+871048829+873261892+874441481+874247157
1900+873832098+873538576+873328703+874292989+875611836+874956079+873709678
1886+874389471+876099614+877442226+877576664+876612107+875924642+876415950
1873+877549098+876843978+873124874+871935168+875747021+879319330+879914726
1859+879166221+878998581+879558942+879964835+880329107+881104500+881083113
1846+879044140+877489144+879565732+881982012+882832568+884229906+885916217
1832+885132404+881771325+879606334+880048146+881829378+884801878+886597097
1819+885343567+883567155+883817359+884581549+884425656+885168594+887453696
1805+888878532+887788228+885403588+884448333+885080870+885279539+883208179
1792+880328903+881974747+886019761+887834535+887700776+887589152+887969719
1778+888711707+888247286+885231128+882303644+884557785+889062264+891795899
1765+892450841+890539517+888553098+889339830+890880704+892574755+893070477
1751+889171308+883654404+882607827+884045156+885370047+886244299+886444259
1738+887044340+886640823+882960081+881982487+885502583+889492193+892261339
1724+893575569+894098111+892392517+885705462+879851174+883687946+889595330
1711+892052009+890300381+884688149+880553713+881292917+880127382+875084134
1697+874807247+880722439+887817425+890310430+888247761+885991652+882449217
1684+877368897+880212662+885137768+886715375+884926877+882100833+880490840
1670+878594385+879340107+883652571+885234862+882617672+881831890+883950710
1657+883994980+877252927+866071510+867343101+870037219+866847650+867829589
1643+874415340+877824288+876018612+870020992+863403600+864513390+868704453
1630+869949495+870118425+872148163+873330944+874690259+878479773+880588680
1616+880436997+883327544+887902704+891244976+893490765+895414718+896925921
1603+899158062+902736686+904954909+904839618+905567822+908642984+911406833
1589+912551320+913748087+914983420+914982130+914592193+914355230+912229009
1576+909494559+911818634+914139314+912115008+912078343+916102105+918925230
1562+918972283+912366230+900861008+904884431+914001210+920898884+924316726
1549+924842120+923612354+919024429+910548129+903374111+910451511+922391822
1535+926249303+924609705+925688670+928904719+928631566+925155808+921003175
1522+916643183+917513362+922417352+926848501+931067130+933208356+930576025
1508+921761730+917683989+929871381+940040102+942646768+941315359+942048316
1495+945755267+947607996+944625854+940550150+942120628+945630131+947075541
1481+946584707+945011243+942093672+937366217+931688395+930255140+935123619
1468+939280053+938443959+936310202+937099650+937148672+932417754+927154381
1454+929307557+933262607+934403223+933796216+936609495+942330771+945983336
1441+946774414+944918698+940579686+941264504+947679628+952111863+953207667
1427+953414348+952340475+951919577+953241955+951052997+948082466+950718396
1414+952501937+949253771+943853109+939509073+936387198+934959374+936045264
1400+937566244+936285011+932221257+929067063+927833291+925513426+920176791
1387+914582484+913858489+917246523+921108825+922895421+922218207+920842869
1373+921209721+923101015+924037870+924598774+925174480+923270217+920812858
1360+921835264+923993532+924283049+923193288+922371792+922116632+922063672
1346+921801654+921157575+919933581+918386732+918346672+920635169+923550159
1333+925325892+925958700+926862624+928577248+930060205+930294181+929878374
1319+930171489+931738300+933548117+935614045+939272720+942772039+945029711
1306+947874563+951291318+954537107+957197819+958561819+960104051+964335716
1292+969200801+970585781+970072473+971570300+975514485+979139212+980225102
1279+980797685+982872235+984866667+985308206+984864969+983792794+982177640
1265+982382692+985562620+988726184+989326672+989064111+990173834+992353491
1252+994443047+995192232+994042925+992193727+991345547+991955609+993391649
1238+994649796+994908011+996189176+1000086308+1002197049+999413508+995911473
1225+996225365+999827685+1002754082+1003527371+1004251094+1004505032+1002788099
1211+1002306704+1004886414+1006709947+1006855180+1007952409+1009221352
1200+1008674842+1007002247+1006370118+1007741790+1009402368+1009395646
1188+1008966056+1010270985+1012007065+1012089221+1012185229+1014828492
1177+1018033949+1018521320+1017918455+1018381654+1019168047+1020955186
1165+1024605442+1026557913+1023824006+1019901955+1018963878+1021235808
1153+1024098313+1025736892+1026506446+1024629682+1020999524+1020730512
1142+1022963129+1023234653+1021956680+1022174903+1025216523+1029154870
1130+1029758278+1027109922+1026515884+1029647333+1032558045+1032136739
1119+1029730100+1028392173+1029386605+1031358358+1032715161+1032261400
1107+1027573189+1021345056+1021415194+1028325769+1033505220+1033054039
1096+1031914238+1033310421+1037701715+1043333909+1044415929+1040112224
1084+1038193838+1042234371+1046172107+1047889515+1050106176+1050305252
1072+1048432426+1048462776+1051192949+1053775511+1053585193+1053742581
1061+1057023269+1060202857+1061689480+1062595509+1061845713+1059792958
1049+1057788342+1055068354+1053134759+1055698106+1062214127+1067383258
1038+1069921211+1070596048+1067264029+1065015185+1067663404+1068973018
1026+1067632850+1066701903+1065742574+1064423047+1062581047+1060415038
1015+1058756565+1057303076+1056373418+1057974382+1061847886+1064189411
1003+1062355490+1058659267+1057956932+1060051445+1060042754+1057951296
991+1056873961+1056605154+1057183779+1059468066+1061646569+1061491897
980+1059739658+1058752151+1058690568+1057493733+1055931335+1057181199
968+1059125929+1056708155+1051563874+1049433376+1052638290+1057831049
957+1059244343+1057173391+1056471327+1056815637+1055709445+1054656689
945+1055318693+1057202723+1059038612+1060412186+1061204893+1060127015
934+1058691994+1060395279+1064966570+1068694297+1068631424+1066416121
922+1065872395+1067610376+1069176440+1068815631+1067281004+1066381968
910+1065883598+1064349650+1063251199+1063779580+1065561083+1068494678
899+1069193957+1066295874+1063922912+1063352502+1062410352+1062277136
887+1067211272+1073741823+1072655186+1066622055+1062697152+1058367714
876+1053357939+1053194238+1055838519+1053445867+1047062044+1044551113
864+1045902416+1045386461+1042541948+1039888772+1037653168+1034168718
853+1029167431+1026012625+1026653513+1027307777+1025379614+1023440315
841+1020448465+1014522205+1009041355+1005182381+1003113262+1002997089
829+1000343030+995334410+993098737+993851656+996107902+995336243+989773304
816+988251171+991205813+990086449+986052435+982455275+977668001+972864229
802+971496019+974239635+977360696+974865042+966010281+957211671+953838234
789+954175347+952781132+949161770+946409463+947222200+952448229+954570512
775+947813115+940039626+937767561+938039084+936574799+933182623+929289700
762+925924411+924199467+921300840+913539776+904933928+901639661+904273825
748+907906292+907013775+903099532+901469441+903096205+904147400+901363724
735+897495923+896770978+898474602+898440925+894516973+890320207+889795289
721+889973181+886717547+884677013+889871606+898223109+901271451+897968492
708+892297324+887643810+887219652+889325436+888953152+887246811+885387021
694+881991382+878513383+873485208+868547609+869530973+871064107+867657061
681+865626779+866904073+867194880+867570627+870404615+870067909+862772286
667+860529077+865950244+866238607+863789124+863807049+863067438+861318661
654+863457511+866287086+861417384+851027317+844947879+845950527+848595012
640+848977277+845641999+840853775+842241607+848379165+852521137+851869182
627+843332793+830084430+818224645+807857187+798849180+800183373+817717652
613+829849096+816963714+803473295+812341569+829232108+835765850+839692654
600+841646958
##END=
