##TITLE=Sample description
##JCAMP-DX=4.24
##DATA TYPE=INFRARED SPECTRUM
##DATE=25/8/2023
##SAMPLING PROCEDURE=Instrument type and / or accessory
##ORIGIN=Default
##XUNITS=1/CM
##YUNITS=ABSORBANCE
##RESOLUTION=4
##FIRSTX=4397.6552
##LASTX=599.8556
##DELTAX=-1.9287962
##MAXY=1.9103436
##MINY=0.41784763
##XFACTOR=1
##YFACTOR=1.7791462e-009
##NPOINTS=1970
##FIRSTY=0.45363691
##XYDATA=(X++(Y..Y))
4398+254974506+255821181+256153737+255899022+255468206+255115448+255077976
4384+255185869+255361184+255954602+256440898+256176886+255475827+254947302
4371+255123154+255924500+256638357+256990093+257322012+257726580+257819045
4357+257510092+257509288+258025232+258171150+257778123+257468884+257317540
4344+257119310+256854059+256666817+256849821+257305010+257435349+257269666
4330+257199128+257072859+257018737+257404762+257998598+258316564+258308239
4317+258425697+258782072+258900937+258673376+258416567+258486837+259162335
4303+260039312+260364899+259813778+258761954+258187850+258456367+258918961
4290+259000286+258858959+258904689+259240813+259886661+260591322+260863608
4276+260655880+260296656+260101073+260311615+260950578+261584584+261862481
4263+261879400+261739111+261445886+260972170+260646700+260890041+261187017
4249+261092341+261306334+262073459+262624949+262677932+262602771+262636541
4236+262727967+262744450+262671651+262615569+262594613+262496654+262462063
4222+262708536+262951106+262905812+262799628+262804184+262981225+263367970
4209+263428122+262944976+262901440+263893194+264874446+264651475+263792136
4195+263588244+263972292+264116116+264142247+264520315+264878701+264907714
4182+264875418+264996292+265186164+265083682+264744174+264706786+265008303
4168+265199280+265077132+264972808+265194941+265370608+265262933+265321796
4155+265475787+265354343+265350825+265653129+265897592+265992419+266016389
4141+266192961+266626776+266964994+267090893+267003169+266630176+266379583
4128+266487894+266624498+266647547+266751218+266910888+267042249+267402846
4114+267957334+268302772+268328803+268184912+268054054+268083854+268255367
4101+268320310+268438035+269093683+269828897+269853940+269463091+269294242
4087+269358850+269469155+269600197+269653800+269485671+269304359+269441348
4074+269663666+269723551+269963792+270394576+270599138+270673512+270738388
4060+270606391+270512619+270681100+270945078+271062284+270924842+270913686
4047+271185319+271541477+272113571+272640622+272631241+272396477+272517352
4033+272882589+273032325+272746822+272006097+271427454+271699522+272365186
4020+272687809+272468590+272011943+271992077+272397013+272508658+272356409
4006+272554053+272983396+273150637+273054671+272988103+273353071+274079458
3993+274375798+274246515+274438380+274759177+274591265+274158556+274006893
3979+274022036+274023142+274167099+274138438+273859535+273876303+274199277
3966+274509789+274592907+274394476+274203147+274361510+274942080+275371339
3952+274987173+274111335+273933340+274564883+274596877+274068603+274489001
3939+275680829+276241398+275344789+273731056+273467363+274520208+274778742
3925+274326618+274783097+275502398+275200798+274881978+275936381+277424364
3912+278254372+278221088+276611710+273191224+270176395+269901328+271564660
3898+274175072+276381854+276558024+275297015+275372964+276387952+276059114
3885+274839883+273946171+273946473+275859645+277146416+275738770+273238546
3871+271464456+271715033+273240137+273516108+273863288+275848036+277078709
3858+275873983+271928909+267506031+270012119+275634462+279077378+279367537
3844+277200153+274546758+272219922+271109504+272880629+275603305+277494132
3831+278656025+279117731+279277166+279138837+276859574+273590164+273903372
3817+275886547+278717015+282267154+284102920+283308223+281110570+279792407
3804+278367156+276406428+277064471+279357805+281964800+284643237+286236048
3790+286585606+286054568+285079531+284709236+284765418+284169990+284205804
3777+285738043+286780084+286086697+284246374+283279981+283813296+284740828
3763+285103887+283938627+282293988+282382065+282475635+279832542+275280147
3750+274725139+277221092+278214387+279271638+281787039+282980575+281130906
3736+277342687+276908185+280791097+284305204+285308784+284384402+283592653
3723+284168315+285691844+287454208+288468274+287444425+283867971+281503680
3709+284184396+287706644+289085110+288647275+288265253+289138646+290099746
3696+290174120+288773778+285287611+282116529+283942982+287904003+290212078
3682+290324912+288577490+285254277+280875370+279846831+281127220+280674292
3669+281785464+285204527+287476252+287991677+287367873+285656969+283126777
3655+281450513+279779258+274726194+268496714+270235140+275556939+278496490
3642+279018314+278333419+277086632+275426231+273558287+271048967+267028228
3628+264973796+267180461+268591273+267127745+263537137+260612461+260047118
3615+260170153+260176803+259704930+258631146+258591598+259621695+259552731
3601+258219359+257204153+256473629+255663990+255565177+255352222+253135105
3588+250120024+250304217+252291747+253111520+252678944+251831448+250902895
3574+249998966+248937477+246825455+243124944+240764807+242377250+244429522
3561+244650902+244441482+244622542+244011603+242697226+242020422+241586088
3547+240581184+239767508+239824495+240221072+240224942+239778798+239640469
3534+239795532+239110001+237643090+236899433+237131266+237369179+237516202
3520+237839277+238060422+237815524+237297586+236968732+236819063+236604366
3507+236043881+235115093+234858519+235758646+236591367+236839331+236951646
3493+236807823+236319366+236106495+236303352+236361846+236249163+236465819
3480+237139306+237693862+237640628+237252526+237065167+237243045+237646842
3466+237813866+237460254+237131249+237349246+237869496+238245956+238389494
3453+238466515+238419847+238201331+238121128+238274633+238518476+238931168
3439+239437264+239761277+239971149+240415148+241003240+241337672+241777165
3426+242606419+243245098+243868718+245053510+246298605+247273240+248442437
3412+250033657+251794194+253470157+255089183+256777624+258340585+259573687
3399+260835701+262346214+263696958+264753287+266005451+267801819+270023978
3385+272513951+274938713+276719770+278016073+279743964+282125608+284463433
3372+286475385+288513267+290819198+293265300+295535384+297722383+300134716
3358+302949171+306397681+310176285+313449614+315864895+318040068+320902229
3345+324336971+327606849+330659402+333438713+335605142+337639005+340094018
3331+342453518+344001269+344728728+345419703+346880014+348589210+349667835
3318+350396366+350934774+351093706+351238166+351839926+353061202+354257887
3304+354787718+354930503+355004776+355229842+355734714+356078878+355883261
3291+355571460+355663556+355929862+355623287+354216680+352363560+351119201
3277+350616339+350727464+350920569+350351306+349608369+349544213+349471079
3264+348729549+347698598+346997338+346847283+346746844+346473436+346615048
3250+347081662+347000185+346454910+346288037+346415578+346044110+345024549
3237+344024888+343580687+343554623+343386209+342762573+342317367+342582869
3223+342806594+342329629+341699962+341304205+340889419+340636178+340648876
3210+340892367+341716277+342626187+342864351+342866931+342944320+342666724
3196+342308322+342575365+343288819+343912054+344189684+344099832+344159800
3183+344680619+345003912+344833756+344786854+344959623+345217285+346048867
3169+347138682+347549816+347496984+347641343+348148494+348754341+349148121
3156+349626695+350459684+351471607+352573649+353663028+354283382+353934628
3142+353152930+353107669+353805780+354425128+354761520+354999517+355300564
3129+355861586+356308735+356104306+355702217+355878404+356509477+357093749
3115+357487463+357538151+357213652+356731327+356314832+356138311+356117640
3102+356271246+356646098+356835350+356601574+356418319+356659800+356939406
3088+357151707+357612291+358070730+358101283+357721540+357420660+357644653
3075+358178270+358561665+358682104+358477944+357907408+357402670+357305246
3061+357366387+357334158+357255563+357128692+356799905+356288533+355931671
3047+356114859+356762751+357507731+358051734+358123260+357817188+357577147
3034+357642911+357791358+357975015+358665621+359728668+360507853+360995171
3020+361726047+363001394+364303644+364968722+365418048+366411344+367830783
3007+369316254+370829665+372382877+374274457+377062513+380899611+385510366
2993+390962119+397454504+404080663+409264936+412294272+413650325+414461606
2980+415309034+415733737+415442539+414701948+413562149+411848095+409647996
2966+407291679+405106656+403476759+402658443+402242317+401689839+401179237
2953+400806731+400374992+400279177+400856079+401836275+402784946+403248846
2939+403174573+402994098+402932254+402747491+402219234+401443969+400593491
2926+399773836+398962589+397859474+396249712+394547685+393155718+391916954
2912+390769885+389890965+389349609+388979648+388631430+388450889+388464457
2899+388475814+388348708+388084848+387835594+387743967+387946016+388457120
2885+388892175+388901555+388656288+388440503+388209642+387855126+387426972
2872+386775529+385799923+384985694+384601261+384296361+383962180+383733698
2858+383388729+382704119+381872068+380910666+379697130+378682728+378360139
2845+378478735+378618136+378876033+379252996+379325862+379108168+379013491
2831+379096777+379310251+379817234+380453467+380721180+380586134+380514005
2818+380771935+381296842+381998538+382693801+383107213+383209729+383356769
2804+383679391+383767467+383776379+384187513+384622065+384831988+385230861
2791+385984049+386765981+387173833+387284992+387405699+387592036+387814521
2777+388083642+388474842+388894721+389132751+389384049+389797629+389950196
2764+389763691+389910999+390501904+390903256+391096159+391444009+391938295
2750+392469634+392872895+393046535+393036317+393016819+393240008+393615899
2737+394016614+394487683+394831479+394979557+395243987+395648488+395919752
2723+396211922+396725270+397158616+397393967+397716556+398196235+398644657
2710+399073112+399709445+400568097+401294651+401670508+401914870+402150154
2696+402359507+402691912+403143784+403607115+404003575+404078854+403968097
2683+404275543+404878810+405158082+405148534+405287399+405683625+405974387
2669+406080822+406356408+406719535+406948051+407102595+407294828+407627970
2656+407936857+408003459+408063661+408364709+408695573+408932163+409249526
2642+409620190+409899260+410110791+410342891+410579280+410787527+411057050
2629+411373340+411684974+412067163+412480609+412888628+413380133+413906748
2615+414335304+414686939+415024436+415297309+415562040+416026811+416730282
2602+417444642+417882745+418043319+418259942+418791181+419428720+419801395
2588+420121304+420712276+421311891+421732406+422070942+422347734+422639167
2575+422924602+423129131+423497383+424026310+424234289+424118138+424116061
2561+424260655+424392250+424667501+425193312+425709911+426031562+426214247
2548+426397938+426718718+427096585+427411971+427654792+427786756+427952623
2534+428305666+428628623+428763669+428950777+429462852+430093725+430403851
2521+430553136+430924403+431404417+431727911+431849824+432032308+432488302
2507+433020612+433400925+433720666+434222122+434905458+435524807+435892623
2494+436079697+436468754+437170115+437660112+437763901+437979083+438327737
2480+438532064+438811738+439168465+439351653+439559163+439976462+440404984
2467+440685729+440977262+441417376+441762578+441767771+441652625+441863452
2453+442346582+442693494+443013637+443392241+443534658+443591209+443735735
2440+443873160+444196185+444769334+445168810+445095809+444940227+445179798
2426+445597599+445921093+446327269+446873215+447337215+447588244+447889526
2413+448501437+449054787+449319485+449575908+449792196+449918598+450085806
2399+450220081+450506354+451170293+451781634+452051894+452328585+452657272
2386+452791848+452711511+452264932+451301788+449987344+448525022+447157243
2372+446078887+444991082+443343362+441076662+438890333+437589089+437407040
2359+438315676+440268699+442866832+445639946+448342304+450223699+450377372
2345+449000715+447675316+447537389+448358284+449555539+450649842+451391841
2332+452017655+452750608+453300272+453697570+454539840+455952277+457365384
2318+458546759+459666691+460893863+462308143+463547007+464536852+465592662
2305+466440425+466983088+467632052+468381622+469064255+469715999+470270689
2291+470662024+471098385+471794386+472544826+473039849+473292688+473420966
2278+473594439+473994551+474432654+474593430+474640500+474968416+475466956
2264+475799529+476173443+476826326+477428555+477777544+478155712+478615056
2251+478790136+478630567+478568220+478985854+479851206+480695318+481200995
2237+481608008+482086314+482366021+482407730+482657654+483163130+483451044
2224+483529037+483751991+484034278+484193512+484383802+484789945+485376361
2210+485869843+486095812+486367211+486911850+487374644+487482319+487527814
2197+487954561+488735957+489400768+489718465+489897097+490176469+490588072
2183+491000312+491329200+491657250+492101718+492616842+493000438+493230060
2170+493505076+493793460+493999932+494248884+494521890+494866121+495431431
2156+496010309+496495315+496965547+497295406+497533235+497819676+498008928
2143+498119216+498393160+498815216+499360224+500020612+500472484+500619959
2129+500814002+501182723+501404907+501352075+501453719+501924655+502421185
2116+502761128+503095744+503391700+503494952+503641288+504145725+504854222
2102+505493638+505932612+506050974+506052146+506300295+506731329+507195396
2089+507599696+507705529+507732263+508185811+508929786+509567493+510144529
2075+510704780+511015341+511115378+511230725+511230892+511190288+511693686
2062+512631570+513314505+513788187+514327600+514719571+514909225+515141125
2048+515441603+515683821+515839370+515975588+516230738+516664486+517259713
2035+517900268+518310465+518570908+519025729+519504872+519646283+519671409
2021+519978386+520434547+520747320+521091954+521875561+522952612+523701813
2008+524092277+524562307+525013108+525199478+525368462+525788240+526126909
1994+525989418+525916183+526573154+527527353+528251830+528892820+529733850
1981+530582585+531019449+531273460+531793576+532451183+532874479+532816353
1967+532627403+533155224+534203764+535000069+535483266+535732117+535929678
1954+536453211+537373807+538327135+538594547+538017109+537344326+537619074
1940+538918878+540039380+540667372+541323371+542002353+542541062+543047476
1927+543232942+542571013+541849283+542056224+542530241+543208619+544535526
1913+545569493+545580348+545364127+545946690+546815593+547291453+547804467
1900+548535778+548980749+549239250+549741576+549838765+549479592+550173314
1886+551601262+552438071+552870345+553173302+553428184+553821562+554210920
1873+554060866+552717443+551202591+552210995+554971680+556862791+557461268
1859+557818029+558491683+559191938+559726661+559903115+559333986+558161188
1846+556933714+556948053+559032805+561299639+562529089+563285761+564035331
1832+563696225+562041537+561491705+562480846+563889933+565783925+567412583
1819+568325508+569143756+569783775+569445608+568660995+568930216+570120871
1805+571059793+571041970+570292132+570254275+571317891+572019687+571555754
1792+571414778+573434067+575825561+576969850+577015412+576446216+576108786
1778+576568967+576585316+574899973+572740847+573732501+577228417+580350251
1765+581701916+581332793+581150878+581869559+582423277+582685462+581724563
1751+578874027+577017154+578663501+581200460+582499862+582721979+583104570
1738+583783920+582801111+580741887+582225080+585625984+588501044+590524688
1724+591412085+591141256+589092150+584555735+581814281+585680726+590764897
1711+593405845+593576102+592236632+590851264+589845673+587420744+584372279
1697+584493288+588317990+593182522+595682965+595743938+594142752+589953080
1684+586294145+589940082+594759520+596936469+596886283+596591266+596398497
1670+595613214+597480539+601035752+601776612+600861409+602309961+604329652
1657+603516026+598474739+593235321+596257454+598736254+599105243+602755267
1643+607519495+609963654+610144966+608448969+608926705+615771061+622918073
1630+627967133+631787212+635406280+640073353+646627851+652346747+655678369
1616+660178267+667761473+674111007+677961237+680906584+683787607+686024658
1603+687938349+690028930+691833740+693038600+694130961+695478940+697051985
1589+699040519+701296331+703025427+703882672+704032693+702827164+699518456
1576+697162608+698830731+699930797+699142298+699898166+702015012+703023082
1562+701942045+696400709+691419926+698850095+706294267+710353349+713342851
1549+716865568+719012164+717498082+713691203+712686349+722591767+734761975
1535+741774912+746526945+752358675+757708648+761056419+763733081+766037068
1522+768479150+774210710+781124950+787525340+793246916+795907899+794731717
1508+791377581+792984061+801311543+807148767+809945834+810689106+811944419
1495+815818570+818019104+815772204+814664633+820786020+827925460+832013219
1481+834291879+836021913+836983751+836656505+834206248+832389176+834669846
1468+836726189+836773359+839130012+843219646+843713798+840440670+841665832
1454+849219890+856772140+862389123+864681787+865033623+865830364+868199010
1441+872423389+875601104+875960378+878504506+883249504+884949319+884910792
1427+886421055+887427584+887150657+885282797+879879086+877273850+881394910
1414+884346622+883033216+879748831+875371952+870492947+868148489+867265515
1400+863472572+858734878+857634008+859316537+861308689+861579719+858834847
1387+854939590+853768902+854808598+855886352+856336817+854939858+852166443
1373+852417908+855010815+855286267+854396861+853900564+852428829+851938832
1360+853846023+854805784+853776474+852589571+851614534+850496645+850190505
1346+850830390+851277103+850349706+848474006+848410084+850909186+853818619
1333+855325196+855176046+855333706+857043036+858992038+859712997+859694571
1319+861151700+865592501+871332502+875390579+877672455+880090818+882711264
1306+884832867+886837214+888843237+890497021+892316840+895225469+899417083
1292+903280446+903909209+902377840+903120509+906216144+908523750+908864129
1279+907928892+907111581+907281302+907763326+907440368+906484427+906196579
1265+906967389+907505697+906897572+906488715+907815991+910055722+911673927
1252+912941636+914573912+915900584+915999616+914730164+913048105+913047301
1238+915459767+918073848+919390335+920290663+921092027+921508187+921784979
1225+922432904+923355947+923913082+924720007+925948988+926555371+926982050
1211+928048480+929855837+931925915+932844066+931977038+929968336+928461156
1198+929494955+932314469+933871701+934044570+935352414+937581693+938438267
1184+938034503+937609566+937166069+937214379+937843476+938026329+939031652
1171+942945536+948998847+954142449+956119794+955433677+953766291+953843613
1157+956592639+958894214+959935250+961820733+965019219+969032403+972681556
1144+974207162+974452328+975757760+976433023+975626634+976874644+979698513
1130+980722597+980417462+980604871+980442991+979143924+978782841+978946062
1117+977597546+977468363+981038653+985105172+984783018+981621049+981455081
1103+983921753+986685185+991101998+996131024+998683797+997754054+996230525
1090+998087397+1002439820+1005564938+1005919990+1005463360+1007054496
1078+1010051301+1010740769+1009928014+1011770883+1014177654+1015761017
1067+1020413952+1026759935+1028954505+1026451048+1025402575+1027511850
1055+1028609436+1028115285+1026905467+1026984866+1029958756+1031830905
1043+1031794321+1033203408+1034971701+1036541195+1039908262+1043572826
1032+1044035486+1040123612+1037038697+1040291590+1044483540+1043644654
1020+1040820048+1039461214+1041388105+1045078331+1046775667+1046699350
1009+1044695070+1039912148+1037886159+1042811597+1047091389+1043381128
997+1037617742+1036341189+1037711547+1037589936+1035777018+1035758458
986+1038397062+1040658904+1041714145+1041484858+1038054606+1034185011
974+1034894111+1039316553+1043474867+1045936447+1047148342+1046105296
962+1042963495+1041850765+1044241723+1047691205+1051964765+1054117995
951+1048123513+1039901763+1039710802+1046066233+1051993309+1052175693
939+1048145222+1048552403+1054043218+1057677832+1058363480+1058358455
928+1057886816+1056983674+1055805616+1053505045+1050320831+1050079483
916+1055208412+1061764920+1063932756+1061003893+1056817505+1053935544
905+1052326719+1051490714+1051173586+1053956114+1062675366+1071855335
893+1073741823+1071331769+1070152571+1068110166+1064945718+1065553374
881+1066723995+1061076525+1052939266+1049262977+1048945983+1049355509
870+1049035902+1045544341+1038734760+1032385025+1029341652+1029336828
858+1030781092+1030461819+1025164511+1016770159+1010132376+1004765584+998395547
845+995294216+997072694+996452977+991524791+987578946+982461744+973065755
831+966481909+966588110+966954351+963563297+959590315+957685803+957126457
818+956268743+954632648+953759724+954112231+951628539+944352814+938176685
804+938765312+942636247+942810256+939325329+934952670+927981343+917261428
791+909766333+910756312+913721223+914275143+915581111+915973417+911141650
777+903539751+900027955+900156803+898448746+895517939+892967244+890600072
764+888655090+884828244+879461251+877251471+878733860+880281041+879954398
750+878250830+876446422+874269742+870311434+866013083+863362753+860963151
737+859487664+861938255+865622518+867033347+867098408+865364018+861880632
723+858922890+857299593+857008797+857898270+860329699+862963210+861788569
710+858280258+856665738+856085688+855706916+855936872+856025786+853637977
696+847853418+844509668+845376695+844144565+840830430+840487975+843072305
683+846032594+848152656+848387035+846230656+842495002+838040264+832671195
669+827409800+829574554+838202547+841991469+839832478+838381916+839260669
656+837189988+831928325+826609977+822744135+820925722+822941862+826201054
642+823367671+818636007+815894284+815735084+826756179+837303425+830392936
629+821021404+822118186+824864197+822272898+811890682+790091781+778273744
615+796243051+825736183+840012249+837062413+827355594+813495889+803242722
602+814384893+830111454
##END=
