##TITLE=Sample description
##JCAMP-DX=4.24
##DATA TYPE=INFRARED SPECTRUM
##DATE=25/8/2023
##SAMPLING PROCEDURE=Instrument type and / or accessory
##ORIGIN=Default
##XUNITS=1/CM
##YUNITS=ABSORBANCE
##RESOLUTION=4
##FIRSTX=4397.6552
##LASTX=599.8556
##DELTAX=-1.9287962
##MAXY=2.0556698
##MINY=1.2545128
##XFACTOR=1
##YFACTOR=1.9144917e-009
##NPOINTS=1970
##FIRSTY=1.3435597
##XYDATA=(X++(Y..Y))
4398+701784060+701698380+699232926+695978115+695962860+699246749+702336802
4384+702476031+700203354+698686784+698529498+697990766+697514175+697303963
4371+696018713+694874872+695378050+695956571+696185838+697506828+698938840
4357+699737225+701483311+703436060+703669935+702315320+700503854+700748251
4344+704320996+707298844+705200702+698951605+693127665+692684326+697398484
4330+700720605+701232500+703822488+707783467+707978300+705148522+705038497
4317+708015473+708385649+704198331+699870912+698752102+699753726+700997381
4303+701454108+700693955+699721970+699416551+699175454+699774585+702577899
4290+704287185+702788797+702038855+703084751+703294902+703557792+706592552
4276+709939704+708672388+704980900+704017321+705311474+706665778+708515849
4263+709711932+708270393+705699334+704199202+705203504+707081720+705686134
4249+703419809+705148584+707315283+705245036+702649257+702255793+701599314
4236+700749497+701119984+701853487+702410588+704318879+707154074+708197354
4222+709235031+711132549+709622330+705277414+702975224+703765639+705404688
4209+706101952+705479097+705058484+706098278+707049279+706785018+704574858
4195+700630193+699403786+702877278+706779041+708428800+709487834+711189337
4182+712842645+713746448+714727586+715206044+712517737+707673192+704241793
4168+703808789+705419445+706672129+707094796+707959993+708659934+707352269
4155+705555934+707230039+711130993+712101421+710456705+709429490+708030043
4141+705311910+703663583+704790177+707139690+707594923+706833524+707887328
4128+709330984+708817656+708082597+708881480+710145745+710415298+709793626
4114+708282971+706447159+708148537+713539722+715697454+712540776+709043685
4101+708416720+710121087+711258266+710775449+710299295+709569403+707176677
4087+704585132+703905677+704639117+706102263+707933405+709193001+709861310
4074+709899916+709648109+710911938+712973592+712436167+709868969+709630114
4060+712436977+713899251+712022031+710293504+710429557+711099174+712659332
4047+714987176+715880830+715224039+715539670+716662963+715120427+711846438
4033+711316112+713024464+714878770+716863898+717447338+717398832+718434329
4020+717606118+714669491+712835235+713055722+715863644+719448593+719615842
4006+715416444+711661880+714218742+719467024+719686639+717348147+716439799
3993+715760032+716118004+718219695+719084831+717968138+717467388+718065896
3979+717988063+715582945+712752607+713462885+715796458+716544905+717397587
3966+718325175+718064028+719526240+723545812+724855158+721810000+718898777
3952+717992235+717062405+715755611+716213085+717666953+717477786+716602315
3939+716019685+714108280+711601418+711558517+715003366+718972003+721071079
3925+722320712+722974700+721948481+721051465+721785280+721561368+719123996
3912+717120375+718652886+722814924+723399173+717473615+712023276+710071149
3898+710886471+714636116+718601453+719513911+718304441+719469764+721093309
3885+720661364+721218963+720592123+718670445+719790998+721530173+721536088
3871+720184213+718263158+717214647+714895582+712758024+715078397+718903261
3858+721824446+722909383+718679225+716791108+720142806+721138390+719300211
3844+717791736+719000210+720523007+716914396+711744570+711875455+717257051
3831+724358082+728118063+728238550+728086121+726247631+721518716+721314916
3817+722790017+722079615+725813008+732819021+735953719+731476175+725102918
3804+721466474+718301888+719422005+724391955+728698328+731971943+732349155
3790+729151568+727358222+729338244+731497719+731199087+729387621+727782508
3777+726619488+726063446+727102305+727586305+725451487+724858271+728511590
3763+732807501+732391123+727857352+725755474+725901739+723420655+718747531
3750+719337883+723668477+724603413+721220022+720530292+724694572+729257920
3736+727207598+720681165+720801028+725082681+727633067+728329895+728598265
3723+728066133+727818871+729359228+730915587+730314650+727204734+723421465
3709+723420967+727920242+733179047+735237339+734171269+732872633+733089259
3696+735934229+738525712+735385596+726349562+722463116+727381509+732752582
3682+734964486+735337651+733029545+725763008+721859689+723609822+721831731
3669+720140564+724130808+729170248+731731344+730804316+726771170+720096666
3655+716294717+718803945+721398292+719322192+718076918+720127862+721482290
3642+719449714+715245646+713055037+714398132+716714458+716205925+708397729
3628+697374324+697190948+702412954+704899393+702358160+697481734+694938135
3615+693388314+690900195+688605352+687940529+689478332+691610970+692113152
3601+690457789+689497137+689921485+687023214+681558741+679134881+678395774
3588+675631439+674077695+675349806+675749621+674724834+674362379+675388972
3574+676454482+676217058+674125516+669156998+665206169+667575359+671358379
3561+672485097+671987772+671268590+670274812+668446098+665986559+664523787
3547+664279888+664221046+665067128+666585317+667068819+666207669+665641165
3534+666715766+666930337+664679392+663100804+662804476+661458205+660260130
3520+660848489+661135290+659226688+656561108+655929100+658507444+661737099
3507+662685609+661695131+659876940+657910118+656189126+655271998+656165028
3493+659628744+664191096+665963334+663944831+661449675+661327570+663742152
3480+665601439+664773353+662757901+660827941+659747114+660604839+662805659
3466+664706976+665223168+664230635+662875585+661796065+660866422+660600605
3453+661382987+663409896+665997767+666830524+665360280+664305791+665045770
3439+665594839+664795084+663557531+662831438+663341465+664276962+665173853
3426+667172182+669574373+670350840+670116281+670864292+671004891+669884275
3412+671027307+674831995+678064328+678361714+676625902+676195140+677555483
3399+678695838+678311091+676800436+676978644+679820376+681770075+681303260
3385+681569327+683701716+686033483+688153357+689977588+691301442+692885510
3372+695820705+699331930+701045824+701758094+704112029+707480041+710231362
3358+712854912+715786246+717851948+718844979+721010120+725631314+730234139
3345+732989570+735473144+738865688+744095914+749364246+750450864+750148933
3331+752393776+754855245+755578349+755658923+755854938+755122369+754503251
3318+756428042+759022451+759778993+760439395+763313817+766966887+768200081
3304+767395220+767317511+768769262+771478864+774248430+772315792+764349065
3291+757840814+758261800+761724706+761918979+758838702+755338435+752885372
3277+752374597+752204858+752947203+757394236+760576506+756279038+748665924
3264+745272881+746919464+748091513+745834839+743247342+743781030+746389138
3250+746634096+743942551+741174666+738933808+737782246+738608277+740551936
3237+742670502+744025490+743408301+741907858+742099079+744526489+746524008
3223+744709117+741246273+740073229+740395273+741519562+742226975+740174288
3210+737431808+737459704+739744086+740973358+740857292+741603311+743706310
3196+745463853+744952580+743980035+743282273+741297207+739917375+740704614
3183+742194970+741993537+740628026+741085376+743032210+745271573+747784849
3169+749334420+748773646+747490513+748263182+750301549+749441582+745409743
3156+742742482+742850079+743913410+745621015+746859003+747364236+749311755
3142+752555794+754520748+753501253+750677578+748435101+748065796+749963315
3129+753395960+755637503+753858104+750768051+750800555+752006040+751160768
3115+750030937+750805162+751669114+751452986+752447138+753778652+753075971
3102+752615508+752999445+752226776+752456603+754431955+754146524+751959278
3088+752117435+754334508+755636880+756042922+757431472+759319588+759498605
3075+758475001+757645172+757431410+758617966+759419589+758328176+757214098
3061+756337070+755160414+754175914+753508414+754016137+756209174+758385586
3047+758849848+759143311+761606711+764714198+765688175+764919367+763291526
3034+761298178+761185476+763152733+764293586+763761827+762881125+762564250
3020+762927327+763076394+762832308+763631876+764565380+763235423+761959390
3007+763616060+766492289+769338505+771378241+770302520+768155311+768392485
2993+769529228+770437825+772461621+774806340+775588287+774678071+773717792
2980+774525766+776159958+776610459+776757595+778071300+779887810+780833207
2966+780966147+781138750+780647154+779314644+778812587+779950575+782083151
2953+783417529+782692868+781480346+782138631+784218342+784990326+783455138
2939+781674743+782211545+784922953+787167547+788200180+788703981+788329757
2926+787792706+787389902+786085226+784208878+782961424+782927925+782883280
2912+781839875+781016147+781352450+783037888+784535467+784385342+783792437
2899+783071201+783164788+785293192+786540956+784688021+781390495+779276973
2885+780178347+783466969+787363875+790868313+792073798+790078396+787745508
2872+786581741+785924391+786425576+787414747+787907464+788522971+789415255
2858+790377152+789812392+787184733+785236405+785344562+786540770+787383489
2845+787421409+787153537+786165301+785147861+786561567+790135308+792149141
2831+791879277+792021183+792453066+791987559+791167443+791082137+792477163
2818+794150334+794862168+794675181+793893484+793591365+793990993+794547410
2804+796128987+798580742+799067046+796947546+795366779+795684838+795850654
2791+795037200+795162730+796262985+796634593+796795491+798055958+800829882
2777+803765513+804438430+802938796+801806848+802801685+804825917+805883082
2764+805817204+805327413+804584695+803508226+802834562+803295896+804060284
2750+804141044+804237433+804612466+803792599+802441222+802879394+804501631
2737+804924921+803633445+802535121+803369060+805721251+807825745+808503768
2723+808314352+807844674+807033835+806478229+806767645+808508500+811113432
2710+811917048+810871214+811004777+813268922+815380514+815360900+814839603
2696+815436990+815128521+812658023+810545933+810864801+812215866+813047439
2683+813572162+813055472+811668665+812199365+814882442+816226783+813959773
2669+810611811+811065923+815509282+819840811+821728553+820908188+818500891
2656+816668939+816480209+817962470+820478485+821473322+819183273+816456734
2642+816015075+817534323+820004261+821380918+820957628+820532283+820881849
2629+821870646+822951723+822622456+820459618+818231151+817754872+818633706
2615+819128603+818781154+819215776+822004520+825078508+824884360+822487648
2602+821601280+823315423+825152979+825063252+824880313+825674962+826409150
2588+827388046+828276344+828209283+828373107+828951317+828132633+826555165
2575+826526273+828209843+830036316+829760225+826878579+824751109+826430133
2561+830121497+832255816+832459989+831914220+831140431+830368758+829677846
2548+829470560+829863463+830463279+830704812+830087810+829346773+829761346
2534+831235761+831767333+830269816+829403498+830923991+832299092+831962041
2521+831223246+830651076+830078906+830110787+831340121+832646042+832796043
2507+833211363+834708630+835294125+834126498+832989008+833347914+834479738
2494+835058819+835200289+835390390+835510565+835801537+836279933+836236160
2480+836130867+837473214+839484121+838904479+835686717+834143684+835902659
2467+837686042+837499491+837854474+839608157+839957598+839016186+839348442
2453+840777091+841417007+840608286+839283871+839243024+840877403+841726287
2440+841077778+841643721+843550206+843516457+841183133+839162824+837886977
2426+837593576+838608712+839361829+840379705+842197335+842896405+843102321
2413+844690498+846298414+846171452+845168956+843751203+841939800+841203557
2399+841792227+842137870+841642974+841609599+842885508+844324369+844845605
2386+844663786+844143547+843046405+841133818+838818613+836496248+834100595
2372+831810359+829392041+825479008+820818462+817729156+815193839+813092770
2359+814370796+818482336+823717729+829409974+833156381+834177557+833184339
2345+830908736+829816078+830313341+829835319+828786808+828242160+827634436
2332+828162272+830638000+833428051+835880803+837682618+837634423+836467917
2318+836809388+839592964+842684511+843938253+844000769+844350459+845114784
2305+846112983+847442318+848947805+850405284+851676274+852378768+852458034
2291+852946890+854028589+854661905+854970250+855182518+854875480+854207295
2278+853875662+854473361+855393727+856222623+857035952+856859052+856185325
2264+856100455+855860417+855210725+854447396+853750693+853584378+854422178
2251+856708677+858897356+858328735+855716892+854114704+854420061+855052629
2237+855040612+854859976+854961533+855580465+856428850+856591740+856115150
2224+856559113+858734217+860868038+860951849+859677621+858954143+859028490
2210+859000345+859123820+859515665+859575815+859996490+860518472+859889889
2197+858703706+858190628+859502402+862068791+863216680+862316240+861295313
2183+861338277+861472898+861090144+861355899+862959829+864667559+864311144
2170+862657711+862298369+863360703+865099628+866522300+866493720+865863580
2156+865669432+865312083+864633561+864708157+865405794+865768374+865849072
2143+865352867+864862516+866944532+870872011+872434160+870850217+868376606
2129+866366446+865215133+864570858+864412763+865353054+866872676+867839866
2116+868485511+868763968+867863839+866874170+867178655+868351201+869010108
2102+868305559+867323114+867325667+868237377+869395042+869729975+868653506
2089+867209975+866783634+867189676+867650948+868167701+869312725+870482718
2075+870044671+869098963+869643798+871310618+872790638+872275442+870168084
2062+869240433+869610298+870040126+870570515+871091252+871256944+871099160
2048+870808561+871112672+872523140+873915612+874054405+873250976+872009625
2035+870834215+870616903+871332847+872020024+872252590+872813926+873754839
2021+873504029+872310374+872221332+873230117+873596184+872895371+872605456
2008+873627441+874557147+874373709+874523150+875447002+875274025+873906770
1994+872925072+873226630+874567359+875192331+874887597+875039902+875765497
1981+877197322+878836122+878583506+877007595+876690097+877168617+876992029
1967+877004793+877894710+878564390+878250129+877547013+876923099+876658465
1954+878106604+881135387+882586016+881044975+878807417+877521981+878100253
1940+880845784+882917774+883050402+883241250+884260745+884766538+883965538
1927+882925869+882100086+881345101+881492175+881621628+881338065+882341121
1913+883809123+884192064+884050034+884351779+884537832+883907941+883735213
1900+884800847+884901283+882808932+880853442+880801699+881956997+883099842
1886+883985712+885401659+886728565+886760321+886231053+885617850+884525067
1873+884052462+884541879+883917094+883170266+885152219+887738657+888059954
1859+886314678+884715604+884326249+884874446+886110007+886451166+884575317
1846+882005939+882194420+885515109+887109638+886369223+887270349+889924160
1832+889898755+886318227+884497857+885721275+886781554+888398374+890606916
1819+891183880+890006726+888885736+888848003+889477333+890306914+891191476
1805+891638614+891549137+891701815+892765768+893813158+893301014+890136739
1792+887113187+889604109+893789684+895370825+895577364+895073501+893075421
1778+891360282+891418688+891910596+890912521+890772234+893806247+897280672
1765+898627877+897200971+894931159+894570634+895656256+896951405+896277056
1751+891454180+885555894+884549476+889174343+896393931+898773830+894715404
1738+892404558+890525159+884548853+884044056+889752366+894608990+896991941
1724+897080796+896448414+895482345+890704363+883148348+883184214+888797816
1711+893060913+893274737+890837427+889984559+890843094+887336351+880769133
1697+879873425+882784212+887313873+890446329+889911582+888195135+884659813
1684+877670674+879002562+886066482+890730889+890992098+889261828+887950302
1670+885013550+882760177+884929241+887061443+885960442+884653710+884801656
1657+884137768+879749141+871704456+871280356+871669897+868800892+871083157
1643+876341714+878832573+879314020+876636547+870952272+871610557+875737352
1630+876494953+874680249+874506711+876063319+878881888+881673372+881054377
1616+880445346+886261190+892415455+894958245+895382780+895856132+897946180
1603+901285923+904269997+906507866+907905943+909059809+911184664+913521288
1589+915162455+916471988+916923858+916018125+914878705+913347626+908849846
1576+905233825+910161932+915664201+915415320+913819173+914847011+916110093
1562+916640171+913652298+906429099+907381532+911896872+916092036+919523498
1549+921676248+921360431+916482760+908019144+900503914+905615957+918222246
1535+924079249+923275384+923860817+925788286+923832548+919337133+915780079
1522+914357034+917556053+921845925+926345263+931870197+932929044+927016063
1508+918388249+917978658+927531134+934986464+937799616+935500289+932770388
1495+935841698+940100810+938908152+933993370+934107505+936925888+938077575
1481+938898065+940445208+939721481+934584843+926765875+922722580+924618479
1468+925830254+924604967+924918419+926930571+926629884+922373574+920715222
1454+924251167+926259459+926697132+926463881+926687917+929172736+932149588
1441+932833091+930860852+928914640+931489809+935702407+937901298+939054479
1427+940360650+942931522+947407385+949061253+942687187+935675944+936905091
1414+940826592+942227595+940588858+938024150+934938082+931665463+930622183
1400+930370936+928742659+926748004+924278378+921636024+919273247+915909657
1387+913287601+914521356+916794904+917795469+919335576+920370762+918219444
1373+915830080+915203800+914105538+913489408+913380690+910842384+908814104
1360+911547555+914486611+914264630+912937973+912096188+912290834+913615000
1346+914744333+914537047+912671284+910537401+910081670+911269409+913919485
1333+917134943+918595349+919053508+921365786+924196746+924325701+921902899
1319+919873437+921622200+925990093+929154367+931099022+932940999+934939452
1306+938440653+943171560+946300779+947835967+949873711+950904538+951324963
1292+954496336+958627366+961173082+963241710+965604860+968300265+970452206
1279+971484217+972044431+971736771+970484585+970196913+972195366+975391708
1265+978354301+980472742+980902881+979956488+979098202+978028583+976229881
1252+975736666+978160713+982485454+986881180+989623659+989973599+988710579
1238+987408517+987729565+989693585+991605363+991692100+989569923+987798993
1225+988385484+989187044+989782689+992891919+997634097+1000528321+1000155716
1211+998721961+998902286+999379187+999032485+998785224+998285284+997392876
1198+996463419+996027925+996512299+997234344+999410009+1004154242+1007671258
1184+1007534520+1006635201+1006101138+1005228095+1004585440+1004028650
1173+1004077467+1006192421+1009796238+1011615425+1008551337+1004632389
1161+1006312347+1011259943+1013997441+1015188294+1017483822+1020475992
1150+1021626620+1019951456+1018338497+1018465521+1016811279+1013243266
1138+1011701540+1010970714+1010178058+1012236225+1016056044+1018940741
1126+1022183784+1025295816+1024411067+1022967038+1025807338+1026731751
1115+1022145552+1020046600+1024191079+1028446642+1028364698+1026269047
1103+1022683661+1016552560+1011906211+1012998246+1018712347+1024983922
1092+1028166690+1028529705+1032075800+1040328519+1045539566+1044798715
1080+1042167569+1040485120+1042116946+1044956873+1044041675+1040649006
1069+1039605352+1044316023+1054245711+1061485598+1060140261+1055991673
1057+1054758914+1054709350+1052060022+1046557628+1043167263+1045536203
1045+1050869107+1053610465+1052367993+1052259524+1056799273+1060157945
1034+1056644602+1052085053+1050555282+1047941446+1044570881+1044943797
1022+1049138837+1051910457+1051390653+1053993032+1059693933+1059975129
1011+1055855806+1053357039+1051018547+1049098612+1050819169+1052365129
999+1049757769+1047296611+1047789639+1048095867+1047513548+1046968465
988+1045723253+1045814785+1047503586+1046956011+1042796962+1036464676
976+1032347284+1034507132+1039313072+1041948078+1044410669+1046837206
964+1046786396+1046653145+1047320272+1047799976+1049524891+1051338723
953+1052861894+1056310105+1058842496+1057774247+1055872120+1054120679
941+1051561887+1050179315+1053600627+1060687088+1064343146+1061956833
930+1058334524+1056453817+1054733509+1051866995+1050417174+1052805480
918+1057066024+1059812364+1059627556+1057605877+1056922935+1058661549
907+1057990811+1052023907+1047205452+1049963623+1059491565+1070203574
895+1073741823+1067821619+1061228062+1058350962+1054762401+1050951423
883+1051469110+1054392287+1055614336+1054134503+1050070099+1045417274
872+1042434818+1043629033+1048235843+1048702969+1044481590+1044576547
860+1050009077+1051032370+1043687751+1038498871+1041877966+1043442793
849+1035520774+1027693587+1024625514+1020522879+1015967127+1014807969
837+1016313393+1017991172+1017997648+1015667873+1012062687+1011943571
826+1017243722+1020440251+1014345326+1005719941+1006077103+1012285914
814+1011339396+1000484174+988041522+981438313+981204688+984247854+987354345
800+985167410+976820794+969502139+966605301+966214701+968140925+969918767
787+966278524+957737884+950146813+948381922+951672537+954468130+953909223
773+952700063+954511218+955485382+948903345+940760527+939058775+939844894
760+937355840+934303833+933677055+931146220+925712445+923180801+923055396
746+920516716+916968192+915394212+916538863+919559550+919301516+915582382
733+914153670+915523976+918345908+920778859+920370451+916749885+911523831
719+909595927+911195685+911808329+911066295+909504519+908240254+910208196
706+912955034+910560626+904914708+903775723+907913602+905715148+892351632
692+883560430+888263629+894912479+894832341+894155875+893471251+889824595
679+888557528+889699128+887413998+884201031+882536078+880816082+884370895
665+889828145+885243128+877240784+878329146+883073379+880587190+876275524
652+875989159+879325104+882923067+880583391+880712595+889747011+896941567
638+897581172+894306996+894352887+899876077+895306192+881983523+887210759
625+902777898+877397510+838998938+849508766+899486848+919958182+896444118
611+876883684+869992928+884523137+936690706+962830313+908103453+858769024
##END=
