##TITLE=Sample description
##JCAMP-DX=4.24
##DATA TYPE=INFRARED SPECTRUM
##DATE=25/8/2023
##SAMPLING PROCEDURE=Instrument type and / or accessory
##ORIGIN=Default
##XUNITS=1/CM
##YUNITS=ABSORBANCE
##RESOLUTION=4
##FIRSTX=4397.6552
##LASTX=599.8556
##DELTAX=-1.9287962
##MAXY=1.928954
##MINY=0.61841631
##XFACTOR=1
##YFACTOR=1.7964784e-009
##NPOINTS=1970
##FIRSTY=0.73423547
##XYDATA=(X++(Y..Y))
4398+408708204+410270750+411047030+410477851+408596658+407147980+406994264
4384+407132917+406688822+405899138+405417086+405494425+406266226+407338226
4371+407388525+406074221+404965127+405225911+406414833+407749011+408327878
4357+407824326+407135571+406806141+406996553+407622268+407731758+407105943
4344+406832618+407319414+407631658+407171338+406466691+406006968+405804910
4330+406028269+406365264+405789814+404732810+404752386+405902223+407152260
4317+407807438+407834512+407481458+406765265+406322497+406945591+407619050
4303+406857667+405674286+405906072+406743998+406733314+406464634+406599571
4290+406840879+406878902+406907502+406967422+406554614+406553785+407705149
4276+408484713+408003457+406725086+405492534+405354644+406192702+407052293
4263+407526250+407620974+407318883+407003487+407078471+407436468+407924326
4249+408093272+407586635+406820076+406497779+406706274+406781158+406435038
4236+405670006+404673620+404172755+404530155+405609422+406822100+407337430
4222+407347881+407719780+408119649+407429003+406212576+406133279+407281690
4209+408350406+408350307+407567590+407189686+407498280+407821639+407770610
4195+407251099+406553818+405988687+405648009+405677571+406001593+406455576
4182+406777574+406861583+406897017+407042870+407318883+407460821+407627212
4168+408061387+408391415+408202828+407301531+406271269+405948010+406428038
4155+407083614+406850899+405743364+404928365+404843394+405211445+406061713
4141+407363243+408444932+408634813+407911387+406916161+406604117+406942903
4128+406983348+406832750+406929599+406877973+406846088+407145824+407449242
4114+407600238+407540550+407249507+406779565+406284142+406169742+406520639
4101+406863938+406679498+406317719+406528536+406739452+406399803+406391276
4087+406949108+407549143+407972535+407659992+406782750+406398409+406602955
4074+407113740+407747319+407848746+407453389+407143700+406722432+406188223
4060+406122596+406583579+407392805+408300008+408572139+407911486+407016560
4047+406507633+406316956+406403486+406741244+406689352+406183976+406100233
4033+406549870+407012943+407091709+406756871+406715066+407027841+406822365
4020+406044924+405487391+405788022+406635338+407006009+406807634+406671635
4006+406621535+406556505+406574057+406598742+406620739+406718915+406933381
3993+407372234+407981858+408280598+407849475+407198677+407267821+407964771
3979+408586107+408830036+408677083+408572935+408496126+407759960+407010919
3966+407274523+407830033+407577212+406937495+406856772+407128803+407066792
3952+406887429+406907104+406634409+406164600+405946683+405971600+406492802
3939+407260522+407501366+406850501+405689648+405056600+405253449+405770073
3925+406007101+405504777+404769174+404594854+405184802+405915959+406497381
3912+407299706+408080664+407937598+406222662+403998767+403691666+405203648
3898+406997980+408199676+408341216+407582686+407410556+407931427+407395227
3885+406116358+405633709+405778268+406592537+407005611+406126743+405045154
3871+403994553+403274942+403936590+404433506+404801357+406149669+406724223
3858+405667053+403405467+400247959+400790230+404593427+407005976+406796553
3844+405470238+404534933+403341432+402439837+403609814+404993163+405084935
3831+405015923+405548407+406250897+406441840+404745982+402122517+402601118
3817+404248933+405521532+407250535+408378011+408016497+406478735+405437789
3804+404753680+403529455+403754473+404831716+405849502+407506243+408911257
3790+409590556+409764544+409205883+408677846+408765105+408752033+409197456
3777+410483757+411097528+410176921+408491183+407778672+408014274+408592975
3763+409634285+409913815+409024429+408789658+409173766+408311753+406379298
3750+407627179+411503402+414481679+416998907+420455288+423873547+425944489
3736+425542430+424274510+425694919+428456971+429743704+428683050+426394623
3723+424528824+423299590+422548360+422294544+422053601+421525397+423200718
3709+428525187+434001614+438181222+442271215+448765296+457717215+466342557
3696+473256613+478339675+481245888+482131923+483450838+485196995+484660862
3682+480976677+475306586+468571263+459065162+450709065+447671397+444018898
3669+440289623+440097485+440473996+439243734+436761742+433775535+430135776
3655+427473359+426388750+423491727+418276150+418069912+422060933+425118175
3642+426197674+426337854+426188982+425284832+423796373+421980475+418322965
3628+414055235+412921721+412103304+409372473+404603580+399662423+396766694
3615+394586860+392832441+392426866+392362599+392331113+393067645+393621760
3601+392698101+390714386+388947028+387498085+386236137+385196220+383107162
3588+379359971+376644136+375690451+374989984+373982781+372449764+370451483
3574+368785452+368210102+368046465+366641285+363910520+362428067+362624916
3561+362732713+361753845+360544352+359473910+358055625+356922509+356649814
3547+356555122+355840787+354857871+354163741+353572200+352994196+352414167
3534+351972460+351637124+350915722+350451487+350960944+351003612+349694882
3520+348410173+348195641+348635987+348577194+347688107+347025995+347133262
3507+347490429+347696070+347506355+346896167+346316239+346374235+347075498
3493+347321451+346300047+344925425+344535642+344946858+345266069+345282725
3480+344990422+344535012+344492278+344843109+345255452+345686044+345780371
3466+345721578+346051307+346412589+346282994+345597656+344724993+344244699
3453+344238097+344662351+345453429+345945036+345855089+345719521+345874631
3439+346104659+346166902+346133259+345993378+346210830+347042850+347732799
3426+348291958+349020195+349509745+349628525+349694948+350199927+351108622
3412+351944458+352797081+353775386+354311021+354398779+354977380+356160032
3399+357284720+358258943+359188939+359947668+360994386+362991008+365165766
3385+366529606+367584719+368885718+370396041+372518808+375447981+378139927
3372+380098427+382170132+384396782+386388294+388662455+391675039+395439019
3358+399751010+403807260+407115001+410402105+414094186+417786567+421524435
3345+425510214+429198281+432346499+435304869+437881453+440670978+444431938
3331+447759885+449870641+451675889+453337905+455209543+457738383+459791508
3318+460885141+462073300+463332163+464211860+465461931+466905432+467089042
3304+465966212+464865081+464502239+464139796+462919753+461129468+459256603
3291+457261374+454980146+452706317+450510126+448135367+446010543+443994312
3277+441376819+438551927+436489677+435597106+435289674+434597137+432990430
3264+430856979+429521706+429510392+429537068+428707735+427512144+426219473
3250+424978162+424054768+423417440+423034393+422718599+422156056+421258011
3237+420479010+420107775+419608636+418702860+417581556+416368414+415341967
3223+414793790+414504008+414279522+414182276+413946342+413612300+413269565
3210+412596670+412048526+412398196+413260408+413582937+413198298+412914952
3196+412839405+412359874+411893815+411895407+411831571+411527191+411177522
3183+410935451+411127256+411897365+412857752+413271456+412555661+411467868
3169+411709872+412887746+413088709+412334460+412494248+414047040+415214760
3156+415065755+414367810+414206595+414787287+414891269+414182110+414846777
3142+418018518+419953727+417872665+415299499+415715326+417624655+417798577
3129+416375215+416242634+418854586+421473838+420697259+418560424+419050937
3115+421952074+422974672+420568327+418911089+420972741+424231212+423996905
3102+420701108+419373897+422116441+425437951+424545845+421047592+420247391
3088+423402311+426108524+424427762+421378250+420997127+423132005+424658818
3075+423362596+421330241+421653898+424206859+425005800+422652740+420766171
3061+421331402+423305263+423943387+422216872+420479010+420406515+421353499
3047+421549153+420828215+420546794+420916470+421094440+420705985+420392447
3034+420705189+421525264+422425267+422715281+422396701+422382931+424373581
3020+432843747+448864832+460790085+458181649+447942964+439563575+434500421
3007+431112255+428669746+427557201+427647480+427660254+427135800+427010583
2993+427823625+429768555+431894938+432197229+431184352+431057112+432659672
2980+434898863+435553477+434540501+433842987+434535391+436383506+437294524
2966+435939642+434452577+434837482+437191305+439240117+438127041+435512236
2953+434585458+436112768+438752060+439427477+437800564+436448038+436546114
2939+438029430+439120873+438096019+436479060+436263598+438045322+440433784
2926+440358170+438002356+436453413+437130422+439108531+439459461+437097443
2912+434925439+434959546+436512637+437616589+437022492+436016915+436157327
2899+437595819+439371272+439884180+439033580+438247878+438511017+439745029
2885+440502065+439692441+438707966+439057535+440143073+440803692+440864376
2872+440850839+440954522+440987435+440899047+440669451+440522072+440723201
2858+440978676+441135544+441288531+440909631+439972004+439549441+439957638
2845+440602663+441062419+441082293+440937534+441299745+442199118+443100448
2831+443757782+444364055+444977129+445361138+445597768+445849925+445795579
2818+445521391+445706362+446366815+446997938+447438251+447702851+447884006
2804+448151857+448512674+448866889+449127805+449306074+449368948+449259591
2791+449283181+449667057+450134212+450507339+450831095+450960260+450918786
2777+451107672+451591383+451922472+451945830+452183522+452946430+453551608
2764+453368993+452958275+453157247+453918066+454537975+454615580+454624936
2750+455065083+455653440+456195512+456908155+457519238+457618276+457525575
2737+457624182+457806930+457972624+458189678+458572858+459116821+459717288
2723+460312412+460619845+460492672+460330627+460362147+460542605+460965168
2710+461451467+461819550+462277415+462648849+462760031+463146595+463840260
2696+464077786+463739762+463494473+463796000+464539300+465239733+465452873
2683+465371486+465584592+466082271+466467408+466716546+466842194+466947469
2669+467289474+467546642+467358950+467167808+467353410+467639708+467993425
2656+468587720+469014430+469104709+469212573+469332049+469311909+469292798
2642+469569873+470156902+470762113+471278372+471616130+471703523+471703755
2629+471711485+471783948+471924160+472039323+472280001+472799810+473471079
2615+474098520+474409404+474428614+474586279+474836147+474964283+475138238
2602+475395737+475856455+476422748+476482436+476197763+476307319+476882636
2588+477542625+478023748+478358188+478547174+478497671+478581912+479069040
2575+479463268+479332544+478950625+478967016+479485863+479840343+479791073
2561+479779261+480037755+480319110+480285600+480137358+480261678+480475016
2548+480511845+480522661+480713504+481058727+481306273+481341774+481525185
2534+482022035+482409561+482527013+482665468+482923597+483098880+483147851
2521+483392079+483903063+484344172+484604492+484806118+485056782+485357248
2507+485482862+485341422+485257679+485567335+486170887+486771652+487189271
2494+487252410+487154533+487271620+487444082+487511700+487584096+487697268
2480+487933832+488263295+488484895+488560642+488670098+488996708+489578960
2467+490080852+490088716+489914296+489926240+489986492+490236460+490639646
2453+490587257+490111344+490047541+490723655+491518514+491857832+491912975
2440+491961781+491944528+492041177+492480462+492891213+493028240+493231758
2426+493546291+493678740+493679371+493827148+494294966+494888067+495124929
2413+494955950+494870781+495168493+495627917+496005157+496350248+496694310
2399+497045174+497627691+499017708+502275416+508756856+519704402+535740218
2386+556336068+579766234+603994975+627829223+650814099+673080260+695466660
2372+718190951+741008274+763577688+784276159+800601492+809651022+812116724
2359+811911282+805846233+788898138+766517909+746973588+737055707+741642384
2345+756073550+762920552+755749528+745308686+738180595+735460480+737475682
2332+741846432+742570257+738371173+735042894+735518211+735786360+731225364
2318+721057051+709227154+703837953+707158136+710433395+705056471+690787614
2305+673212244+659473582+651371101+644604524+636200583+626455961+615318899
2291+603381702+592711729+583533863+574855602+567184841+560944012+555648375
2278+551201945+547578709+544349966+541202179+538235946+535743967+533950564
2264+532746048+531582209+530055529+528403765+527103728+526223732+525386337
2251+524351496+523397180+522934339+522877106+522739248+522338252+521854375
2237+521376869+520990537+520908918+521181347+521516683+521612636+521538581
2224+521513929+521678893+522125278+522740874+523255308+523571169+523777208
2210+523975915+524336334+524858399+525279966+525570180+525844567+526162650
2197+526525491+526730303+526876554+527231167+527644838+528082331+528572412
2183+528908113+529043581+529063688+529271585+529850850+530301150+530449060
2170+530760939+531210376+531379720+531087516+530545942+530267805+530374541
2156+530473480+530353771+530184859+530150917+530261568+530455563+530674210
2143+530874476+530999526+531193654+531640537+532134666+532572988+533077237
2129+533731917+534698941+535693403+535957372+535523562+535370907+535906045
2116+536575522+536880633+536931695+536987800+537040487+537296626+537778280
2102+538113782+538438435+538882364+539215013+539378019+539387840+539288470
2089+539187674+539222810+539541955+540070523+540510704+540774971+541167939
2075+542008220+543079259+543890243+544383344+544798474+545379199+546102360
2062+546644200+546883849+547128342+547854190+548866271+549503399+549829346
2048+550364318+551206822+552174177+553174745+554067216+554656965+554797211
2035+554726076+555074585+555780658+556210653+556293102+556424257+556650568
2021+556649506+556510289+556508763+556494894+556457800+556702393+557020775
2008+556980496+556862513+557008897+557085805+556796289+556561119+556725087
1994+556876979+556919647+557179501+557358002+557294897+557479635+557989126
1981+558389127+558564443+558690389+558988001+559537903+559956020+560028482
1967+560050977+560200015+560502737+560998292+561538175+561888806+562058747
1954+562302742+562733401+563143621+563378990+563533868+563726768+564241899
1940+565128099+565821731+566231023+566681124+567171503+567638525+568057306
1927+568279403+568368654+568664341+569100839+569406945+569786243+570269721
1913+570521281+570472509+570675562+571630509+572781740+573551815+573965420
1900+574107490+574178360+574351751+574523484+574488646+574297670+574480882
1886+575176306+575808889+576177371+576577306+577047778+577380294+577556605
1873+577449372+576637226+575628530+576359919+578449375+579812153+580194702
1859+580458605+580657411+580576389+580544272+580699614+580852700+580838434
1846+580439892+580171079+580882296+581811894+582292386+582578850+582765447
1832+582107847+580796960+580967830+582442752+583536053+584239440+584707457
1819+584977265+585311507+585501155+585163795+584838313+585396046+586109917
1805+586287621+586471630+586669507+586664663+586734006+586342963+585212767
1792+585121327+587021598+588579400+589061817+589430166+589699510+589707472
1778+589869649+589535806+588055842+586716023+587996120+590608603+592452073
1765+593194809+592944709+592887243+593668666+594146371+594292291+594113193
1751+592623407+590736009+590896992+592201574+592862758+592852008+593021949
1738+593264551+592479478+591412587+592803899+595006029+596426538+597218179
1724+597544922+597440741+596353279+593542587+591402567+593320689+596227400
1711+597787723+597833908+596866685+596223883+596226537+594639538+591673238
1697+591468925+594116378+596892564+597785932+597103713+595847040+593569196
1684+591587107+593445507+595986855+597108159+596493293+595037814+593497663
1670+591850943+592567203+594875704+595498665+594809015+595113594+595939144
1657+595391896+591913252+587344824+588380793+589496987+589333948+591772973
1643+595089307+596655138+596359650+594185390+592766805+596311541+600754753
1630+603598027+605439638+607007792+608597777+611313180+614170057+615254931
1616+616849030+621172268+624649121+626094248+627075538+628698038+630577142
1603+632490419+634420883+636005493+637194548+638486390+640233310+642029201
1589+643588662+645266371+647116211+648636322+649301420+648693057+646882169
1576+647004067+650762871+653426051+654154388+655723935+657879151+658891231
1562+658408880+655443244+653779337+659537484+665437900+670484100+674770842
1549+677803035+679069860+677895139+674170509+671328562+677838071+686929208
1535+692048268+695672035+699956521+703552883+705757667+707269152+708516800
1522+710653104+714567250+719586642+726829531+734652581+740034084+742235816
1508+741346033+744236486+754823115+763105423+767508158+769458197+772475194
1495+778568710+784574700+788465422+791674125+797805067+805116237+810609021
1481+815408306+820813035+824747420+826030702+828375964+835784813+843595587
1468+848214181+850598927+854072793+859720853+863138514+861618603+863154374
1454+871524473+879221909+884651853+887995128+891740992+896939416+901532396
1441+904150188+903866378+903110968+907617153+913537808+916028194+917496215
1427+919389054+919314004+917794092+915490369+910456843+905905535+906077798
1414+907208127+906838717+906649731+906289146+902768498+898469878+896310217
1400+892738540+886674553+880450844+875389979+874254939+875508692+874745452
1387+871835887+870783263+871957719+873072985+873051087+871054067+867822869
1373+866550668+867117691+867212847+867907076+869578083+869351142+867489291
1360+868395664+871487711+872869467+871711666+869824733+868922607+870146167
1346+872067739+872952878+872578424+870543249+869007013+870175165+872823813
1333+875862841+878652099+881067369+882393319+881867902+880464580+878825955
1319+878458867+881248591+884932544+887297514+889388762+891683394+894918772
1306+899671541+904346008+908421800+912052933+914737480+917451689+920559728
1292+922510099+924347995+928174748+931420014+932345763+934111661+937539409
1279+940059589+940824157+941481956+943582427+946195508+947739109+948898701
1265+949776607+949685830+949652585+949855572+950063403+951346154+953638331
1252+954809868+953897257+953719751+955883793+957336219+956179679+954978083
1238+955792817+958019499+960328332+960899535+959363100+957593221+957180811
1225+957747501+957638609+957516379+958358983+958495480+956936815+955121680
1211+955268330+956411863+955806951+954281332+954020416+955494143+957177294
1198+957642789+957424076+956139268+953498516+951934145+953581264+956945906
1184+957839140+955404362+953014573+952238858+952949941+955168528+957747501
1171+959902186+961528667+961202455+958063096+955166405+956777359+962060321
1157+966008243+966567568+966001409+966114415+966544609+966861863+967392587
1144+968470494+970057692+971767916+973196720+974913580+977986051+981466885
1130+983189982+983185205+983541344+984533782+984779171+985626022+987814283
1117+988861599+988589269+988117868+987039032+986641751+988301345+989391262
1103+987689333+986411956+989603738+996766733+1003802521+1008538900+1011466182
1090+1011919866+1010910042+1010227691+1009431139+1009862925+1012448865
1078+1016317889+1021312728+1024963171+1026292837+1028502996+1032362265
1067+1036452590+1040503034+1044210477+1046142666+1047673328+1049413081
1055+1045727336+1039978944+1041919826+1047207699+1047876912+1045898737
1043+1044866153+1046362242+1049593706+1051130804+1048587797+1042638807
1032+1037568983+1038316365+1045094222+1053282768+1056638983+1052334457
1020+1047999805+1050386143+1052808579+1050486940+1047927609+1047082882
1009+1046787260+1045229657+1042862961+1043022351+1046005307+1048978773
997+1050471810+1051525430+1052880179+1053543751+1052964983+1052019990
986+1050807843+1048959463+1047819447+1047911550+1049045728+1052886151
974+1058710788+1061429376+1060613514+1060967198+1060992613+1058733084
962+1058118616+1059002826+1058592207+1058844829+1062044972+1064756858
951+1062874238+1060482525+1062931836+1066559850+1065675441+1062238204
939+1061066203+1063425932+1066271262+1066750959+1066866287+1068545058
928+1071023765+1071916469+1068472729+1063919032+1065189441+1070922637
916+1073741823+1073618465+1072534918+1068776579+1065283336+1066214859
905+1069714803+1071617994+1072099947+1072062057+1070318720+1068597215
893+1067699137+1066186391+1065120031+1065098266+1063413523+1059787035
881+1059403690+1061983591+1061706550+1059640452+1058113108+1055875278
870+1054876005+1055620665+1053516213+1048783949+1046166754+1043422552
858+1039067727+1039497589+1041273374+1036529299+1031781839+1030144873
847+1027108765+1023992498+1020885388+1017328575+1015030692+1012414758
835+1010296238+1009718465+1007633588+1003624485+997754593+991789146+989257884
822+986046726+980952484+979894418+981269538+981575644+983078502+984659396
808+982843067+978401514+971978799+964494967+960086062+960237688+961975185
795+960146380+951604018+942998683+943114675+949089744+951604284+947599560
781+941046719+937475109+937989311+937142991+930687895+921775060+915818572
768+915215650+918903983+922100874+920754420+917474582+914971257+910757707
754+905933007+905112500+906645750+905827300+902466042+901158009+904905466
741+907233940+902480242+897446318+896998872+897874123+899870878+903271486
727+902058609+896314065+895514395+901113350+903975934+900645731+895790905
714+891985585+891803102+896347045+899381295+897117917+893612464+891638338
700+892238804+895336956+895828795+890666470+886006270+886282382+887670774
687+886682450+883428823+879095896+876524422+878640951+885420734+893457587
673+901125162+908899241+910380068+897563505+885946216+880755490+873247570
660+865981854+863652451+861383167+859466705+864156301+873700657+877632322
646+869046960+854882284+847528711+847362686+847222871+848668197+848595934
633+840161270+838585220+851349228+863949798+868421610+860786749+841361340
619+826295069+822103682+825074096+829190499+817405857+795946600+796279581
606+823624390+848595536+848659903+837037969
##END=
