##TITLE=Sample description
##JCAMP-DX=4.24
##DATA TYPE=INFRARED SPECTRUM
##DATE=25/8/2023
##SAMPLING PROCEDURE=Instrument type and / or accessory
##ORIGIN=Default
##XUNITS=1/CM
##YUNITS=ABSORBANCE
##RESOLUTION=4
##FIRSTX=4397.6552
##LASTX=599.8556
##DELTAX=-1.9287962
##MAXY=2.0886192
##MINY=1.2975507
##XFACTOR=1
##YFACTOR=1.9451782e-009
##NPOINTS=1970
##FIRSTY=1.3754966
##XYDATA=(X++(Y..Y))
4398+707131406+712880199+713025995+707773300+704977746+708086464+715350026
4384+721766637+721760263+717119984+713573940+711965406+710167808+706776324
4371+703623604+704333523+708534883+712457643+713132324+710718450+708561112
4357+709367800+712344328+714466917+712898585+708188870+705202721+706784536
4344+709922977+710745966+709241125+708110365+707498868+704670037+701859590
4330+703157167+706083625+708256528+711353296+715044155+717791295+718411739
4317+715806106+712347208+711648748+712959502+713562296+713282655+713065708
4303+713499847+713541459+711544381+711179554+715695426+719521908+719333152
4290+718403404+714838607+707625604+703747031+706004629+710007856+713296199
4276+715490981+716486302+718365408+720572263+720274543+718173587+715977273
4263+713400321+710625910+710881283+714659411+717093019+716917439+715755362
4249+714166561+713711585+713736834+713407430+715196080+717797546+715682004
4236+710378627+708997703+712599026+716568424+717978580+717664620+717318485
4222+716529630+713944344+711464098+712356094+715066708+715546750+714136164
4209+713303982+713701657+716263594+720749007+722702635+720142352+717673383
4195+717411821+717957069+719903036+720731787+717469061+714433578+714729888
4182+715569547+715195589+714780571+714604439+714388166+715326554+718414129
4168+722823427+725807860+725302446+722452594+719666294+718067381+718100107
4155+719750131+720284287+718706517+718004503+717668419+715816463+714635878
4141+715719449+717837442+719341302+719014472+717597268+715589710+712779019
4128+713084767+718615633+724465974+726054591+724339176+722390881+720394415
4114+718834602+719486118+720589545+720200266+719373354+719095306+719088933
4101+718967589+717926427+716612855+717949163+721345490+723160369+722530609
4087+721439194+721500356+722495003+723883894+725192625+725720223+725227986
4074+724449366+724080801+722803325+720037617+718258283+718925364+720717446
4060+721996515+721501704+720396131+721316808+723455025+725162779+725526196
4047+722669603+717585379+714930105+717888921+723979865+727241611+725728619
4033+723693728+723703840+723163923+721872169+722135998+723095591+722599677
4020+720079229+718117022+720096266+724347879+725895558+724250682+722887163
4006+723097614+723874333+724294806+724401319+724448692+724189397+723777259
3993+723294643+723120289+724295235+725516574+724952083+725348103+728967566
3979+732658610+733472407+731065641+726556266+722184352+720090873+721071364
3966+722124109+721359401+721673729+724143434+726834682+726971959+723205107
3952+719652628+720083458+723182554+726960499+729310331+728029362+725533060
3939+724758669+725312497+725955433+725367714+724608890+724477925+722246740
3925+719375131+720861342+724256259+724202451+722357910+724268209+729128377
3912+731711703+731501681+730640511+728413370+725286512+723086460+723139042
3898+727065418+731525030+732392206+728554264+724308473+723859503+724436496
3885+725484645+727794029+728434881+730209007+734903277+736244060+732406056
3871+727383362+723960009+724101638+724427733+724100412+725516636+727162370
3858+728673217+728129807+722037085+722248088+729120900+733064497+732918149
3844+730844159+729933717+728108174+723051405+722438315+725444749+727107459
3831+730876088+736538838+739924623+741902090+741262158+734305631+728398785
3817+724114507+721662392+727270966+734920621+737019922+730858071+723470530
3804+720925323+719678122+721341138+726313702+730281016+732044723+733095323
3790+735443807+739418352+742049296+741073279+738258420+735190885+733679671
3777+735682081+738514834+739429138+738432652+737162960+736181366+734514611
3763+733955083+735511587+736705287+737001046+738097364+738096506+733037593
3750+727044887+726875497+728214012+729490630+733298726+737221915+738413654
3736+733587683+725541333+726052017+733308041+739233763+740749697+738673929
3723+735568827+733927383+735324792+737435982+736851021+733623105+732108949
3709+734335721+736378824+737199546+737560757+738846200+740890038+741561471
3696+741712537+742960535+743368935+740514487+738184450+738499023+739788817
3682+741372470+740474713+735128253+727315152+725216158+729097796+731775071
3669+735370572+741191619+744409362+743446276+740511361+737527051+733115302
3655+728931163+727490855+723670195+715424364+715363386+723051466+728720161
3642+729095038+726134506+723247454+720468570+716759386+713214813+709534494
3628+707141396+708321735+709256140+708550081+706165195+703847598+703680659
3615+702551247+700485898+700013272+699866005+698873441+697608652+696962958
3601+696764580+695328317+692693941+690991886+692360308+695306193+694522670
3588+689582159+688638806+690910684+690629327+688682502+687409929+685358247
3574+682325338+681363600+682508578+681502777+676625082+673987519+674935223
3561+676182117+676680973+676498713+675991216+676495955+677483433+675948072
3547+671901885+669892305+670926419+671178299+670535056+671130987+672251697
3534+672001043+670363399+669447869+670998306+672325606+671048743+669498368
3520+669670026+671440045+672953037+672565719+671659688+670602960+669097812
3507+669138321+669706735+668601653+668111254+669322175+670554545+671312205
3493+671052482+669489604+668361295+669263464+670244752+668580755+667060041
3480+669148004+672069559+673297823+673793492+674278866+675693251+676888115
3466+674276169+669781257+669116136+672469379+675325053+675945866+675614929
3453+674877064+673590334+671667839+671299519+674925233+678586247+677702586
3439+675268488+674832449+675241278+676069047+677371037+677495506+677451319
3426+678396939+678926621+679403721+680745791+681307647+679459184+677199318
3412+677901761+680919410+683127858+683723605+684018016+684982205+686764113
3399+688947987+690899959+692566101+693365006+692113331+689933012+689659438
3385+691619317+693014826+692658763+692194595+693377324+697050350+701614268
3372+704801247+707543238+710930555+714178389+717631158+721576103+725379052
3358+728932941+731458107+732617120+732608295+731405280+731654953+735920784
3345+742184796+746549049+748285423+749725609+751577566+753180769+755787137
3331+760024409+763648714+764454605+762112127+759735147+762106980+768000649
3318+771783987+772061361+771059972+770383697+771382390+773593535+773084444
3304+771069410+773560993+777700026+776792463+773181580+770409314+767944574
3291+767469068+770476543+773911908+774253017+771788767+769394382+767722173
3277+765356652+762364865+759132046+755922699+754714597+756963739+759370749
3264+758192493+756887868+759149818+761170123+759887806+757924373+755784625
3250+752498366+749743566+748664591+750493504+754958264+756126960+751191044
3237+746359803+746783095+750434365+751856656+749674866+747777804+747657502
3223+747859680+747757396+746988827+745560040+745066822+747388341+750541613
3210+751245588+749453261+745912058+744117464+747282748+751754678+753269018
3196+751889075+750778784+752601446+753838045+751073501+746991646+744215948
3183+743321991+744150067+746035669+748556424+751437837+753647144+754104633
3169+753684282+752909585+751550968+750646838+750757211+751681198+752724383
3156+752909033+751941412+750327975+750262768+752899228+755763604+756785401
3142+756164098+754222728+752397982+752323153+752905724+752774514+753153681
3129+755129064+757575848+759526412+760477670+759971153+759045757+757437774
3115+754990439+754392731+755818331+757135029+757838330+757964269+758122016
3102+759210674+760302948+760124119+760347992+762820086+765864394+767421878
3088+767150572+765915444+765455565+766330647+767315979+766801618+765802251
3075+766524489+767581954+767006921+765760946+764962286+763473992+760817737
3061+759767750+761280619+762989967+763052416+762192349+763083242+766111064
3047+769590492+771516419+769404494+765245788+763567818+764231897+764049208
3034+762525553+762127632+763880247+766968741+770190467+772532148+773990168
3020+774217595+773476726+772776428+772058909+771186524+770256838+769814180
3007+769563466+769060136+770262170+773020341+774214347+774220843+776474826
2993+780408862+781306006+778758348+777037050+777928801+779671793+780867270
2980+782653469+785402998+787457684+788267313+787774218+786286292+785806250
2966+787238530+789454701+790770295+790234546+789137492+788471513+787328251
2953+785977356+785893580+786674345+787458480+789295606+791523911+791756240
2939+790584480+790194159+791035780+792123580+792887307+793314399+793597717
2926+793902056+792984811+790905673+790189992+790475823+788921709+786382692
2912+785672405+786737284+788495169+790440768+791673016+792221880+793295952
2899+794272521+793407796+791685028+790917929+790641169+789962381+790175039
2885+792380239+794195793+793663659+792887368+794422116+797103191+797519619
2872+794896091+791451350+790064114+791718550+794191870+795445445+795916539
2858+796332232+795693647+793941155+793537291+794159819+792795135+790779549
2845+791082969+792569118+793569158+793713974+793533736+794478375+795606378
2831+795530937+795382935+795826880+796387327+796617450+796476312+796346940
2818+796315991+796779793+798981622+802451367+804979843+806509260+807083495
2804+804833741+800831311+798732378+799105294+799303795+798641984+799309249
2791+801940377+805244102+808061167+808724511+807515122+806867651+806410959
2777+805648274+806238076+807957474+809098224+808667455+807543558+807525418
2764+808040453+807310861+806352310+807562863+809638324+809627415+808902113
2750+809496205+810231558+811352390+813358968+812975020+809045764+805718322
2737+806280484+809503253+812703836+815074444+816015590+814834637+813207901
2723+812826712+812548603+812048582+812636117+813488339+813371776+812730863
2710+812266939+812144002+812854596+815072176+816786426+816012525+815255233
2696+816768409+818662345+819142080+819059652+819162672+819159730+818558835
2683+817823728+818232924+819992525+822455121+824383499+824263075+821899515
2669+818950076+817532872+818145410+819845013+821361376+822027048+821987704
2656+821716213+822386482+823802154+823879618+822375880+820927175+820908361
2642+822208941+823221851+823379597+823302624+823423661+823419739+822797885
2629+823467050+826451422+828281316+826922639+825176704+825300438+826273390
2615+826910749+827828546+829222830+829356062+828390464+828852549+830032398
2602+829867420+828998406+829199419+830923291+831496853+829418511+827285075
2588+826992442+828306872+830425048+832011214+831465169+829596420+829384805
2575+830700338+831679726+832599974+832720459+831012644+829646490+830510050
2561+832172453+832581098+832007782+831530437+831145999+831071722+832000366
2548+833428050+834694372+836352976+837728752+837527248+836141115+834478896
2534+833239417+832375734+832219458+833385948+834698907+834855734+833915752
2521+833042019+833371668+834968130+837029250+838240110+837769016+836036932
2507+834872771+834809403+834582344+835092660+837329361+839668835+841435361
2494+843105180+843689896+843555438+844269647+844479485+843312935+841971723
2480+840168488+838012744+837470928+839041098+840777901+841431746+841528575
2467+841758944+842222683+842411746+842383065+842674963+843070493+843403758
2453+843620522+843208077+842483204+842346172+842713817+843176086+843936566
2440+845013090+845771914+846096477+845830686+844276695+842785643+843384454
2426+844790320+844110614+841932195+841900695+844558849+846823924+847340798
2413+847239004+846982774+845757819+844273876+844700906+846662317+848094720
2399+848144850+846634065+844632697+843971437+845065549+846902307+847682459
2386+846502610+844666158+844167976+845305723+845162685+840849665+834955199
2372+831760254+830607186+829306361+827715109+824874204+821157482+819439433
2359+820138627+821950810+824582122+828168736+832497445+835868154+835659787
2345+831470010+828439614+830486639+833318045+833486087+833264482+833143568
2332+832859024+835555419+839527023+839183523+836736556+836452992+837512050
2318+839489823+842565386+844945186+845683787+846016623+847292996+848936217
2305+850037806+851278266+852452109+853028552+854317671+856053003+856333196
2291+855963160+856922263+858405838+858751605+858602010+858637064+858483118
2278+858267396+857127076+854123461+851904778+853516376+856936910+858740268
2264+859553574+860549815+860829456+859783575+858168728+857478358+857848578
2251+858359384+859313645+860989286+862747600+864119331+864293870+862690483
2237+861101069+861359629+861873377+861031328+859716223+858434703+857726499
2224+858750441+861115287+863106789+863318649+862182496+861518723+861467551
2210+861085135+860893315+861445550+862387431+863068302+862861712+862112202
2197+861442976+861466938+862408084+863021297+863233709+864135449+865028671
2183+865397726+865843387+866304859+866951350+868262838+869513471+869623906
2170+869254605+869640146+869798199+868942054+868553082+868471451+867238774
2156+866021173+866583091+868012613+868743799+869157531+869136939+867420666
2143+865189788+864818159+866241736+867463811+867212606+866516230+866854214
2129+867781693+868240960+868693791+870146050+871684720+871292928+869494473
2116+868950512+870159961+870773664+869443484+867794625+867910330+869452493
2102+870877787+871667131+871559087+871351148+872013756+871935557+870551569
2089+869969612+871109013+872554347+873006075+873194157+873070853+871683372
2075+870400871+870815277+872388511+873550220+873855172+874384119+875096122
2062+873925465+870383037+868191564+870137654+873366980+874750293+874619328
2048+873616653+872882771+873301160+873517617+872754502+871747904+871348513
2035+871969264+872883384+873736893+874963073+875947119+875829146+875028832
2021+874586664+875083742+875850596+875774541+875273786+875325449+875890921
2008+875972858+875463277+876054979+877851044+879136364+879079492+877839645
1994+876991223+878197241+880226738+880750843+880029218+878902748+877104231
1981+875658040+876463686+879099103+881122350+881068297+879509832+878142146
1967+878009894+878496677+879419866+881338439+883085232+883030076+882152788
1954+881856171+881219609+880004827+879544090+879811781+879886119+880720630
1940+883005991+884008667+882828327+881801505+881742672+881913472+881915372
1927+882112156+882851615+883481926+883770454+884295601+885329777+886397046
1913+886766592+886318970+885162286+883929426+883754949+884474000+885010607
1900+885148497+885365138+885981782+886885484+887354494+887047091+887597978
1886+889476654+890073075+889041289+888466134+888480413+888503763+888775192
1873+888947033+888006806+886029891+885878457+888337375+890342298+890576221
1859+890075159+889122368+888142429+888868712+891200955+892475550+891227798
1846+888298950+886081309+887546866+891067048+893417738+893777233+893153050
1832+891352818+888136239+886730189+888191518+889769226+890858804+892436267
1819+894663775+896890057+897798110+895993097+892740973+891719115+892984824
1805+894165593+894408954+893209310+891416125+891512648+893005477+893013444
1792+891363665+891992567+894215724+894718747+894643367+896517080+898260195
1778+897645634+895512626+892333554+888695215+887713989+889810716+892937758
1765+894745344+893363992+892267612+894196051+895681281+896653805+896906297
1751+892702119+887196625+887825037+891221179+893301665+894239563+894879067
1738+896206919+895605718+889531871+885893226+889403174+895050051+898917839
1724+899691188+898747039+896753944+891975836+886485480+887412653+891986009
1711+896091091+898278396+896968685+893773679+892875922+891120672+884884912
1697+882150153+886925196+893456899+895867893+894728062+893563657+890565864
1684+884682245+886524763+892220178+895771860+896124430+893316128+889529726
1670+886656218+888113319+891611684+891025436+887789921+887843667+889393491
1657+889029032+885517430+879495553+880116549+881202633+876910450+875275257
1643+878988117+880005256+876651155+870481399+865318608+868771622+874850677
1630+877509261+877247331+876583313+876379420+878267166+881238913+881542088
1616+881829573+887057080+892024741+894044372+895709840+897973445+899417185
1603+901245118+904308363+906970010+908683402+910046370+911478344+912940347
1589+915242744+918858040+921589797+922449435+922613739+922213367+919308236
1576+914653004+915931215+920016011+920243805+918930907+920225052+921625955
1562+921087203+914485820+902059405+904689614+913302171+918605793+921605915
1549+926325864+930570919+927438729+917195759+907541611+908803581+918073108
1535+923142256+921897629+921716656+924439833+925768420+925960363+925171141
1522+921633983+919634208+921365189+925802739+931513475+934486876+932816506
1508+924324128+915791670+922645361+931037539+934969002+936140026+935822021
1495+936248377+937651547+936774566+933775302+933622520+935226335+935445611
1481+934827373+934755609+933401650+928325393+920953725+920014601+926896177
1468+931667728+929933866+926502915+927324801+928387781+923306744+917402043
1454+921021077+926008655+927422918+927449883+929746581+932329110+933322042
1441+933939667+933648443+932453395+934275813+938985098+944126071+948572507
1427+950750865+950805899+951109563+951162146+943812662+932298897+930673754
1414+934200126+934290582+931736918+930568100+930190894+928803351+926094944
1400+923351114+923790340+926371092+925996030+922886638+918458343+912337001
1387+907904905+908057994+909866439+912293857+915415322+917101381+916614966
1373+916449498+918286623+920105302+920018462+917583874+913522917+911800516
1360+913843864+915419244+914857326+914655087+916432277+917443594+915681296
1346+913484431+912926742+912596663+910045880+908012214+911470561+916602770
1333+917468046+916656701+917942021+918260026+916564958+916177762+917340881
1319+918819799+920898937+923463448+926704112+931806292+937537313+941317709
1306+942698939+942189726+941663599+942899891+945103559+948136223+952013816
1292+954621104+955792619+957599960+960279564+963300768+966654501+969403479
1279+970231494+969369405+968860253+969866729+971706367+972640833+971279091
1265+969812124+970918310+973154826+974052767+973897533+975746855+980328178
1252+983448172+984112680+985679173+987245605+986330137+984263072+982951277
1238+982960286+984721787+988372076+992213450+994721641+996455809+996285131
1225+993703889+992354527+992718618+991955932+991692532+994312567+997393768
1211+997677577+995403738+992803497+991966290+994615864+999115005+1001533108
1198+1001888374+1001495356+999749974+998084996+998673205+1000368273+1002534864
1184+1006273403+1009374215+1009475641+1007815015+1006753506+1007442956
1173+1008312584+1008329314+1008860712+1011249460+1014506670+1015445487
1161+1013876114+1012364531+1012240062+1013954129+1016412557+1017397950
1150+1016444486+1016019784+1017667173+1018144273+1015671688+1014610179
1138+1016822734+1018997047+1019573857+1018719857+1017355051+1017684701
1126+1019403854+1019931636+1018541642+1019212094+1024606357+1028485911
1115+1025672033+1021373967+1020928061+1021696017+1020554654+1021348350
1103+1026040414+1030230313+1031566316+1031587643+1031185003+1030339400
1092+1029529096+1028940397+1029034653+1032267165+1039328244+1046803483
1080+1051733944+1052020142+1046156808+1038730597+1035596998+1035864198
1069+1037235745+1039705388+1040465807+1038991669+1039749023+1044120079
1057+1050212617+1053725935+1052876655+1051447377+1050033789+1050731942
1045+1055357451+1056580690+1052661669+1051464660+1055940022+1060892546
1034+1058455138+1050005475+1045876738+1048764587+1051915836+1051588332
1022+1048637850+1044227817+1041037959+1042803198+1048866196+1053186877
1011+1054447622+1056511194+1058570230+1057116685+1051622406+1045697052
999+1042495427+1041050583+1040606148+1041148639+1040610070+1038476021
988+1037486031+1038676299+1039179200+1037630663+1037176667+1039791309
976+1043646227+1045976509+1046328037+1047716377+1049963925+1048347730
964+1043162080+1039784200+1040579428+1043424868+1045966949+1047300132
953+1048477408+1051537956+1054799027+1055413956+1052859005+1049358679
941+1048475324+1049024801+1049513729+1052863295+1058402433+1060768996
930+1058884743+1056842865+1055856062+1055333305+1056636459+1058527086
918+1058973850+1060569699+1064876896+1069113740+1071818838+1072048164
907+1067559565+1061935118+1063724503+1071852299+1073741823+1067120277
895+1060316839+1055601977+1054903701+1060065695+1065056583+1065516216
883+1065946801+1068680336+1070744765+1069395035+1062203544+1050828772
872+1043022228+1044679974+1052077382+1055038159+1051568353+1048589436
860+1050047517+1053646020+1053783665+1049128494+1041514262+1033710783
849+1033347366+1038513160+1036335721+1029168130+1025072119+1022537821
837+1022729703+1025126601+1026329861+1028807042+1026761978+1013698511
826+1003810072+1006096352+1011412967+1012373418+1008927574+1006174551
814+1007640354+1007032963+1002332074+1000597477+1001345025+996738821+987493562
800+982378022+982028149+980212228+975102632+967757867+962215358+962244407
787+964821359+969068130+974934345+973917389+964516407+955848204+951528627
773+950858420+951408693+949584008+946147051+942716344+941072019+943616491
760+945557003+941004361+932993618+926353135+920945084+917437833+920727524
746+928206256+930855095+928737164+924145238+918280985+915866437+917890664
733+921253468+921841247+918621911+917597173+920446902+919750343+915123485
719+914419326+916827930+917375323+917281741+917822638+917834466+916555091
706+914074846+909768383+904559078+902592029+900332653+893738256+892936777
692+901149821+905841517+903513319+902235353+902619484+900660219+899324707
679+903244219+909348768+910210919+904769406+900880046+903740807+909186548
665+910848768+910067574+909282397+910647571+911731326+906865581+899380966
652+897580059+901308118+903820722+898574462+885684001+874275645+872918254
638+885685411+906876367+915934647+903972462+882407241+853160742+831102732
625+844280372+890368037+935526936+937902446+877765675+826508233+831361782
611+865870291+887801748+885021699+863722269+855408045+869166846+879899540
##END=
