##TITLE=Sample description
##JCAMP-DX=4.24
##DATA TYPE=INFRARED SPECTRUM
##DATE=25/8/2023
##SAMPLING PROCEDURE=Instrument type and / or accessory
##ORIGIN=Default
##XUNITS=1/CM
##YUNITS=ABSORBANCE
##RESOLUTION=4
##FIRSTX=4397.6552
##LASTX=599.8556
##DELTAX=-1.9287962
##MAXY=1.811188
##MINY=0.3169952
##XFACTOR=1
##YFACTOR=1.6868003e-009
##NPOINTS=1970
##FIRSTY=0.44108036
##XYDATA=(X++(Y..Y))
4398+261489385+261342511+260882261+260370862+260062467+259949304+259888579
4384+259679444+259160854+259030941+259660380+260230119+259955046+258947584
4371+258278887+258510372+258894438+259206402+260060489+260971237+260858109
4357+260051814+259458170+258924562+258323286+258238586+258600620+258939739
4344+259184105+259198734+258696204+257696939+256983613+257301672+258245706
4330+258767512+258537263+258230052+258171730+258045404+257838937+257585331
4317+257006069+256303874+256068059+256165745+256113342+255862104+255600318
4303+255554876+255590406+255496925+255591996+255675972+255225845+254839199
4290+254973653+255131604+255141463+255239714+255509451+255727880+255612526
4276+255382507+255486253+255638922+255246994+254461882+253671312+253118181
4263+253067810+253418625+253655428+253693485+253954229+254150343+253857020
4249+253513148+253357123+253058234+252540845+252117803+252139394+252739327
4236+253333447+253222281+252609485+252078351+252058828+252182486+251757059
4222+251291667+251464230+252125153+252840706+253007050+252612312+252290967
4209+251952414+251328593+250961418+251214211+251725522+251975824+251744285
4195+251199670+250819844+250899968+251273487+251723931+251685928+250799650
4182+249831375+249372432+249186989+249065963+249036387+249065734+249107006
4168+249306495+249713141+250008054+249785279+249065133+248387302+248205410
4155+248435270+248726155+248750944+248325358+247629841+246921196+246433349
4141+246560876+247117947+247414327+247459504+247552331+247476165+247173230
4128+246911726+246688492+246303330+245756524+245347776+245330002+245472494
4114+245423960+245360974+245400232+245244189+244867543+244547788+244617453
4101+244930600+244970795+244831571+244745723+244635704+244434148+244145595
4087+243945099+243732377+243301526+243084316+243405307+243728808+243547570
4074+243047602+242625938+242497298+242602175+242670585+242535902+242393552
4060+242482386+242536044+242329876+242188497+242144557+241883248+241508069
4047+241274304+241388174+241814060+242049592+242056659+242044892+241719678
4033+241151140+240784442+240629582+240511278+240484475+240482143+240184155
4020+239700919+239473868+239622915+239824241+239637279+239144996+238854005
4006+238957822+239084042+238988547+238932486+238946621+238873016+238729375
3993+238492201+238290203+238309567+238404108+238234337+237723556+237250125
3979+237039558+236874363+236765228+236886572+237020194+237012844+237039134
3966+236996184+236559626+236066425+236187380+236647648+236642436+235994852
3952+234956718+233851286+233521161+233893230+233623546+233059726+233525913
3939+234507139+234830568+233892488+232324492+232088024+232989055+232820555
3925+232061840+232416418+232845644+232394298+232102582+232783364+233892965
3912+234592351+234167737+231837015+227811264+224473221+224028765+225995934
3898+229107668+231119731+230602095+229052385+229202863+229662725+228736924
3885+227748914+227056913+226989191+228691446+229497830+227764992+225086246
3871+223411270+224129561+225412626+225006316+225174886+227076135+227794497
3858+225890067+221506240+217599482+221030530+226575337+229166591+228600775
3844+226108885+223003988+219959003+218986700+221154117+223506129+225132801
3831+226436343+226703377+226285547+225323968+222431529+219808013+220774238
3817+222527943+225192695+228401268+229423165+227582959+224641808+223096586
3804+221594544+220392929+222273453+224845184+227089422+229254047+230362164
3790+230295468+229394525+228233829+227864038+227732447+226905021+227053450
3777+228582647+229173747+227819144+225554023+224556702+225087765+226026411
3763+226120334+224313573+222230997+222067286+221594562+218127277+213664333
3750+214032692+216059119+216467832+218335300+221220178+221586823+218573040
3736+214244178+214478031+219587446+223885478+225178844+224505641+223773940
3723+223935938+225339092+227684355+229288659+228577682+226003938+227126365
3709+235928173+247665866+259403647+272051204+287111887+301513414+312675007
3696+320795556+324918657+324935831+324333883+326407784+328798612+329427556
3682+327039802+320132972+309568626+298589119+293231486+291656758+288129721
3669+285569810+285094135+282819756+278529763+273715314+268529096+262551583
3655+257550490+253264030+245685976+236754168+236756518+241127483+243036824
3642+242309505+240404174+238335256+236090100+233225311+229407918+224614988
3628+222756319+224780608+225333686+223091763+219237886+216498662+215681537
3615+215044395+214530840+213921278+212923197+213095018+214093540+213609615
3601+211754921+210424046+209695985+208868152+208293202+207220014+204258016
3588+201558793+202591026+204611658+205236839+204991289+204400208+203467763
3574+202461485+201139568+198180520+193283332+190430115+192244897+194619789
3561+195312762+195321048+195319988+194661044+193780809+193564500+192796085
3547+191290156+191126180+192453821+193453404+193395223+192924725+192796862
3534+192772675+192086539+190675064+189531787+189136961+189075371+189468130
3520+190286775+190735912+190548031+190027179+189339949+189051502+189508890
3507+189644315+188723443+187926936+188250047+188908903+189330991+189522512
3493+189272722+188704520+188390631+188405101+188308387+188239252+188772807
3480+189643714+190065802+190174583+190393896+190609922+190770223+190813245
3466+190564568+190049989+189743503+190197552+190968493+191278301+191117116
3453+190877344+190725205+190559462+190533720+190843174+191368142+192109419
3439+192984125+193692009+194066853+194143779+194244469+194594630+194978732
3426+195197320+195156878+195143768+195652517+196345119+196971236+197941066
3412+199121074+199950973+200333237+200693999+201399940+202483534+203798914
3399+204956660+205728803+206574339+207891026+209287608+210561662+212159093
3385+214197675+216404422+218605426+220803726+223065755+225378138+227901724
3372+230781443+233676709+236404537+239505458+243298911+247152700+250681610
3358+254458049+258676645+262922910+267118981+271434522+275989287+280681650
3345+285249384+289554589+293733309+297855898+301760094+305800474+309875625
3331+313073137+315587712+318043594+320310782+322335248+324205048+325657531
3318+326510647+327358002+328884019+330542723+331387888+331710010+332100684
3304+332466022+332743338+332795741+332290473+330927990+328311153+324717278
3291+321058455+317657090+314330319+310906727+307527376+304582162+301957975
3277+299218345+296369652+293899865+292038899+290325619+288628611+287343532
3264+286200892+284731642+283073238+281333598+279756185+278726814+277898434
3250+276968922+276202327+275592570+275031312+274329399+273153031+271850867
3237+270948123+270227376+269289454+268017997+266576415+265491708+264977111
3223+264414351+263555759+262818157+262059866+261431275+261567371+261779033
3210+261227033+260347823+259480308+258684525+258219045+257926799+257476461
3196+256922659+256415270+256020956+255749683+255447631+254918917+254425080
3183+254368083+254286581+253633873+252781341+252185489+252055647+252393194
3169+252611676+252277239+251809427+251742642+251877855+251770381+251703984
3156+252009075+252216673+251953173+251363523+250685479+250280512+250426078
3142+250861205+250900993+250344099+249824449+249775261+249949079+250009291
3129+249825650+249415718+248902747+248564123+248594441+248674035+248495376
3115+248346365+248461207+248576154+248538663+248476719+248218025+247625671
3102+247144237+247126763+247344167+247328690+246941568+246483384+246071385
3088+245626683+245170672+244621676+243954816+243421774+243260978+243359618
3075+243284883+242861929+242309841+241629465+240827622+240225516+239859453
3061+239499769+238981921+238290079+237754015+237524880+237263641+236921077
3047+236774698+236762436+236670952+236342151+235618454+234731610+234093673
3034+233697699+233370700+233112412+232932446+232781544+232618045+232400411
3020+232124155+231891821+231750354+231473444+230983918+230704675+230818634
3007+230919270+230727220+230403719+230268365+230482889+230892857+231302224
2993+231722191+232136646+232509210+232923683+233377131+233836339+234202737
2980+234321908+234436149+234651133+234448782+233697699+232950185+232516225
2966+232246576+231942086+231440087+230794287+230329302+230085131+229899970
2953+229787213+229671100+229517388+229495745+229538855+229315020+228778161
2939+228279960+227981000+227686245+227326455+227034916+226795003+226387756
2926+225806339+225276866+224744247+224066575+223420298+222861991+222215237
2912+221664545+221510180+221545834+221501275+221377688+221184312+221036025
2899+221031219+220956042+220711305+220539007+220423653+220137061+219889816
2885+219894780+219894286+219768596+219684867+219610114+219378240+219021965
2872+218641539+218225723+217831763+217592610+217492768+217433527+217327201
2858+217082377+216802216+216557020+216031310+215132099+214362182+214164248
2845+214391069+214572855+214580664+214645276+214824641+215015084+215185562
2831+215235385+215104943+215017239+215119077+215277312+215348460+215247682
2818+215074466+215092399+215336517+215568091+215606519+215556324+215560600
2804+215540935+215473020+215459910+215473037+215391235+215234025+215143618
2791+215143671+215120084+214995508+214880630+214933458+215014589+214920136
2777+214782167+214775895+214810029+214768704+214691106+214622767+214551017
2764+214486105+214483702+214554038+214620788+214651035+214694605+214714781
2750+214605169+214471776+214522678+214679392+214702767+214566194+214471670
2737+214540028+214631442+214633579+214687272+214855401+214893351+214723156
2723+214645417+214768828+214955649+215168389+215306817+215259962+215120561
2710+215049201+215080172+215095049+215113406+215264520+215462525+215593603
2696+215656537+215614540+215472401+215371694+215380846+215368001+215231834
2683+215072664+215020119+214998370+214936196+214917928+214895277+214797114
2669+214681053+214532077+214350874+214205078+214091950+214073063+214214866
2656+214292747+214110095+213846348+213684898+213630410+213693379+213792690
2642+213773132+213662089+213566399+213470056+213345991+213257227+213256503
2629+213317846+213366221+213333270+213271892+213244984+213172669+213037562
2615+212944416+212995512+213207298+213396009+213398395+213353977+213468006
2602+213667919+213733061+213687036+213725711+213823097+213845288+213850659
2588+213931967+213990112+213919776+213826631+213810164+213811065+213716824
2575+213494385+213321645+213316132+213293288+213075990+212768797+212595509
2561+212587841+212637064+212669644+212599820+212382699+212126142+211943986
2548+211865717+211956106+212140330+212203016+212173722+212181107+212181708
2534+212094163+211934109+211876264+212015028+212118580+212056796+212005028
2521+212044746+212176602+212345455+212350419+212228351+212215436+212311055
2507+212418282+212536163+212643460+212717312+212746376+212784398+213008074
2494+213316998+213360673+213184771+213071166+213056943+213094612+213184736
2480+213293570+213349101+213263447+213060813+212903904+212876253+212921872
2467+212965494+212961731+212920388+212868320+212783532+212703955+212716005
2453+212758832+212762313+212770546+212770334+212739556+212673160+212549361
2440+212497841+212619379+212766694+212817560+212761836+212609467+212516746
2426+212660474+212923992+213020318+212916589+212850281+212934257+213077403
2413+213198535+213300744+213401168+213489031+213603290+213763061+213886154
2399+213966048+214111668+214329372+214469727+214508702+214560487+214555416
2386+214280591+213564191+212301002+210492563+208293926+205962338+203659602
2372+201407502+199181233+196917985+194690885+192874742+191883287+191792032
2359+192421171+193761586+195963491+199111533+202454665+204168740+203294582
2345+200940626+199315421+199111727+199558055+200134367+200763540+201344339
2332+201740985+202201288+203014951+203941936+204735563+205730393+207194767
2318+208819654+210182013+211164493+211970399+212836748+213789210+214727326
2305+215567579+216238219+216715625+217100716+217497856+217875862+218162949
2291+218397474+218692953+219050640+219325201+219436668+219440873+219425484
2278+219444813+219487340+219542446+219618118+219714956+219824056+219867271
2264+219833013+219858066+220010347+220169323+220220772+220266603+220363264
2251+220413052+220485526+220677453+220873267+220976978+221032544+221071785
2237+221122651+221207934+221267563+221331592+221478148+221649050+221772955
2224+221813892+221748962+221654085+221696206+221863945+221959511+221957091
2210+221963557+222049212+222156668+222151067+222159142+222339532+222485045
2197+222427712+222322429+222281068+222298860+222390239+222513049+222654021
2183+222770966+222783209+222813775+222966143+223099113+223083794+222976850
2170+222938528+223058459+223263124+223473974+223647667+223691484+223648003
2156+223656660+223735442+223854118+224004967+224156098+224245392+224268961
2143+224263714+224276311+224378202+224515818+224588257+224652904+224750095
2129+224812127+224878453+224971174+225005963+225088278+225281141+225417785
2116+225497397+225627592+225736374+225754007+225791074+225903106+226041835
2102+226260953+226540301+226746840+226953361+227299776+227680804+228023068
2089+228457399+228973975+229474738+229969918+230390822+230642802+230814376
2075+231053688+231382931+231766220+232155886+232433238+232630960+232941333
2062+233316937+233638405+233979485+234346537+234641822+234854844+235031842
2048+235191755+235399601+235686369+236002166+236448530+237045071+237532954
2035+237807355+238032109+238264743+238385380+238437554+238552466+238681265
2021+238640717+238318012+238064583+238286351+238681513+238855419+238863334
2008+238885224+239035102+239310192+239585512+239786538+239966804+239992900
1994+239649452+239429115+239975373+240926086+241790897+242508217+243042672
1981+243473470+244021778+244766995+245585021+246414462+247095562+247539080
1967+248334174+249803336+251231896+252270967+253210143+254029565+254659905
1954+255254114+255744046+255914860+255688269+255058671+254294161+254398366
1940+255575971+256502691+256762198+256860768+257035716+257275947+257482397
1927+257372891+256774336+256436913+256787428+257261707+258258957+259736158
1913+260491233+260405349+260435562+261154807+262043753+262645718+263070279
1900+263235722+262888581+262316723+262025961+261612990+261060354+261363695
1886+262104707+262422412+262480540+262435345+262392094+262406264+262224531
1873+261189966+258913149+257120186+258253321+260619114+261919882+262231510
1859+262274090+262417872+262676725+262816055+262571530+261752337+260291267
1846+258752423+259091790+261412105+262923688+263212400+263435811+263355705
1832+261820483+259937219+260068404+261204701+262430116+264051292+265151282
1819+265463669+265564589+265352856+264453963+263774294+264414051+265547380
1805+265859361+264963348+263810231+263902404+264602356+264125109+262616813
1792+262948741+265915686+268048404+268478548+268218405+267738048+267710875
1778+268178069+267443117+264884566+262925190+264614847+267971106+270488950
1765+271087046+270313118+270213648+270605700+270826726+271096922+269851525
1751+266818961+265203491+266638960+268552400+269478996+269759334+270209637
1738+270206687+268286126+266524065+268689238+272087706+274930570+276336374
1724+276251515+275406739+272891386+268428495+266999545+271270121+275483700
1711+277294507+276644733+274490478+272970804+272039879+270158736+268816041
1697+270165679+274668483+278973353+279822899+278642096+276461710+272756138
1684+271565865+276067733+279764011+280955821+280753258+280667516+279992158
1670+279421182+282831382+286871497+287888588+288466119+290944545+292604132
1657+290977231+286252005+285113817+289728512+290070193+289976941+295434681
1643+300694150+302334621+300807649+297315223+297786711+304297213+308565899
1630+310031315+311192595+312617869+314495761+318104725+320872376+321234923
1616+323147868+327586732+330272332+331094211+331700363+332735706+333607690
1603+334282182+335140068+335713923+335620424+335519010+336000568+336735449
1589+337531992+338379312+339033274+339515715+339644515+338413270+336037247
1576+336883083+340749540+341818098+341683079+344070092+347008274+348357965
1562+347184671+342733475+342600047+351143072+357612337+362266820+366007728
1549+369549660+371425256+370382563+367693499+367969438+380096126+391821716
1535+397344191+403549674+412176763+418277828+422642415+427788845+432615026
1522+439163903+448994887+458547918+469360888+480253469+487825392+491233294
1508+493532143+508591961+529226585+540913624+548847245+557214333+569647772
1495+583810057+593467047+600197127+610300303+624790081+638030947+648552006
1481+658218501+667407537+674935220+680519709+686805687+699886198+716079592
1468+728983140+739817205+751844352+762664424+768457819+770825255+780186731
1454+796014609+808070308+815540251+821368771+828639702+836481168+843804962
1441+850505572+854126090+854959382+858537498+864342695+868868732+873302543
1427+877717272+877666247+873568976+869552412+864347996+858981317+856337837
1414+852443040+845817060+838796731+832596124+826788807+822204395+819350736
1400+815930713+811167219+806481463+803492751+803361725+803095222+799756825
1387+795263650+794215022+796613271+799322193+799981562+798058086+795133261
1373+793678976+793990992+794861174+795929733+796108886+794374528+793650707
1360+796090723+798652860+800155414+801897829+803882082+805340678+806298282
1346+806938640+807636665+808349250+808926073+811175841+815270426+818850379
1333+821703331+824305751+825891769+826500324+827311849+827904786+827890298
1319+829108045+831708981+833468992+834730273+837544426+841032435+843388281
1306+845715999+849650796+854047433+857068159+859423087+862401976+866241294
1292+870126550+872745225+874619654+876081854+876579738+876885535+877125607
1279+876601787+875636622+874589760+873045792+871712214+871576454+871363449
1265+870193971+868840110+867329146+865563975+864195486+863344950+863021414
1252+863706931+865096199+866182425+866508717+866636138+867460242+868766046
1238+869103646+868216785+868453182+870333901+870569945+867616003+863904459
1225+861914057+860898149+858951705+856665259+855022492+853079511+850055604
1211+846485898+843139869+840226140+837312693+834246029+831646719+829553984
1198+827197643+824533809+822266798+820648059+819305506+817888536+816763016
1184+816214814+815698344+815520110+816378349+817430441+817916663+818849319
1171+821207922+823805253+825584417+827503228+829884587+832169832+833806450
1157+834418822+835425189+838469661+842802694+846158264+847732126+849207401
1144+852067632+856211263+860676805+864122906+866002353+867822294+871045708
1130+874265871+876668572+879409014+881459629+882184934+883373493+885027143
1117+886292664+888226458+891638000+895025231+896721638+898577198+903483308
1103+909519249+912652344+913551856+915038579+917343471+920918618+926272293
1090+930967166+934998853+941640311+949470115+954134598+955715528+957300980
1076+961356908+967927340+973298966+976008030+979011583+983213378+987934045
1063+992896905+997992840+1003176691+1005966462+1005593244+1006066533+1008961181
1049+1011233564+1010102320+1007291276+1007982517+1012197740+1014346871
1038+1014414645+1017004061+1020699916+1021643951+1021952363+1023739442
1026+1025210900+1025537687+1025888714+1028322582+1032193774+1032935051
1015+1029727185+1028277846+1030699841+1032565649+1033270318+1035216338
1003+1036554580+1034805876+1031060692+1028960961+1030493762+1033603253
991+1034812731+1033558376+1032475542+1033526150+1036196910+1037990561
980+1038158548+1038858553+1040287043+1041515390+1042803950+1043603036
968+1043795193+1043827066+1043022962+1041313127+1039185198+1038390988
957+1041665073+1047356913+1051248246+1052388183+1053017516+1055426295
945+1057400089+1056406938+1055559653+1055872305+1054464522+1053791019
934+1056666798+1057588924+1054441200+1053912080+1057813025+1063189598
922+1068601648+1070615088+1068111538+1065764244+1064977101+1063974974
910+1064078720+1066589479+1068849847+1067260579+1064798159+1068190267
899+1073741823+1072908885+1068473519+1064273986+1058713101+1054889966
887+1055162053+1056050257+1057324612+1059641588+1058759321+1053486000
876+1047001999+1041557016+1038847175+1036764051+1030136587+1020894193
864+1015225675+1013825524+1013638809+1011964028+1007763223+1002061418+996726754
851+992252024+987794398+983608434+978582605+970035764+960312802+954673895
837+952531125+950193230+947119994+941443419+933073257+927532302+925775682
824+924792142+924081537+924043586+924954263+926159855+926459503+925678579
810+923395172+918839523+914436597+913020262+911197918+906512162+903828823
797+903967905+901065836+895546012+893080412+892980270+891259694+889029926
783+887633026+884925305+881428392+878884912+876049487+872582397+869751212
770+867079251+864080644+862725299+863306999+862302116+858539689+855498891
756+855035778+854850760+852834845+849194821+845805399+844392881+844629632
743+846019182+847372194+847331628+847328660+847570711+847304066+848203083
729+850343168+852277527+853066790+850750096+846592330+845400096+847717850
716+850650025+851604731+848180256+841576961+836033038+833795072+833984685
702+834329493+834007088+833577544+832296052+830115401+828945994+828126130
689+826007459+823801578+822280155+821134776+820588624+820251661+819658088
675+820334488+823084330+822209271+812871965+805375237+807826985+810056469
662+809025933+808247977+810671527+815452124+817929313+814118758+805782589
648+801178389+802898047+805131631+806303582+807142174+807246557+806223087
635+801113301+792812751+786838365+786695184+790552029+791646807+786897800
621+782064906+782605121+784099407+783140955+783616294+781450626+774441958
608+772683854+776611371+775842462+773539125+779929980
##END=
