##TITLE=Sample description
##JCAMP-DX=4.24
##DATA TYPE=INFRARED SPECTRUM
##DATE=25/8/2023
##SAMPLING PROCEDURE=Instrument type and / or accessory
##ORIGIN=Default
##XUNITS=1/CM
##YUNITS=ABSORBANCE
##RESOLUTION=4
##FIRSTX=4397.6552
##LASTX=599.8556
##DELTAX=-1.9287962
##MAXY=2.1057162
##MINY=1.3208431
##XFACTOR=1
##YFACTOR=1.9611011e-009
##NPOINTS=1970
##FIRSTY=1.4223408
##XYDATA=(X++(Y..Y))
4398+725276621+727732655+726882794+722567348+718834666+718112883+719842878
4384+721000383+720530804+720657727+721177820+721028405+720715596+721049255
4371+722686186+723557263+721504489+717999211+715593751+716053057+719397736
4357+723207069+723487419+719888529+717097255+716534429+715308417+713299714
4344+712498907+712379217+712681267+714097603+714862363+716052753+720148089
4330+722855235+721402123+719840508+719104135+718099996+719501256+722758523
4317+723820105+723428212+723420675+723440005+722888060+720982815+717740563
4303+714267441+713300869+715112015+716892403+718851079+719627145+715784622
4290+711726852+714111705+719837772+723179472+725400505+725733252+722530633
4276+720505152+720648487+718955936+716927416+719488430+724599576+726167818
4263+724045747+721988292+724520492+731644415+733349853+726058462+720914308
4249+723420492+727483672+728445868+728210988+729068934+729969553+729166193
4236+726674538+722954561+719529704+718800200+721465707+725049156+726323372
4222+727131473+729677411+731180003+729312690+724795310+721056915+720117878
4209+720509285+721888115+723536170+724036568+723652151+723325118+724605716
4195+726272797+725734529+724764917+725038397+725308048+724109451+721388629
4182+719827438+720224620+719945304+719133252+719786893+721628676+722473554
4168+721914010+722212717+724138872+726916105+729663066+730652373+728071299
4155+723470885+722369973+725789298+727960485+726211341+724177229+723947940
4141+723621819+723596774+725599642+726726936+725601284+725600737+725995122
4128+724709053+725328472+729115132+731172526+730126931+730202914+731326986
4114+730118238+728089414+727081931+726454124+726409689+726161982+724880472
4101+723907274+724634285+727199797+729935877+730003655+727586706+725725411
4087+725155776+725100339+725736352+726658794+727034761+727539231+728486717
4074+728277732+727152505+726199792+725466094+726789364+730086264+732679069
4060+733827577+732518774+729775157+729586900+733035038+737569438+738853987
4047+737009894+735997610+734341105+730770299+728649505+729016232+730173737
4033+731184258+732784413+734225063+733422129+732255749+733020509+734013585
4020+733601876+731318293+727284109+724291204+724887281+727080898+727830218
4006+728513889+731403030+734596897+735666929+735768321+736684015+737040470
3993+734398853+731250881+732724356+737329694+738852953+736937983+735263182
3979+733811469+732110165+732469354+735127141+737161193+737025212+735040520
3966+731490442+727432186+725607666+727891978+733511607+739554678+741487884
3952+739084248+736988923+737284225+738519963+738043332+735071946+733428998
3939+735436242+737722256+736389624+732159706+728165458+726719094+727243138
3925+727480998+728738679+731985004+733166641+731037093+730504053+733542365
3912+736215470+735279898+733267244+732819669+731473726+729378704+730947311
3898+735222759+739215183+741295372+738688646+733491122+732185236+732178367
3885+731143166+732243774+733450881+734734336+736427738+734346515+731240486
3871+731478224+732922643+734976754+736345189+737338447+740347278+742144079
3858+741232214+739080600+733366873+730021101+734201903+739131661+740413293
3844+737539227+734692697+733674698+732939420+733915597+735057236+735603102
3831+737848754+739369946+737121864+734773908+734047322+733008778+734582004
3817+737680921+739312503+740536386+742160430+743095637+741203827+740044499
3804+741754495+739685491+736938044+739742631+743704053+746044228+746688509
3790+746073284+745750627+744515073+741930595+740974782+740742454+740117139
3777+740963718+742773588+743219825+740577904+737963033+738794051+740605197
3763+740958734+739401981+737436314+737346350+739062364+741317681+739628291
3750+735279291+738628832+744736337+742710248+739765608+743367476+747584569
3736+746020096+743743930+745899677+747858292+748472787+747971842+746485177
3723+745538299+745911895+745985812+744397997+742261033+739946571+740129540
3709+745137470+748277175+747962116+747207386+747400810+747847837+747801943
3696+748476860+748891487+745960099+742145295+743603269+747954943+751463200
3682+752625689+750562459+746161790+740213669+738227760+741046693+740262116
3669+738515282+741361326+743340061+742902639+743243957+744266089+743314592
3655+742480960+744102086+741854125+729785794+721925560+723812142+726724687
3642+727633634+726778969+724976212+723375510+723591486+725639701+724546084
3628+718043646+716459539+718972835+718890347+714738054+711642480+711695972
3615+710949752+710138733+710932002+710239092+707385086+705530963+704875255
3601+704562688+703865158+701948547+700891280+702560306+703719452+700237456
3588+693238389+691502072+695350917+696494927+692689240+689111626+687934792
3574+687368318+687286317+686872054+684031116+680109448+679190472+681331083
3561+684765605+688142075+691109631+692086538+689794142+687829448+688219457
3547+687803674+684704392+681812941+681378801+681419832+680367489+679540361
3534+680244578+681281846+680127624+678193323+678398418+679246700+678813714
3520+678089317+679550877+682649430+683084299+679907028+676110642+674615952
3507+676250695+678627038+680414416+682587549+683365560+680393627+675546600
3493+673521180+675614317+677554513+676793340+675680878+674796003+673803717
3480+674479729+676895887+678796633+678721075+677969080+678382553+678915897
3466+678535797+678275446+678057343+677875408+678371733+678346749+677260730
3453+676326253+676758752+678545158+679065372+677917290+678888118+682450900
3439+685323689+686058482+686157564+686986272+687060068+684415229+680501889
3426+678791527+681079304+684925718+686228807+685827066+686772606+688268208
3412+688450021+688785748+690955415+692785284+694275414+697724829+700021237
3399+699348204+697955637+694858300+690897303+690799618+695054581+699495673
3385+702132792+704049647+705211589+706788584+710620044+713372658+712095221
3372+710421818+711562727+714485362+718368917+723432467+728816061+732466194
3358+731542050+727974344+729379008+737023814+743649710+745107502+745454474
3345+749942797+757220693+763034354+766949944+768672219+768594655+769098639
3331+769939627+771160349+773391108+774778691+774717174+775227541+777504862
3318+780047518+782142965+784311964+784258897+781523546+780133957+781761162
3304+782893136+780282277+776472153+774722402+773737168+773406548+776106338
3291+779346706+780321363+781361367+780247021+774884156+771283017+770898479
3277+769900844+767796644+765028165+762902933+762789991+763858199+766293262
3264+769089704+769549739+768509675+767165919+764864466+762928038+763570799
3250+766026165+766853596+763740820+757973418+754478352+757133768+761828524
3237+760768765+755376844+753346986+756214184+760188128+763530193+765178734
3223+762571583+756567477+752754192+755033458+759202165+759068433+757669605
3210+759999385+763841422+765108221+763687449+762858862+764563206+765908056
3196+763229966+758235653+755445776+756517024+759636001+762123341+762791875
3183+761635769+759869362+759785719+761500822+762606718+762190267+761284846
3169+760511393+760811498+763142859+765969086+765791588+761692118+758705839
3156+759872827+761854784+763469589+764827933+762954298+758808204+758363609
3142+762808288+765432094+763044931+759999385+759046003+760698252+764298236
3129+766988908+767811963+767476054+765923435+764024208+763100004+763682586
3115+765350336+766634095+767418246+769069158+769695871+767043920+765779613
3102+768801695+770981879+771369760+773142064+773461499+770547192+768245799
3088+767865638+767776889+768314792+769957802+771161018+771836604+773277558
3075+773988582+772616318+770783835+769061985+767843937+769158819+772610908
3061+775523756+776360062+775763439+775936195+777112848+777446750+776975712
3047+776639135+776277818+775803740+775136786+774326801+774137632+774537245
3034+774247170+773254033+773886035+777348397+781635759+783648171+781812770
3020+778595744+777895783+779554658+780843766+779820236+777705398+777541152
3007+778064588+777768678+779439832+782936721+784943358+785052470+784794308
2993+785154045+785897955+785547215+784777166+785665445+787089197+788167313
2980+789793485+791318446+792045032+791830211+791499044+791705841+790778537
2966+789582615+791869297+796760152+799128836+797701620+796041043+796137208
2953+795554200+792286539+789959190+791554117+794576929+796734682+798093574
2939+798250647+797064816+796459622+798081660+800971409+803023211+802261125
2926+799849282+799469972+800273150+798961368+795910655+792415468+789505963
2912+789604377+792627614+794186252+792919513+792731803+794741722+796489468
2899+797796204+799918276+801973056+801473995+797857295+794956483+795901658
2885+798317999+799550515+800270050+801502808+803021144+803287877+801212733
2872+798145729+797097823+798540358+799671724+798989755+796505090+794332505
2858+795428128+797990905+798943922+799151388+799795425+799180262+797000807
2845+796864584+799609478+801864369+802026548+800910257+799270348+798100990
2831+798147917+799301167+801717812+804760987+806309230+805981345+805461678
2818+804946266+803859456+803165756+803533030+804528477+805761175+806687142
2804+806837103+806731638+806166563+803930820+801928195+802907715+805680815
2791+808221282+810113640+811123007+811265856+811127079+811001676+811157716
2777+812219056+813359783+813217298+812360750+811474173+810441646+809945321
2764+810788253+812691005+814623664+815987297+817135623+817931689+817526908
2750+815881407+814502638+814680379+815022244+813916713+812610645+812855920
2737+814620686+817026754+819079346+820238856+820973770+821239956+820893227
2723+820471792+820074367+819865199+819934557+820626373+822092249+822591978
2710+821275334+819996985+820498781+822606810+824943581+826393653+826745609
2696+826167951+825234568+824783590+824891061+825257120+825019808+823866133
2683+823377163+823974091+825171958+826886939+827590730+826229164+824680799
2669+825469570+828003412+829408806+829265531+829306380+829255380+828407767
2656+827872599+827375301+826987359+828898317+831862956+832269681+830224384
2642+828366979+828151489+828811392+828527760+827457120+827346549+827972107
2629+828295433+828688967+829569526+830592084+831275876+831493858+830944283
2615+829783618+829614934+831089321+832536050+832952197+833565780+834550285
2602+834854402+835335044+836569869+837541609+837636680+836091841+833120516
2588+830961425+831308762+833809535+836776423+839285647+841249125+841586188
2575+840351120+839547456+839552987+839295312+838880259+838745616+838051976
2561+836105701+834485061+834892029+836260221+837392134+838667140+839387951
2548+839180120+839475363+840223285+840331242+840199760+840346865+840504789
2534+840859663+841623208+841851645+840910299+839773097+839606602+840244743
2521+840951634+842011393+843626258+844851540+844694102+843664797+843411680
2507+843455872+842746914+842311072+842446566+843270047+845034326+846399114
2494+846984796+847120533+845869417+843535746+842629717+844349562+846332370
2480+846181132+845249694+845170246+845368411+845974761+846631259+845337714
2467+843346577+844014139+846172075+846406348+845378745+845470959+846988504
2453+848778010+849865427+850782702+851736692+851745020+850323761+847883531
2440+845912758+846067461+848390494+850482111+850303275+848987117+848236095
2426+848080541+847596738+847275054+848099993+849042433+849819594+850533719
2413+850182857+849609514+849862510+850204314+850481564+850835587+851048402
2399+851719550+852327905+851769213+851199822+851246445+851089250+850776623
2386+851176966+853281044+856008857+855837985+851774684+847759708+846405193
2372+843969400+838560884+835464824+835106120+832618051+830233076+830992609
2359+831917421+831769466+833470041+838173185+842180502+843175523+843104159
2345+843767527+844320262+843473014+843064101+844647417+846090803+845259177
2332+842438178+839929258+840766781+844358862+847070931+848155613+849149783
2318+849931199+850041041+850002867+850771882+852828425+854791295+854863814
2305+853808614+853886907+855819810+858191837+859195490+858520816+857216025
2291+857088494+859137499+861067970+861077818+861047424+861445031+860542528
2278+858680807+857761101+858149894+858916174+859608598+859893202+859820015
2264+859893141+860419434+861766047+863437201+864477630+864857426+865188107
2251+865661455+865514472+865088782+865752392+867271214+868829001+869830222
2237+869381250+868173110+867622563+867048309+865713914+864997176+865061610
2224+864184758+863785328+865983565+868423066+868824381+868164052+868251099
2210+869088622+868926807+868133841+867798662+867720673+867567976+866461532
2197+865829409+867509134+869050143+868870700+868589257+868752531+869360886
2183+870165705+870117562+869570297+869708040+870709201+871504719+871332145
2170+871160179+871153188+870795701+871071916+872256714+873086091+872852061
2156+872275133+872280847+872613169+872766595+872742584+872395247+871911991
2143+871904879+872432328+873155388+873591716+873375437+873035030+873434400
2129+874386384+874771408+874418054+874387721+874910124+875187434+874560356
2116+873711163+874427233+875706676+875036257+873383096+872505880+873079951
2102+874956626+876117595+876277951+876657079+876518424+875638655+875057836
2089+874956079+875244695+876062279+876784306+877126901+877281239+876544319
2075+875781565+876413567+876792816+875721204+874671718+874505283+874816026
2062+875373563+876090971+876628145+876858101+877173099+878093109+879718248
2048+880563125+879096276+877120701+877021436+878336682+879569988+879966197
2035+879740617+879075547+877794463+876653493+876777863+878741463+882121580
2021+884318480+883098122+880967054+881128443+881955936+881702333+881823967
2008+882895884+883330024+882222972+880258765+879118037+880163755+881908157
1994+882243397+882162186+882844458+883419016+883198663+882432748+882031190
1981+882479736+883606118+885188462+885865203+885304079+884926531+884023238
1967+882028150+880846392+881191479+882639059+884690861+886147558+886552885
1954+886354173+886131693+886419580+886295574+884702167+882767866+882543563
1940+884552206+886445657+886710992+886734578+887375454+887998338+888465971
1927+888746442+887896033+886577869+887187744+888609550+888592834+888199299
1913+888170365+887615319+887128902+888192126+889773863+889875255+889017552
1900+889338081+890965347+891749498+891051664+889819514+888011346+886959124
1886+888515270+891168983+892318707+891306970+890017497+890314745+891366541
1873+891578991+889996525+887507544+888368895+891768646+893015690+891979759
1859+891374017+891996476+892718199+893096962+893066872+892257008+891665248
1846+891861711+892010213+893281025+895521874+896844658+897025924+896610689
1832+895274228+892467635+890831798+892412380+894369597+895762286+897313507
1819+897756948+897390099+897558418+897283965+896408755+896235026+896324504
1805+896312833+896162385+895252952+894902212+896233749+896881251+895258666
1792+894291486+896614275+899323487+900360026+900074327+899753373+899750759
1778+899257534+897761203+895207058+892093066+892362960+896844354+900989414
1765+902692906+901514187+898866552+898740480+900046244+900586761+900333341
1751+897766491+893645564+892636136+894509893+896414286+896807274+896927389
1738+899130793+900221371+895751040+892201084+894091922+898067326+901743293
1724+904066995+905643746+905054660+898971531+890809368+890482456+894429411
1711+897737010+899514966+898632036+895688673+893255980+889694475+886063733
1697+886996022+891051664+896492458+900754533+902158103+901395410+897378428
1684+889986678+889505549+893237744+895930909+897073399+896514159+893951200
1670+889897746+890454798+896402372+898925090+894337441+889988623+890454007
1657+891238037+886456234+876852995+879216999+883430383+881129841+880039446
1643+882953814+883848232+881579604+877418496+874671839+876378006+878063992
1630+878302520+880214998+884654084+886463711+884934616+885140623+886644187
1616+888428405+892487087+897396725+900944188+902426599+903100787+905070343
1603+908549361+911655026+913110751+913351832+913316697+914101274+915798748
1589+917516343+919289498+921292852+923055126+924221748+923667736+919555258
1576+914952534+916488862+918993587+918610204+919108353+920912934+921461171
1562+920171273+911879025+899473935+905636634+915670913+921186901+923735696
1549+925550429+926644107+925474445+922272555+917687337+916948107+922265990
1535+925444903+925133248+927640830+931666018+931204342+928905502+927958685
1522+924258281+921434243+923955927+929172721+934448053+938492511+940569904
1508+936146257+926802579+930766615+940428696+946432012+944990085+940787095
1495+940990124+941409918+937593290+934318395+937924031+941636836+942094622
1481+941729900+941313388+940030116+936228563+929490394+927548981+931893726
1468+933722014+931001860+929044522+930307187+930237100+924606286+920110668
1454+924972528+929450396+929919792+930338189+933843223+938148274+941189869
1441+942245738+940397086+937490864+938647700+941471434+941624253+941165008
1427+942308713+943694655+946420888+949778271+947304182+941177347+940780956
1414+942587847+942578911+941059117+938181829+935645008+936537117+938171434
1400+935705370+931084774+927360846+923039321+920808684+921121008+918974074
1387+915170576+915224069+917396472+919366576+921441051+920934392+917322190
1373+915760574+917264260+919287492+921047759+920336370+916701312+914344604
1360+915313061+917210342+918637193+919536414+919947212+920052495+920280446
1346+920324577+920408403+920368526+918049323+914533833+913826577+916730065
1333+920752517+921417465+919070361+918783751+921770090+925575473+928641565
1319+930667046+930693671+929420975+929436597+931182094+933961575+938128883
1306+943099126+945743843+945102419+944836173+946550546+948961051+952802967
1292+958453354+962639628+963657201+964629062+966748459+968841474+971996376
1279+975567668+976685539+976051167+975600067+974454781+972977112+974602007
1265+978997083+981157937+980659970+981252339+982158976+981679063+981718939
1252+982262010+982079588+983111932+985343724+985378555+983240618+981655782
1238+982199521+985683523+989902074+992590436+996090608+999671200+998941210
1225+995437392+993389784+992617669+991898073+992236231+993688674+995766188
1211+998371211+1000836850+1003102257+1004070775+1003815409+1003734259
1200+1003100616+1003130706+1003558159+1001376456+1000051909+1003740277
1188+1007939984+1008734287+1010122842+1013632497+1016728010+1019419837
1177+1021181685+1020659647+1018173158+1016347605+1017861260+1019268660
1165+1016643516+1013260481+1012623920+1014493543+1017102032+1018416123
1153+1018689907+1018876159+1018219417+1018016571+1020368721+1024072103
1142+1026375684+1025833829+1024661614+1026064333+1029297711+1031971971
1130+1031977928+1028037963+1023741908+1023456939+1025784106+1028166345
1119+1030055845+1029611858+1026962521+1025329298+1024309172+1022778557
1107+1022416146+1022178712+1022577109+1027504375+1033638991+1034619241
1096+1030961571+1027420976+1028912565+1035119153+1040448463+1042081808
1084+1039833543+1034703735+1032563063+1036301215+1040555570+1043733388
1072+1049713241+1056179267+1057164015+1055471585+1059000387+1064778670
1061+1065095127+1063144718+1061591612+1058268513+1056203946+1056362357
1049+1055303206+1054798431+1057523144+1059868911+1057318413+1053082659
1038+1053355350+1056129300+1058083599+1061759141+1065282959+1064427565
1026+1063124050+1066614557+1070836451+1068589281+1061842419+1055872779
1015+1051506576+1050416059+1054538628+1058738517+1057938197+1055074890
1003+1052310422+1050413749+1051252122+1053129830+1053608709+1053353040
991+1053310246+1052214865+1049444684+1046917772+1045305460+1045392385
980+1048706123+1052331090+1052486583+1049879310+1047271187+1048014733
968+1051333334+1053100409+1054130140+1055898309+1057397193+1058900819
957+1060313507+1060141844+1057873763+1056935699+1057994486+1057395856
945+1058030107+1062446033+1064567375+1061402808+1058170160+1059582726
934+1064122780+1066296641+1065835269+1067611341+1070571785+1071475444
922+1072310048+1073072437+1071588629+1070166823+1071721752+1073741823
910+1072252422+1067141336+1060436175+1056094773+1058127366+1064766270
899+1069339027+1069701924+1070113938+1071564192+1071004953+1068257506
887+1064463916+1061263363+1062721884+1068240485+1070828671+1067976792
876+1063557704+1060144640+1058043115+1057159760+1057336771+1059872437
864+1063528162+1063709428+1060430947+1054192629+1045668357+1042269518
853+1047003117+1050979554+1047653293+1042924314+1040374303+1037804597
841+1038045800+1039672579+1034698386+1026992671+1023657414+1020137366
829+1013845555+1010228855+1010265570+1011052031+1012309773+1015013575
818+1018414178+1018655867+1015607342+1014960873+1014927562+1010494372
806+1007522621+1010106308+1010789067+1004047312+993687154+986368713+986267260
793+991024687+994763386+993818758+985934026+974336854+965195961+960582538
779+958928039+957547264+959585875+966070806+967012578+960143413+954667606
766+954175718+956048441+955399723+948986947+941980464+938921119+936492439
752+933920544+933533939+933702562+930914692+925833757+924135796+927976556
739+933540930+937209117+936534929+930067930+921659093+916719609+916946527
725+921728694+925319439+922751617+919515564+920477396+922261978+921108850
712+920721698+922345803+918183723+912947052+917150467+922753562+921568035
698+917019410+910468100+906472819+908774516+911075362+911319543+916748909
685+926778385+931328347+927205049+919469913+913552489+915508977+923402219
671+925923417+918571908+905789392+897658838+896525648+897636407+898237772
658+897856699+898399466+906330943+920629059+931858895+932828386+921412420
644+904559065+897105373+907761745+922073478+913471582+888498492+876937428
631+885260495+895581931+894377195+883153985+861843915+829141830+815397664
617+858479602+935645130+941290593+898911170+890815264+917481026+940092605
604+919144582+885086097+897349432
##END=
