##TITLE=Sample description
##JCAMP-DX=4.24
##DATA TYPE=INFRARED SPECTRUM
##DATE=25/8/2023
##SAMPLING PROCEDURE=Instrument type and / or accessory
##ORIGIN=Default
##XUNITS=1/CM
##YUNITS=ABSORBANCE
##RESOLUTION=4
##FIRSTX=4397.6552
##LASTX=599.8556
##DELTAX=-1.9287962
##MAXY=1.8774998
##MINY=0.45990539
##XFACTOR=1
##YFACTOR=1.748558e-009
##NPOINTS=1970
##FIRSTY=0.50001544
##XYDATA=(X++(Y..Y))
4398+285958743+286141658+286433451+286411089+286007556+285772452+285939943
4384+286136511+286034588+286112479+286519659+286615889+286216447+285821795
4371+286044576+286689962+286877957+286596936+286526340+286665930+286816394
4357+287359755+288124414+288122267+287338654+286909522+287332450+287903184
4344+287937033+287663682+287599052+287620016+287329076+287054259+287329553
4330+287920603+288453703+288859860+289092067+289207216+289310639+289633894
4317+290231898+290358159+289529551+288450499+287848711+287906252+288658878
4303+289627792+290019803+289857579+289665221+289478555+289398994+289879974
4290+290831061+291522704+291467754+291086208+290940824+290916928+290889964
4276+290666007+290276587+290446481+290901418+290954356+290979888+291062108
4263+291147158+291488139+292035317+292716496+293056590+292821486+292809931
4249+293323533+293777583+293851043+293711112+293433159+293139458+293258220
4236+293466225+293120505+292706781+292786785+293109904+293314636+293378789
4222+293674263+294174980+294274073+294042514+294079057+294449796+294825547
4209+294902756+294829399+295190799+295873784+296036622+295688005+295607830
4195+295769100+295619522+295358818+295348319+295446151+295757919+296316313
4182+296581994+296561371+296685553+296680167+296341981+296100025+296225230
4168+296866423+297663534+297548556+296579710+295936062+296212345+297188451
4155+297991835+298025548+297720938+297492345+297405250+297589666+297817407
4141+297816384+297971655+298433818+298651912+298536389+298762732+299568433
4128+300202161+300220194+300054595+299883508+299574706+299230111+299244155
4114+299961296+300717945+300678744+300238669+299939378+299885178+300169096
4101+300542188+300824640+301189210+301470981+301497978+301630853+301929497
4087+301892034+301360059+300873488+300987239+301312983+301390840+301646806
4074+302005036+302053474+302139308+302341619+302437168+302608562+302609550
4060+302109174+301999786+302996618+304048877+304040628+303488029+303202168
4047+303018196+302840189+303048602+303509607+303770106+303867018+303987587
4033+304025970+304116951+304479884+304857748+305193514+305550073+305624930
4020+305581537+305691674+305661882+305634645+305881919+305916586+305558425
4006+305320730+305416892+305802562+306177700+305933630+305409972+305508043
3993+306057642+306433393+306587981+306587606+306397941+306372989+306530884
3979+306414508+306349400+306747172+307348891+307796567+307948497+307981835
3966+307779864+307235822+307081233+307694133+308533752+309283242+309616247
3952+309011903+307863891+307337881+307649785+307891638+307859323+308296296
3939+309264664+309793095+308844702+307096641+306841561+307912603+307987732
3925+306958039+306807235+307734187+308226518+308300659+309231531+310824390
3912+312002024+312077597+310655348+307955042+305319026+304198284+304964444
3898+307361674+309462545+309492065+308184419+308160967+308887550+308300080
3885+307443144+307493833+307953338+309305843+310109908+309132335+307568997
3871+306482036+307027067+308683330+309133256+309449182+310977342+311804587
3858+310819788+307604312+303206838+304987589+310460877+313925365+314274936
3844+312260137+309711591+307464142+306270044+307656500+309992850+311483786
3831+312236651+312558850+312736004+312596414+310591433+308096200+309095043
3817+310961662+312905694+315707514+317083471+315798903+313487744+313016548
3804+312678055+310994250+311248068+313316146+315635963+317824167+319213657
3790+319927287+320085693+319507324+318809477+318366914+317832484+318194838
3777+319864156+320980773+320283028+318416887+317585449+318185328+319051774
3763+319744406+319417571+318264310+317942043+317499650+314764540+310744726
3750+310872863+313552136+314340351+314756462+316625909+317412556+315409074
3736+311830698+311182926+314491837+318216655+320007019+319807775+319302081
3723+319778800+321221502+322906261+323663456+322569848+319363985+317068438
3709+319176024+322309587+323451736+322637069+322264216+323720485+325064468
3696+325038493+323418193+320448559+318499652+320268405+323112527+324693217
3682+324810820+323406194+320323729+316335003+315365646+316297404+315932187
3669+317229299+320410926+322195393+322105980+321087536+319521368+317327063
3655+315723092+314340589+310171402+304490656+305125611+309081885+311351048
3642+311894374+311792077+311238012+309946320+308043534+305464376+301616161
3628+299118916+300353205+301560870+300530973+297023568+293747313+293042444
3615+292719529+291914851+291104889+289994646+289505587+290002657+289819707
3601+288478690+287206189+286347174+285531246+285052925+284536971+282612113
3588+280013986+280050051+281538720+281905727+281256148+280505567+279837700
3574+279149040+278315165+276661596+273481741+270380187+269883151+270756704
3561+271384092+271530380+271484788+271171264+270547575+270029661+269252508
3547+267965435+267264179+267557011+267997375+268084061+268046598+268131051
3534+267918274+266917914+265312426+264141149+263893790+264004491+264453377
3520+265301364+265996212+266251274+266082778+265347144+264212410+263541168
3507+263550628+263400880+263019811+263062182+263425321+263958694+264782922
3493+265294427+264748084+263782868+263668129+264264223+264581871+264483528
3480+264317912+264082705+263964761+264314264+264946680+265480581+265640607
3466+265297649+264736869+264482982+264706514+265015572+265260680+265740127
3453+266322740+266498463+266289248+266198080+266260751+266416379+267064424
3439+267931739+268389181+268682610+269163471+269740476+270352132+270860741
3426+271186962+271551702+272012281+272729200+274080563+275763295+277270201
3412+278565285+279644439+280720849+282197792+283816063+285149224+286538850
3399+288183386+289754565+291198630+292465950+293755460+295555846+297550601
3385+299397585+301315097+303328873+305330991+307066780+308716327+310913495
3372+313426898+315949708+318726098+321394975+323531808+325457263+327706654
3358+330805379+334767107+338800522+342097810+344344883+346168619+348890946
3345+352624353+356024756+358699292+361545358+364572737+367094627+369230437
3331+371150506+372569823+373698984+374907400+376254076+377781895+378929157
3318+379241538+379401070+379893537+380631847+381801027+383296088+384221540
3304+384100426+383537191+383413964+384194951+385228735+385414889+384762003
3291+383684928+382354376+381336034+380998973+380944399+380598577+379609108
3277+378333880+377803848+378058211+377935359+377024735+375817206+374575691
3264+373438382+372556904+371977989+371740976+371589933+371527484+372134282
3250+372964936+372682893+371398700+370575136+370727884+370962238+370518550
3237+369689669+369194270+368982073+368391228+367531327+367150122+367037905
3223+366481147+365920879+365916515+366009984+366006507+366145961+366496930
3210+367074072+367669724+368180224+368481629+368313541+368084675+368292748
3196+368788658+369155751+369337030+369740119+370251404+370488519+370762415
3183+371225363+371336694+370868803+370375484+370477406+371176788+371994045
3169+372696357+373179280+373368570+373788192+374558169+375345327+376198444
3156+376760417+376932732+377215729+377583913+378067756+378883343+379780877
3142+380599020+381315207+381563196+381336477+381401006+382163041+382893101
3129+382962333+383092617+383966801+385055807+385692909+385703170+385286036
3115+384856222+384892560+385562421+386238895+386062592+385057136+384437964
3102+384832395+385336043+385581237+385843407+385886051+385630358+385330078
3088+385391436+386060377+386602988+386207705+385716362+386242781+387241658
3075+387783962+387792280+387720661+387741830+387645327+387738523+388074425
3061+387952220+387458389+387124123+386787744+386375349+386170003+386323297
3047+386903200+387694414+388247353+388346719+388261022+388442302+388803429
3034+388885717+388792180+389067269+389644377+390177614+390700863+391243985
3020+392063049+393401612+394835996+395887028+396617600+397364908+398216185
3007+399208381+400595281+402360147+404227209+406367178+409354300+413508590
2993+418848049+425002821+430945226+435201405+437067853+437826513+438918314
2980+440192826+441041001+441194874+440514207+438886033+436614075+434533180
2966+433193424+432475124+431849646+430833213+429593641+428770725+428384135
2953+427949241+427525802+427589751+428339241+429226412+429556349+429586585
2939+429886558+430329326+430469529+430415295+430631344+430670409+429786885
2926+428636862+428058050+427492123+426171183+424375706+422932902+422091000
2912+421524834+421102962+420816079+420572657+420243982+419781648+419535226
2899+419950280+420739756+421087964+420929728+420939511+421322454+421653447
2885+421603543+421403345+421326886+421131971+420603507+419954712+419386024
2872+418790372+418227547+418074560+418285871+418481399+418508261+418276224
2858+417867613+417551448+417293300+416795821+415878312+414695496+413712129
2845+413547212+414336960+415104687+415130287+415030512+415320634+415893720
2831+416563547+416937388+417012416+417368941+417996295+418353092+418422973
2818+418564506+418964356+419568257+420191452+420764129+421274799+421598566
2804+421754689+422059911+422579547+422979671+423265123+423586128+423810597
2791+424092095+424700052+425411944+425785138+425726200+425620527+425874755
2777+426480599+427026891+427267245+427480499+427835933+428199787+428594627
2764+429058257+429517318+429948053+430393479+430965917+431663492+432187218
2750+432292993+432212375+432318047+432669493+433121635+433575004+434079607
2737+434477276+434502126+434486923+434744832+435039658+435305612+435718348
2723+436341815+436977895+437409209+437801118+438299176+438832788+439309575
2710+439553610+439662930+440012672+440634332+441384675+442161913+442640098
2696+442825297+443267042+444081334+444824040+445331745+445774479+446122278
2683+446319612+446310340+445987392+445853495+446325612+446870984+447158277
2669+447593954+448282734+448718206+448834003+449100945+449441551+449502091
2656+449393931+449379852+449529123+449786078+450191792+450787341+451378698
2642+451906446+452501791+452930412+453004997+453118714+453509429+454013044
2629+454539838+454895886+455011376+455264887+455704825+456055453+456389822
2615+456745392+457028969+457426025+457988305+458529177+459172791+459911202
2602+460344732+460565758+461001367+461637583+462325034+463028846+463455354
2588+463507747+463739477+464309290+464831277+465241287+465617480+466032875
2575+466508095+466810045+466875494+466992961+467180546+467195375+467313864
2561+467685354+467871951+467961364+468219375+468474523+468763179+469289121
2548+470047542+470529272+470238673+469847719+470189348+470932089+471582076
2534+472189216+472675582+472754972+472593225+472716419+473121008+473353760
2521+473357953+473426947+473833343+474566607+475318825+475966222+476444952
2507+476802227+477388402+478060888+478447718+478800084+479427335+480159475
2494+480668271+480816758+480765319+480900511+481436612+482141788+482672366
2480+482903788+482950148+483113497+483517813+483927550+484307937+484710549
2467+484909758+485009193+485362548+485895000+486227562+486317895+486387809
2453+486318611+486163647+486314315+486815407+487491132+488105498+488472726
2440+488647699+488865726+489379975+490028225+490415293+490549429+490847084
2426+491471097+491976756+492187386+492349439+492534128+492926377+493442127
2413+493637859+493592795+493729828+494311061+495084276+495469913+495454232
2399+495489649+495898159+496662034+497435625+497972543+498340249+498554594
2386+498451478+498020368+497385618+496567270+495484434+494081411+492495779
2372+490730401+488681515+486845541+485422099+484027393+483236554+483637837
2359+484893055+486713041+488780676+491131377+493813991+495907669+496589018
2345+495915169+494800017+494052913+493819377+494444617+495910942+497006663
2332+497162990+497506698+498550605+499702196+500887125+502293660+503811900
2318+505122375+506080994+507149820+508387756+509344228+510366489+511738049
2305+512966543+513826716+514377918+514742931+515254488+516045633+516846733
2291+517378742+517783229+518410037+519208512+519687208+519728557+519887202
2278+520375511+520893510+521298815+521377286+521194029+521437519+522228392
2264+522918876+523132164+523114404+523340509+523810854+524333898+524955218
2251+525506692+526018897+526747457+527450826+527937056+528273299+528351701
2237+528276333+528419127+528819489+529309400+529998964+530795734+531298326
2224+531558621+531734072+531768023+531864321+532209973+532680419+533135288
2210+533540252+533779924+533853179+534116372+534658096+535162086+535498226
2197+535755863+536137238+536764114+537352642+537602233+537745573+538220724
2183+539000450+539506007+539505360+539569615+539897609+540013235+539981533
2170+540430198+541305473+541842936+541911078+542077120+542565463+543157672
2156+543671683+544175571+544664561+544875429+544939719+545293619+545756567
2143+546040348+546382795+546886410+547317451+547478005+547576792+547981585
2129+548544615+548999756+549396096+549721158+549814934+549797515+550159290
2116+550977092+551609968+551688813+551645828+551931076+552406329+552688202
2102+552747379+553057442+553905310+554733952+554991214+555054992+555349648
2089+555701230+556006794+556499671+557198166+557644172+557746299+558009935
2075+558620619+559368132+559848090+559821501+559661527+559623757+559812502
2062+560490885+561255817+561629898+561911498+562340460+562898717+563500811
2048+563928614+564254733+564628268+564847590+564916686+565221806+565751464
2035+566190209+566634851+567165020+567547214+567969869+568584713+568960225
2021+569144095+569439398+569736815+570250349+571187834+572179485+572693053
2008+572568019+572371127+572684599+573338814+573963304+574598498+575067820
1994+574924855+574629177+575082000+576130339+577097208+577741264+578146433
1981+578441839+578815101+579373597+579925343+580217340+580252042+580313263
1967+580884849+582077721+583094426+583431828+583619993+584075407+584692330
1954+585384723+586102000+586664246+586801074+586558301+586268690+586394201
1940+587231877+588307214+589231404+590054559+590760110+591393190+591917666
1927+591862785+591075559+590613600+591163438+591823106+592407305+593266728
1913+593962667+594440102+595011210+595748804+596531325+597227263+597872888
1900+598337438+598290669+597857412+597674087+597741922+597855503+598713223
1886+600126506+601275200+602191414+602906714+603436849+603856130+604146082
1873+604047022+602660873+600754542+601587922+604396764+606108180+606560186
1859+606959832+607745490+608604505+609229404+609626868+609573010+608810395
1846+607521328+607123931+608930521+611069945+612238341+612790361+612994206
1832+612627420+611913688+612133419+613009546+613775841+615122040+616708286
1819+617743262+618204403+618174747+617669087+617332571+618203585+619790649
1805+620681570+620209930+619208087+619426863+620390459+620273129+619057146
1792+619299170+622397281+625166445+625923537+625506233+625049387+625344384
1778+626273006+626298981+624538751+622373965+623093151+626003371+628381410
1765+629184861+628696791+628709403+629822986+631010813+632037540+631696388
1751+629306759+627597866+628784806+630700272+631801856+632045653+632028132
1738+632507067+632001952+629847734+630611235+633960370+637002236+638955949
1724+639750197+640040898+639088415+634948577+631025948+633320676+637560050
1711+640240994+640702885+639041101+637202196+636623247+635276707+633094946
1697+633394442+636807049+641069944+643148896+642638464+640396844+635838067
1684+631958797+635595634+640457998+642670574+642951868+643257227+643536611
1670+642564834+643155509+645934421+647188855+646789277+647670517+649048622
1657+648381931+644094016+638524737+639855869+641233225+640749790+643952006
1643+648965584+651920663+652207001+649848801+649853710+656693444+662678255
1630+665861654+668689449+672115145+675918739+681344917+686974123+690861164
1616+695455052+702597351+708595728+711916433+714153826+716542432+718295368
1603+719656292+721689635+724355308+726740096+728076205+728849182+730301462
1589+732850009+735403941+736401217+736066133+735738889+735101036+732974907
1576+732206157+735287838+736874561+735837130+736425828+738773120+740598117
1562+741028443+736686328+729839162+734658030+742086531+747310022+750739877
1549+753512995+755033382+753516812+749435606+746517751+754205456+765739228
1535+771968858+776103378+782455996+788115403+790901202+792883480+794715841
1522+796075470+800098045+805827605+811983877+818056021+821383885+821125158
1508+817740640+818529024+828076359+834912958+837162349+836595740+837547406
1495+842394158+845766404+843967655+841479648+845959682+852663542+856593126
1481+858619514+859828884+859712576+857805155+855094759+856779450+861421948
1468+862403406+861119861+863442064+867567312+867059266+860166423+858307951
1454+866779063+874700338+879571974+882049141+884901411+889680601+894310485
1441+896866668+895786014+891569615+891454057+895918956+899364287+902777848
1427+906658686+906871531+904254126+901601816+896816218+893521419+896009358
1414+898926599+899509774+898422848+896747565+894472335+891460125+888887580
1400+885711612+880878290+876095419+872562960+871331910+871915358+871595409
1387+868886922+867298563+869133923+871873703+872831436+871553276+869679806
1373+869812408+871194331+871494168+872212741+873065142+870674832+868043247
1360+869193849+870885972+871012915+870068272+868982163+868988504+870450738
1346+871991101+872032143+870885017+870342270+870776823+871037936+871592137
1333+872515577+874009513+877417688+881216033+882316254+880892062+880408696
1319+882807596+885715361+887178482+888862628+892547665+896894484+899962393
1306+902732102+906383528+909544021+911141379+912993170+916445659+919508319
1292+920554408+921607928+924563893+927416504+928574606+928948959+928318810
1279+927420799+927921482+928035063+926759562+927272381+929971459+930085449
1265+926104257+923264940+924188313+925561510+926904845+930060020+933147905
1252+934419928+935099845+935605505+935542511+935699179+937020630+939829676
1238+942392335+942460852+940859471+939957096+941456214+944238603+945287010
1225+945052758+945788988+946339167+945329211+944986628+946755721+949684143
1211+952797799+954961834+955773807+955339664+954066073+953379474+953166970
1198+952269232+952307001+954508465+956711020+958711161+960917192+961053816
1184+960062950+960787863+962489189+963514076+963894087+963992397+965448904
1171+969317879+972334725+973366361+974819459+975899432+975698722+975681747
1157+976982268+979765475+982574453+983531096+983298207+984315322+986846756
1144+988407368+988331761+989469206+992768845+995485854+995994718+994981490
1130+993706057+993596703+994562549+994517144+993400084+994050890+997025945
1117+999788427+1000253795+998461931+996840847+998616076+1004073070+1008191568
1103+1006111184+1000555132+996975904+997075849+999963230+1003910334+1008148822
1090+1011325949+1010857377+1009471432+1012826839+1020306266+1025816914
1078+1027351210+1028653912+1030766952+1031712141+1030280723+1028462952
1067+1029885440+1032936169+1034196125+1034789118+1037277261+1039254768
1055+1036307325+1032242958+1032265865+1033853201+1035523576+1040592785
1043+1048550807+1053610472+1052013182+1045473625+1040190617+1040510225
1032+1043365290+1044370064+1044647403+1045985625+1047448677+1050003565
1020+1054040661+1055394905+1052561315+1049305786+1048997836+1051991366
1009+1054786027+1054330749+1053326861+1053553682+1053014820+1052050269
997+1051417735+1050701889+1050737136+1051970913+1054111155+1056530372
986+1056205378+1051505681+1047634184+1047772240+1048854666+1050595739
974+1053216075+1052776546+1049480111+1049044127+1052870492+1056355229
962+1057192495+1058201428+1061552199+1064763074+1063929284+1059714181
951+1056204901+1055364771+1056679950+1058614846+1060203478+1062057041
939+1064572727+1068151819+1069602463+1065103203+1061436369+1064200828
928+1068154341+1068409523+1065321161+1060893622+1057734152+1058697816
916+1063637628+1068043010+1068594552+1066729740+1064705261+1063311475
905+1063547432+1064050910+1061527043+1057325915+1056973378+1063151603
893+1071092717+1073741823+1069759267+1063368811+1059697955+1058219904
881+1055562344+1053932943+1056178721+1060261632+1062311132+1059318216
870+1052069972+1045348455+1043049908+1043087814+1041291996+1039296900
858+1038258992+1035275416+1030518997+1024611703+1016396249+1009390371
847+1007943135+1008308558+1004913881+999400779+995054438+990801769+984724104
833+978111872+973038435+970060041+968389052+967509380+967334987+965563030
820+963022187+964158473+967077896+964990558+957593692+951364471+949130351
806+949099808+950039271+948989773+941852042+932466488+929828563+934579187
793+940175600+942702671+941850270+938855921+934566302+928740546+922065933
779+916655504+913460242+910953623+908025406+905734495+905218404+904413453
766+900637265+895401093+890758869+886773858+884541784+884834803+885225723
752+884264854+882879863+880136879+876930845+876223044+876592898+875306012
739+874640207+877232114+878882036+875581783+870752688+867220706+864563146
725+864254515+866706729+867294813+864021899+863190359+868352697+872469627
712+869395240+864567032+863105889+861563140+857647737+854423432+853837120
698+855056989+856088557+854866711+852294848+851814277+853839370+855158708
685+855978385+859878584+864181089+861046776+851493305+845178320+844545785
671+842999354+839571885+842297894+847726526+846521042+841852569+838745390
658+835206113+831805847+833107663+835405528+834875120+836095194+838749004
644+837283634+831553528+823747470+817539521+810206262+790675949+772039761
631+779334296+805554425+822492286+823369981+818097267+805734750+789660880
617+780322844+781957563+796611945+816830493+821299892+807427077+792953974
604+789646017+796565381+800317707
##END=
