##TITLE=Sample description
##JCAMP-DX=4.24
##DATA TYPE=INFRARED SPECTRUM
##DATE=25/8/2023
##SAMPLING PROCEDURE=Instrument type and / or accessory
##ORIGIN=Default
##XUNITS=1/CM
##YUNITS=ABSORBANCE
##RESOLUTION=4
##FIRSTX=4397.6552
##LASTX=599.8556
##DELTAX=-1.9287962
##MAXY=1.9399688
##MINY=0.61892533
##XFACTOR=1
##YFACTOR=1.8067368e-009
##NPOINTS=1970
##FIRSTY=0.73179132
##XYDATA=(X++(Y..Y))
4398+405034830+405169364+405441962+406349523+407147392+407388715+407498540
4384+407787831+407580290+406485410+405313565+404702256+404661678+404853780
4371+404742966+404614964+404939950+405764739+407236136+408312475+407907388
4357+406791361+405814785+405150263+404878259+405029651+405420156+405684078
4344+405595730+405324814+405233926+405083557+404735048+404636605+405003720
4330+405645908+405901318+405798059+406034401+406208160+406048158+406393400
4317+406836789+406129710+405252632+405160061+404499531+403339760+403238249
4303+403896074+404471522+405114436+405410589+404537173+403430912+403577190
4290+404362852+404658907+404660985+404916065+405634658+406300533+406228647
4276+405776351+405513848+405282092+405111038+405204268+404959184+404165637
4263+403891158+404597776+405248244+405229340+405133108+405295618+405580356
4249+405489501+404651550+403880469+403901022+404577025+405347478+405510978
4236+405265234+405078707+404673521+404022954+403669827+404017544+405199715
4222+406754643+407747220+407766222+406814356+405202849+403933946+403577883
4209+403505733+403428239+403874300+404655509+404919892+404488017+404246793
4195+404540901+404454202+404018896+403832436+403753094+404068052+404896205
4182+405699022+406202882+406026351+405055548+404170354+403978450+404341970
4168+405044892+405442919+405177348+404918639+405000685+405219542+405439521
4155+405249498+404669892+404288459+404317953+404816963+405270380+404730660
4141+403741712+403773977+404707732+405008636+404355561+403774274+403594378
4128+403727395+404283742+404923983+405372914+405659698+405450375+404986071
4114+404878555+404502335+403489832+402918639+403603879+404917022+405773382
4101+406092200+405771073+404404585+402932627+402667353+403627665+404831050
4087+405110576+404349326+403992768+404905014+405803337+405617833+405087318
4074+404457864+403445460+403181407+404092102+404756162+404623937+404137397
4060+403525791+403358927+403942656+404491217+404432990+404247650+404156400
4047+403828873+403713143+404214264+404623871+404863215+405142774+404862027
4033+404310794+404360708+404743658+404609553+404287932+404892873+405912667
4020+405920288+404988644+404311915+404148086+404019523+404045354+404334910
4006+404896205+405491514+405514244+405291593+405286809+405149306+404869021
3993+404825309+404691666+404119352+403612193+403529189+403888882+404399274
3979+404356287+403651187+403270183+404078642+405137892+405292517+404908742
3966+404468388+404223073+404248937+404000257+403343520+402980100+403441304
3952+404320823+404546839+403833293+403062048+402907027+403814357+405118790
3939+405268863+404467167+403964067+404113215+404224458+403794332+403122915
3925+402629216+402850317+403529519+403616976+403200805+403271470+403610510
3912+403689093+403703114+403347380+401989833+400633407+400356751+400491186
3898+401614932+403257713+403552613+402616086+402526287+403070988+402839133
3885+402422598+402081183+401198892+401220468+402032621+402059112+401337550
3871+400216180+399886673+400974031+401394491+401196253+402019128+402810497
3858+401989503+398539748+393376218+393994257+398872257+402717762+404018830
3844+402839199+400601307+398256428+397026355+398506989+400532457+401763784
3831+402923621+403438796+403064555+402521932+400821880+398448926+398468885
3817+399286152+400943581+403817557+405386407+404828443+403110676+401907456
3804+400548226+398583988+399213178+401647196+403935068+405912733+406877499
3790+406893631+406684341+406192325+405687179+405485576+404957567+405046377
3777+406514046+407512396+406859948+405115986+404434474+405490524+406558714
3763+406759229+405999629+404971555+405072208+405587251+404511308+401857377
3750+402575442+406545221+409520774+411771928+415055115+418185029+419572301
3736+418791653+418412068+421105389+424976693+427098690+426235039+423835858
3723+422026707+420727124+419424670+418131222+416955813+415998008+417140427
3709+422343908+429297224+435503707+440562461+446388798+453770096+461542361
3696+469122161+474835638+477075213+477716707+480248971+482531003+481427843
3682+477084450+471105467+463691113+452897339+444644275+443745951+442687031
3669+439612178+438057315+437032309+435508953+433729625+431276703+427774725
3655+425382242+424293795+420594668+413965019+412987882+416910881+420351926
3642+422291850+422893492+422552209+421626173+420169919+417898344+413326526
3628+408733628+408634690+409005665+406698329+401899967+397734754+396016920
3615+394262335+391812844+390253298+390037641+390440847+390546713+389866322
3601+388687021+387459983+385959159+384123517+382507788+381020193+378230111
3588+374048138+371678121+371520857+371446794+370538540+369335551+368402258
3574+367338389+366222297+365392626+363978896+361363333+359678588+359527328
3561+359406551+358664798+357752817+356885669+356094365+355486653+354723424
3547+353845224+353161964+352391708+351711120+351521195+351480188+351035117
3534+350049336+348612216+347255361+346997246+347854794+348321111+347522483
3520+346484380+346056959+345998863+345930474+345642536+345343215+345396363
3507+345679386+345674932+345086947+344352288+343870400+343725144+344063953
3493+344242101+343596845+342940010+342720559+342565307+342902995+343648574
3480+343874227+343590214+343291421+342958022+342618982+342572829+342834309
3466+343279116+343700797+344018130+344107138+343521198+342787232+342912364
3453+343607699+343940669+343640326+343250250+343241837+343359975+343623534
3439+344409163+345311083+345552142+345028357+344591071+345010608+345643360
3426+345951192+346405830+346825433+346924503+347215641+347850802+348570451
3412+349342686+350197231+350941293+351587307+352521030+353654178+354807186
3399+356181526+357306723+357797980+358360365+359299827+360201351+361108912
3385+362511326+364721770+367309325+369335320+370730675+372169114+373790551
3372+375778607+378671157+381864874+384209093+386355239+389431973+393032262
3358+396469876+399506527+402731189+407075671+411949580+416268033+419707363
3345+422401344+425421863+429632636+434063750+437690101+440762217+443274059
3331+445193595+446822025+448025047+449207878+451373323+454521085+457275868
3318+458379324+458054173+457749475+458365007+459429040+460666866+461941180
3304+462715097+462763494+462131764+461187386+460073174+458548795+456712691
3291+454954049+453266698+451296159+449242617+446834166+443491267+440396058
3277+438660970+437438617+435832719+434104724+432737015+431802271+431015289
3264+430031158+428885275+427840211+426961055+426426811+426117231+425107499
3250+423366308+421797623+420253054+418465578+417708749+418609382+419335827
3237+418508267+417035650+416125944+415911013+415680346+415250285+414882279
3223+414071116+412683745+411768365+411798419+411879740+411390429+410982142
3210+411371856+411989960+411771895+410743689+409918175+410009788+410537995
3196+410614202+410353810+410275096+410154418+409940806+410053369+410314486
3183+410061253+408990754+408206708+408872484+409742238+409250420+408493129
3169+409169725+410620141+411315607+410943841+410452352+410756159+411204166
3156+411012691+410820952+411737387+413179192+413050761+411580750+411695886
3142+414178598+415773180+414507972+412766286+413344341+415498932+415842921
3129+414118621+413818872+416628451+419513842+419063295+417065044+417398872
3115+420213070+421058840+418099914+415644617+416962609+419994741+420133959
3102+417356909+416409924+419676220+423538682+422339026+417837015+416376406
3088+419797657+423185555+421453403+417862319+417474948+420009256+421436941
3075+419694299+417989595+419045777+421714752+422348989+419746258+417442518
3061+418022024+420289574+420728773+418584079+416719340+416477356+417184436
3047+417781097+417899136+417792412+417821675+418103378+418162860+417968415
3034+417765888+417608624+417730721+417888117+417733195+417910155+420386664
3020+429593806+446167565+458136549+455046487+443923702+434768256+429887056
3007+427454753+425824970+424778026+424192152+423710627+423378152+423569693
2993+424358423+425907017+427639598+428050722+427729232+428384154+430264332
2980+432237577+432327838+430703234+429637188+430163877+431948879+432971774
2966+431548246+429542638+429624454+432341595+434697360+433364358+430683077
2953+430162393+432058341+434761592+435222433+433239358+432101294+433278220
2939+435688519+436914864+435721740+433825000+433180437+434644708+436713525
2926+436223290+433730714+432367096+433235003+435067280+435017596+432542835
2912+430724150+431159951+432510769+433212899+432853735+432094135+432037359
2899+433468673+435544879+435934197+434438585+433416119+433810583+434885108
2885+435680535+435593903+435248396+435282046+435620757+435970684+435687463
2872+434884415+434542933+434940300+435586480+435950626+435862938+435727282
2858+435922782+436426411+436942147+436708114+435439904+434255720+434324109
2845+435197987+435613367+435686407+436286565+437147742+437761426+438308866
2831+438816882+439124351+439455870+439897906+440206793+440454055+440750835
2818+440964084+441146685+441430566+441758851+442079054+442421460+442720648
2804+443047119+443695476+444454482+444749184+444673999+444811634+445263600
2791+445582220+445632134+445801473+446238263+446566615+446482160+446407206
2777+446867816+447496016+447807938+447864186+447668455+447526499+448035604
2764+448720646+448704975+448437424+448749347+449410009+449907469+450338684
2750+450663934+450669444+450811038+451357983+451916375+452300546+452414099
2737+452288472+452235688+452357158+452825322+453735819+454546026+454861346
2723+455022701+455352505+455608443+455661227+455862336+456222457+456456094
2710+456735422+457172674+457445602+457581753+457888199+458330433+458771149
2696+459128895+459360454+459574098+459883448+460207214+460269763+460044704
2683+459958137+460323966+460907629+461251849+461323768+461365500+461505379
2669+461901657+462410564+462512240+462204475+461994756+462132028+462604646
2656+463156638+463389978+463342340+463365730+463684482+464340822+465170097
2642+465657924+465410530+465022070+465163994+465561559+465909111+466202131
2629+466315221+466265439+466266198+466400567+466743863+467352862+467885688
2615+468017154+468078779+468629716+469407823+469672834+469542456+469443783
2602+469361406+469489474+470060403+470743037+471168511+471488352+471847384
2588+472057301+472016591+471900234+472005737+472327491+472424383+472158251
2575+472050241+472309775+472522793+472605961+472841544+473258409+473653368
2561+473934313+474108105+474107412+473992276+473978618+474216544+474631957
2548+474981983+475094711+474982808+474888390+475043015+475417751+475729277
2534+475749566+475760189+476143008+476748477+477254118+477598569+477673292
2521+477502799+477562445+478046379+478691403+479250357+479609653+479705391
2507+479514740+479447308+479809475+480225614+480484158+480730859+481000191
2494+481253688+481497717+481721753+481790538+481778958+481925501+482111599
2480+482241250+482500190+482893137+483277011+483644522+484033444+484273019
2467+484264705+484218189+484148184+484050533+484169430+484534301+484925829
2453+485026120+484827321+484733496+484790800+484842562+485113577+485743030
2440+486434835+486921540+487227425+487371592+487334742+487315905+487445392
2426+487567191+487715285+487983957+488207037+488364829+488472179+488463503
2413+488533970+488893992+489502068+490069005+490188594+489951032+490007148
2399+490556567+491338337+492892770+496462971+503124258+513991204+529857421
2386+550266690+573745797+598214974+621731591+643872120+665520039+687665846
2372+710810267+734127228+755845086+776157429+794241084+804674901+805969174
2359+801949777+792981518+777315122+757419445+738682649+727897882+730888116
2345+744371351+751689440+745926378+736670972+729232337+726196708+729513875
2332+734451587+733996784+730019021+728309402+729595493+729724749+724137525
2318+712375060+699568190+694570699+699297274+703150598+697093000+682901662
2305+666285808+653026642+644536015+637254215+629366122+620814594+610194251
2291+597760962+586036699+576222967+567832564+560555317+554547336+549709947
2278+545290874+540878366+537104911+534132063+531435608+529076444+527326412
2264+526035372+524786792+523411858+522227410+521350332+520485659+519333871
2251+517923143+516890681+516747339+516954253+516772246+516395003+516219495
2237+516062363+515760535+515409090+515120756+515129531+515511921+515974345
2224+516298573+516452043+516396521+516287521+516494040+517091361+517571368
2210+517587699+517615179+517990377+518385171+518706661+519078164+519406120
2197+519748459+520228203+520712367+521062723+521407504+521896518+522297316
2183+522428519+522633289+523004330+523039432+522786364+522811700+523019143
2170+523143615+523294908+523631144+524317275+525039563+525245488+524959001
2156+524478927+524049559+523948246+524149981+524177594+523899750+523791510
2143+524108018+524556916+525020395+525719986+526352573+526596206+526789430
2129+527124314+527518745+528051966+528708075+529162021+529436367+529883946
2116+530317734+530398923+530259308+530230541+530520789+531045069+531438280
2102+531573177+531742450+532021910+532310409+532554834+532591750+532542298
2089+532719884+533050875+533431252+533973677+534563707+534973149+535160138
2075+535318788+535708270+536328981+536992217+537547607+538119624+538866391
2062+539615995+540053643+540211963+540769036+541848377+542643573+543117544
2048+543899346+544787740+545365102+546000031+546810535+547325677+547430718
2035+547452921+547733635+548153171+548492871+548925802+549409406+549758013
2021+550219184+550573631+550194474+549647199+549665377+549921744+550053705
2008+550049713+549983007+549787705+549572476+549649904+549883376+549963246
1994+549892647+549883706+550082373+550342138+550437810+550443319+550713971
1981+551341412+551981818+552260916+552154060+552137202+552552351+552961793
1967+553040210+553263224+553789682+554341147+554939194+555469214+555686158
1954+555798457+556211692+556946715+557652969+557974888+557758538+557522130
1940+558126709+559239073+560155475+560918275+561457599+561613445+561813234
1927+562032751+561775493+561561914+561954630+562317588+562584413+563210304
1913+563845893+564303996+564965252+565811517+566221915+566221717+566576824
1900+567254773+567387526+566969539+566819236+566924409+567006291+567452912
1886+568106844+568604073+569163851+569848926+570456870+570880266+571051420
1873+570688263+569500549+568336588+569226005+571679751+573425792+573708914
1859+573356380+573212807+573461685+573935623+574234448+574186018+573755892
1846+572794095+572414377+573593844+574692550+575015854+575358029+575750349
1832+575055047+573303068+572709508+573706407+575167411+576746455+577777664
1819+577986756+577968743+578087970+578024167+578015061+578759057+579732202
1805+580233390+580148473+579533007+579264203+579568175+579333614+578558410
1792+578765127+580325498+581676184+582296004+582420509+582210560+582104859
1778+582235830+581748894+580047787+578416684+579994607+583573188+585911864
1765+586323385+585633757+585268687+585564543+585638639+585612511+585216497
1751+583753842+582386793+582985566+584781883+586020666+585761165+585012353
1738+585111522+584681791+583378479+584620561+587362642+589572987+591029242
1724+591414633+590902955+589453761+586213791+583975734+586663118+590000936
1711+591276602+590721839+588982990+587661798+587252125+585363039+582375775
1697+582209372+585281025+588916152+590268025+589652758+588284521+585334866
1684+582296400+584382174+587675522+589048377+588412589+587306097+586397283
1670+585422356+586607298+588633162+588549103+587672289+588412325+589219860
1657+587943996+583220126+577998038+579798777+580888246+580031754+583094368
1643+587727514+589797387+589247638+586683440+585483585+589592320+594053587
1630+596609471+598337103+599702437+600800483+603524552+606805957+608131636
1616+609565919+613594355+617478293+619829506+621089931+622355898+624257256
1603+626501317+628544599+630268272+631626743+632485347+633345930+634703939
1589+636357607+638021898+639283972+640057064+641127003+641957235+641003224
1576+640824813+643938628+645707498+645254542+646580089+649863803+652175230
1562+652352916+649323951+646781329+652220031+658478936+663600404+667550455
1549+670264560+671406484+670375407+667053358+664530860+671299331+680204778
1535+684443229+687352835+692096301+696074327+698126253+700043117+701713544
1522+703502670+707849131+714124201+722134095+730040333+735105784+736426118
1508+734401838+737299699+748441025+757178023+762453819+765421157+768800939
1495+774425772+779692793+783030545+786435532+793202288+801151744+808039574
1481+814498597+819855945+822519378+822682086+821974181+826310878+835697124
1468+842637936+845665383+849090032+854021542+856421778+855542391+860346031
1454+872086327+881359746+885919918+887459440+889973823+894129073+898133030
1441+900319094+898316192+894894248+899090406+907286233+911327931+912477838
1427+914774287+916211671+915664363+914128009+910083606+907294546+909006013
1414+909547383+906424858+901306953+896323648+892287823+889265193+886428957
1400+882832693+880244083+878896036+877162202+876879542+876900062+873585535
1387+867755239+865291991+867241911+869440643+869251807+867736104+867140631
1373+868403233+869717827+869074518+867784138+867374070+865975416+864059344
1360+865002073+867336989+868578543+869476405+870895314+871873672+871794693
1346+870673554+869083161+867441964+865629217+864989207+866332700+868317062
1333+869854538+871516718+874048321+875509656+875001013+874584346+876008138
1319+879663191+883213994+884807224+885905930+887530237+890583086+896003379
1306+901351490+903939705+906014790+910318760+915075158+917367121+917967872
1292+920117647+924547508+928649182+930432832+930248350+929467406+929561296
1279+931369490+934203350+936632486+938540244+940025266+940771373+941497290
1265+942250984+942689952+942848965+941946748+940845469+940911449+942087419
1252+945496034+950600875+952592297+950155507+948054558+949072834+952208819
1238+955344605+956620535+956247151+955385843+954606086+954444434+955614267
1225+958033110+959776511+958786145+955687769+953196282+952927609+954349092
1211+955889340+956497943+956589854+957024269+957675364+957138481+955470364
1198+954635447+954642309+954461259+954496822+955075933+955242071+954045582
1184+952569270+952787203+954133996+954599026+954724851+955873240+957527172
1171+958684535+958465216+957069202+957038983+959723001+961859052+960280866
1157+956728677+955352853+958093284+962505792+966088728+968535877+968880097
1144+967555737+966266809+965332856+965719568+968757439+973007899+975698845
1130+976922981+979169813+981653712+981734406+982051047+984725036+987721604
1117+990064833+989515282+986059556+984568266+986902588+990728992+991702138
1103+987771881+984335421+987946531+997181088+1004999572+1007786982+1006193356
1090+1002995680+1003363323+1007196655+1009127308+1011519495+1017472185
1078+1021950145+1023524505+1023492108+1022864040+1024963868+1026960898
1067+1025177183+1024844443+1030242765+1036695323+1037775554+1034609219
1055+1034799704+1041767041+1047997046+1046642930+1042923942+1042212475
1043+1041734117+1040582230+1042965774+1047288812+1048223491+1047316854
1032+1048141214+1049999157+1052123529+1053261956+1050200925+1046155400
1020+1047638971+1052985630+1055402097+1052656453+1049071538+1048662855
1009+1050782741+1053269807+1054564014+1054202573+1054211480+1054599247
997+1052310056+1049548379+1048902694+1047239723+1044503910+1042769152
986+1041654281+1042151839+1045636398+1050570877+1054838294+1058156187
974+1058804313+1055730878+1052871681+1051814015+1050415428+1050523504
962+1052789668+1053005358+1053043626+1056119767+1058158364+1058763933
951+1060656912+1061275346+1059783199+1059690232+1061988529+1064230017
939+1064320212+1062011490+1059282605+1059602808+1062959431+1064408296
928+1061893517+1058153416+1055992292+1058676905+1065613560+1069650838
916+1067721833+1066180200+1069816053+1073741823+1073466948+1072592774
905+1072649385+1071450520+1068949268+1066549427+1066498622+1069227705
893+1071629459+1071512938+1069620223+1067814866+1065982919+1063837367
881+1065487142+1069844292+1069578523+1066558928+1064679673+1060942541
870+1055195381+1050016576+1047321737+1046685157+1044388114+1042201918
858+1043090543+1042122544+1036956671+1032209906+1030656463+1029270214
847+1025401318+1022441172+1020970468+1017401784+1013364836+1011862924
835+1011677782+1010182072+1004956949+996360555+990593402+992727210+997730507
822+995850856+988038640+981431754+977168230+976538711+978653318+975708677
808+966690206+957582926+953197997+955341834+958221814+955669097+950896797
795+948669100+948515233+948355825+948128390+948655244+948630501+945591838
781+940469314+936455658+934626812+933273487+930601082+927657694+925542559
768+923461932+921365073+917801008+912018746+908924131+909474078+907305103
754+903067575+902536433+904490905+905635864+905759379+905486550+904325558
741+900033729+894440501+892358950+893082689+892926843+891011101+888120828
727+885398739+885799636+892217026+900685088+902354921+897266641+894134813
714+896611059+898513407+894642071+891850768+895679679+898549960+894214452
700+888838497+888993617+892910282+895325562+894620099+892940567+891709768
687+891360138+892230486+892219929+890082228+888392931+888860271+889397483
673+888994343+887385344+878775094+868922565+872800235+879003914+879505696
660+880418601+883810326+884805311+883922097+881506816+872341737+861279588
646+856115695+852229777+846871241+844664459+845089571+845037051+849213613
633+859020484+864016457+857735251+848145258+846319051+844188147+826361617
619+808878515+807516547+810187897+809694298+819509086+845446394+868076432
606+864961627+845253137+836071365+844674027
##END=
