##TITLE=Sample description
##JCAMP-DX=4.24
##DATA TYPE=INFRARED SPECTRUM
##DATE=25/8/2023
##SAMPLING PROCEDURE=Instrument type and / or accessory
##ORIGIN=Default
##XUNITS=1/CM
##YUNITS=ABSORBANCE
##RESOLUTION=4
##FIRSTX=4397.6552
##LASTX=599.8556
##DELTAX=-1.9287962
##MAXY=1.8676454
##MINY=0.91569394
##XFACTOR=1
##YFACTOR=1.7393803e-009
##NPOINTS=1970
##FIRSTY=0.97492599
##XYDATA=(X++(Y..Y))
4398+560501916+561881501+563622748+564471834+562413611+559592861+558755083
4384+559041356+558926764+558912886+560068566+561591219+562265745+563256083
4371+565315986+566609285+565916905+564377050+563751012+565153077+567717127
4357+568864548+567781927+565668464+563633782+562366184+562186004+563072991
4344+564484753+566266745+568164698+568159661+565350802+562702728+562527482
4330+563270236+563758277+564658799+565622305+565690532+565402409+566355395
4317+568347037+569618850+569271855+567451312+565462104+564486878+563917930
4303+563448805+563621857+564242240+565502231+567091055+567208114+565730728
4290+564313723+563936983+564924820+566935925+568141362+567483215+566747487
4276+567468926+569160005+570568683+570502581+569327368+568587870+568373628
4263+567841279+567243478+567567514+569133447+570417528+570213464+569240911
4249+567751258+566782200+568210034+570410880+570386824+568863143+567751977
4236+567771201+569967764+572518518+571812568+569399982+568722440+569159765
4222+569072862+569736457+571558233+571764319+570205719+569922085+571646952
4209+573419520+574016875+573530822+571706475+569366091+568579064+569461767
4195+570877676+572480378+573638799+574110940+574317061+573918287+573223337
4182+572570331+571967116+572505976+573833886+574851466+575422573+574823709
4168+573645105+572770660+571684887+571351324+572119128+572386690+572208189
4155+572818567+574637293+576532985+576616050+575360959+574899270+575682254
4141+576376929+576353011+576657034+577095661+576570405+576273715+576997587
4128+577500500+576761414+574503752+572458515+572545692+574186638+576659912
4114+578674925+578447661+577170159+577034665+578476651+580109098+580339652
4101+579931523+579751000+578821728+577356850+576976341+577508656+578135002
4087+579706658+581667047+581714679+580548068+580486386+580992178+580572467
4074+580056326+580289415+579719405+577771421+576710834+577580550+578834064
4060+579255146+579218274+579276735+579369943+579930426+580989711+581277012
4047+580423608+579378647+579285370+580278038+580727220+580082301+579915965
4033+580378032+580583912+580914733+581544437+582257960+582913228+583072299
4020+583028505+583394553+584046874+584283938+583995883+584230686+585033237
4006+585250700+584659787+583797747+583430602+584118356+585317453+585810909
3993+585022751+583925292+583368783+582749908+582758543+584489407+586162359
3979+586060104+585007262+584514217+585161398+585937699+585648411+584933038
3966+585273933+586407579+586925570+586813515+586797546+586850181+587134261
3952+587374409+586050166+583773074+583115545+584345414+586364813+587529299
3939+587542732+587934481+587957372+586263723+585104993+585809881+586844355
3925+587721062+588391065+588585226+588364336+588539924+590003499+591277780
3912+591511211+592127688+592595237+590257355+585561371+583243980+584541906
3898+587357275+590180252+591808793+591607846+590377977+588981429+586657870
3885+584647519+584913368+586289081+588379276+589646635+588461999+586594064
3871+585528954+585889930+587110342+585826878+583964631+586159343+589404430
3858+589820304+586764375+581798909+582941328+588564391+592113776+591851079
3844+588662259+585857650+586013226+588144337+589842509+590287236+590440961
3831+590916323+591010148+590927495+591533623+590744642+588688783+590678231
3817+592505250+591423555+593208973+597193010+598795164+596462969+594262637
3804+592986027+589246730+588358853+592615867+596604358+598011323+598398412
3790+599469005+600991726+600583392+597970134+596243724+596432814+598154083
3777+600880014+603004477+602905032+600032504+597703119+598745613+600607311
3763+601555362+601041826+598486823+596933054+597609363+596307668+589981431
3750+585821669+588047290+590642730+593169359+597423906+600463249+599703259
3736+594580162+590433217+592368111+596796669+600130578+601457425+601094187
3723+600502520+601107551+602786123+604607865+604901676+600809902+595284433
3709+596255170+601295270+606237707+608429198+608049237+609707317+612814373
3696+613816911+613144509+612008670+610055957+610415288+613355393+614767429
3682+613759135+611567918+608629733+603766043+600806406+602042787+601937242
3669+601352017+603528773+605323924+604780848+602983573+600870624+598481545
3655+597764047+598124750+594332064+585579533+583042829+586198683+588443494
3642+589101024+588917143+587474128+584461719+581742231+580113690+575986414
3628+571445321+573240128+575386180+573662101+569447100+566596914+566699169
3615+567424789+567398026+566510697+564912483+563289357+561638954+559256146
3601+557120100+556720881+556737707+555697578+555374604+556248089+554612078
3588+549497514+546859960+547601685+548147570+547480343+546452002+545592430
3574+544218876+542828017+541945828+539289392+535865050+537329585+540767120
3561+541389148+539721508+537515282+535132988+533638812+533834035+534301242
3547+533381701+531923403+532373475+533890920+533742472+532236610+531642544
3534+532372653+533275642+532706798+529681675+526571637+526448376+528558584
3520+530206520+530292258+529344995+528764396+529743186+531510853+531695556
3507+530344996+529310213+528550668+528086889+528794072+529790475+530101832
3493+530072773+529560607+528752265+528190411+527361098+526456806+526750138
3480+528226735+529157310+529019965+529374499+530475865+530646209+529670710
3466+529515956+530458559+529977200+528027434+527797052+530172766+532824953
3453+533919122+533769578+533150257+532458425+532225713+532825912+533523878
3439+533607937+534038202+535137957+536065037+536949076+537655609+537313068
3426+536101052+535241549+535706425+537073845+538035878+538597595+539866255
3412+542080260+544699927+547066115+548184511+547559502+546484248+546363968
3399+547060495+548711206+551351879+553881798+555377722+555899826+556728283
3385+558375876+560393184+563209993+566439454+568910878+571105145+574183314
3372+577636749+580203198+581776156+583581655+586987183+591261811+595296358
3358+599205554+601978089+604044503+608136552+613551747+617293853+619413930
3345+621582119+624677251+628575412+632122261+635137686+638563981+642818390
3331+647337210+650359008+650904551+650805585+652436045+655435501+658067538
3318+659905591+660847749+660421389+658913814+657690387+657781882+659237233
3304+662220995+665883052+667139307+664950009+662656332+661294326+659159788
3291+657676543+657773041+657914841+656827594+653239692+648449404+645462490
3277+644830798+644541921+642950527+642364548+643943126+643560904+640334253
3264+637989105+637090605+636171407+635298950+634793706+634868342+635688300
3250+636097183+635242957+633878621+632131925+630619278+630779857+631052559
3237+629617632+628786228+629808297+629939406+629127192+630360694+632325743
3223+631748811+629523670+627922749+627719815+628921174+629915487+629510579
3210+628868059+627638875+625525652+624908078+626103954+627293045+627571299
3196+627383717+628082437+628768134+628011777+627708987+628977236+630400992
3183+631311624+631583572+631014111+630496942+631097998+632221158+632305388
3169+631358570+631513529+633544716+634916454+634052906+632651013+632219582
3156+632793361+634091423+635271399+635489479+635899184+637530808+638433764
3142+637626210+637121857+637702490+638479066+639235492+640063949+641010218
3129+641723947+641484484+641180803+642280250+644735739+647150039+647459203
3115+645887547+644705104+644701883+645788308+647405814+648372164+648541584
3102+648332551+647768161+646953548+646541581+647152507+648014409+648398139
3088+649027089+650275326+651381489+651606765+651708883+652555571+653196035
3075+653066983+652551870+651564342+650956501+652192470+653977203+654591144
3061+655092275+655242710+654545704+655043135+656911070+657812586+656680996
3047+654951092+654603137+655740278+656730685+656913195+657340513+657548039
3034+656546804+656183155+657913402+659498353+658675790+656711974+655974121
3020+657100571+659019770+660162531+660465732+661562985+663720894+665102981
3007+665285422+665248344+665171996+665151298+665602878+666677652+667825416
2993+668923286+670887513+672985179+673481925+673228960+673835431+675096552
2980+676528670+677842427+678477408+678319091+678045498+678729345+680396608
2966+681717218+682160369+682318411+682015827+681045981+680752033+682209029
2953+684326090+685725791+686668839+687324038+687335484+686926258+686433968
2939+686566721+687788709+688953264+688717982+687828185+687912690+689179637
2926+690401419+689693516+687452268+686060312+685534714+684529915+682940508
2912+682225340+683861762+686632241+688152770+687946067+687059971+686363719
2899+686053733+686247620+687334387+688930099+689655136+689568918+690229806
2885+692013648+693801054+694453238+694084928+693598120+693299854+693261954
2872+693468588+693771926+694647673+695715593+695887754+696175192+697731907
2858+699069583+698292459+696182731+695340498+696044769+696117005+695458311
2845+695760209+697149698+698551592+698827653+698238521+698310689+699266211
2831+700493750+701617116+702488887+703416584+704150119+704630827+705329889
2818+705552081+704982209+705167803+706570176+707383281+707315088+708090225
2804+709414330+709946371+710416114+711537834+712381986+712503773+712866326
2791+713851387+714117236+713133478+712524608+713161577+714250606+715260065
2777+716016834+716312017+716310509+716556277+717647499+719159598+719847215
2764+719367466+718358350+717785461+718156992+719067349+720369935+722284474
2750+723919799+724239038+724017668+724157823+724428675+724840368+725303120
2737+725315319+725228142+725685548+726126574+725917609+725693566+726353152
2723+728241648+730679661+732030632+731446916+729856138+728682605+728503796
2710+729118765+729851546+730135557+730411139+731302100+732244532+732986703
2696+734504147+736461863+737430407+737278327+736608324+735837574+735439862
2683+735549176+735667948+736063398+737477696+739087184+739674876+739562272
2669+739744302+740352897+741077044+741929899+742542675+742593186+742289368
2656+741766099+741417665+741683651+742436171+743346459+744085478+744863493
2642+746047923+746904617+746939159+746324258+745617863+746594631+749128456
2629+750588399+750140109+749233590+749519588+750878921+751646793+751325225
2615+750754461+750870286+751983782+753351339+753991667+753820739+753680995
2602+754046426+754660093+755369641+756162049+756742887+756387256+755494307
2588+755801963+756919914+757103863+757295283+758951100+760668189+760773733
2575+760355873+760933901+761582658+761301388+761019502+761311600+761951653
2561+762438735+762238268+762470193+763739744+764306327+763813283+763995313
2548+765136018+765784501+765557305+765245949+765072006+764920611+764768804
2534+764696774+764857078+765309755+766178922+767200924+767884154+768528662
2521+769789372+771146718+771115328+769853453+769275493+770046723+771228069
2507+771911437+772042819+772202027+772300718+772105529+772347185+773466507
2494+774938855+775947903+776470486+777295037+778010822+777635178+777046322
2480+777293666+777708306+777822143+777929470+777731265+777522643+778321219
2467+779629973+780369128+780336094+779603655+779053452+779603723+780419159
2453+780499208+780531557+781011100+781154133+780966209+781051810+781259678
2440+781728187+782768556+783599137+783517100+783556234+784747655+785915226
2426+785325752+783653829+783212323+784073883+784401414+784456448+785278257
2413+785953811+785978004+786292308+787132896+788107676+789110282+789741288
2399+790036334+790635882+790806604+789703251+788657811+789464062+791600108
2386+792254416+790742318+789480237+788584889+785805089+781377354+777409902
2372+774116840+770900881+768621253+767885936+768008477+767893886+767637563
2359+768112309+768983737+770543263+773957016+778150565+780435950+779789318
2345+777175648+774520446+772934740+772049810+772461023+775148985+778055712
2332+779331363+780416486+781800355+782792817+783868070+785508193+787679672
2318+789418212+790362974+791636706+793145309+794682560+797132499+799557901
2305+800595803+801249494+802260393+803185554+804421728+806311115+808112433
2291+808990990+809160821+809157394+808760094+808194950+808145536+808560381
2278+808674835+808560518+809537766+811009497+810835143+809352309+808850355
2264+810134710+811844328+812884765+813225729+812708972+812092426+812904846
2251+814367668+814583623+814010324+813845085+814046579+814410845+815192561
2237+816269870+816700547+816226899+816220662+817254931+817827545+817688349
2224+818214428+819292971+819845230+819389675+818717821+819049464+820020887
2210+820774023+821122320+820751064+819947074+819615019+819775598+820248082
2197+821093330+821908628+822563553+822977097+823167077+824090456+825791644
2183+826740106+826520450+826203405+826196620+826416619+826847913+827029121
2170+826991358+827279823+827897191+828621611+828899865+828173389+827487143
2156+828187028+829390854+829730721+829393527+828872862+828815498+829740179
2143+830825439+831267356+830993830+830288189+830055031+830536356+831319168
2129+832406621+833477146+834091566+834546162+834957375+834765407+834105959
2116+833685219+833461725+833406622+833938664+834784460+835119530+835145642
2102+835499217+835380445+834387297+834094308+834987805+835598456+835661098
2089+836205064+837350772+838351458+838757463+838972527+838756709+837589618
2075+837355432+839171417+840697086+840718469+840658569+841133862+841375724
2062+841137084+841004604+840838749+840243312+840050865+840486887+840636158
2048+840619846+840984524+841492440+841829977+842285053+843018726+843552960
2035+844184377+845311855+845819840+845176634+844957252+846148193+847305621
2021+847074930+846125851+845825048+846687499+847731432+847863226+847427271
2008+847227559+847379913+847975555+849111120+850087614+850177875+849925390
1994+850268616+850929024+851437420+852182127+852975768+853097761+852600810
1981+852268893+852475664+853216602+854649542+856032177+856198718+855023129
1967+853447018+852792504+852914771+852963637+853467099+854936911+856126550
1954+856091528+856199815+857161779+857905115+858352994+858948499+859788470
1940+860704104+860848303+860580740+860635021+860462448+860249166+860752422
1927+861551409+861375821+860093727+859521113+860095852+861091810+862297555
1913+862708630+862117717+862160826+863547779+864808352+865020675+864620702
1900+863616863+862307972+861908958+862631528+863199961+863025539+863537156
1886+865102233+866636742+868245682+869036513+868127389+867456427+868191881
1873+868387139+865718230+861988185+862856599+867419349+870769707+871385361
1859+870523116+870122869+870370419+870381522+870306475+870342662+870156588
1846+869168992+867944263+869120400+871729889+873349863+874402499+875297093
1832+874097927+870939401+869970583+871093468+871494196+872478091+874540050
1819+875669172+875500301+875271735+874937145+874818167+876145494+877762520
1805+878184836+876851410+874294693+873598372+875348083+876403873+875045431
1792+873814465+876591523+880622164+882838259+882972726+881532932+880070727
1778+879778149+879135766+876221500+871796437+871225605+874747438+877985535
1765+879594748+879529160+879735794+881547187+882505451+882815505+882520597
1751+878399969+872983815+872939472+876065033+879140084+881049894+880401891
1738+878790210+876818444+873492553+873998688+877802956+881017271+883074775
1724+883928933+884690088+884342682+878724210+871469934+872786090+878433346
1711+883101710+884075805+880540881+877152006+877060648+874405857+868330529
1697+867367810+871209568+876259468+878915767+878652111+877294766+872521817
1684+866201679+869971817+877003421+880172228+878573638+876152279+875237536
1670+872777934+871377205+873263576+874495776+874854422+876408259+877078399
1657+874940846+868550802+860091260+861365129+862253897+857004901+855989959
1643+862067001+866949538+867451766+863676078+858616993+859980027+864099832
1630+864933841+863973316+865062276+866729676+868902731+872594396+874940229
1616+875683976+879082377+883980472+887302319+889277374+891969517+894372646
1603+894484359+893944710+895429120+898676127+901666467+903369369+904365326
1589+905604380+907578408+909795942+911361978+911655653+910041505+906113461
1576+904568945+909970845+914033697+912441001+911290290+913765107+915748455
1562+914827270+906664624+895635275+902464837+912325381+917222105+918616940
1549+919756548+920046179+916488090+910119430+903581349+905164724+914256301
1535+920183730+922420523+925467337+928608593+928343566+925047899+920376863
1522+915300507+915328401+920139593+926541562+932456312+934344397+931230692
1508+922552591+916642364+926746826+936972870+939822644+936524922+933705166
1495+936238375+939587293+939792763+938292864+939246124+941952316+943537953
1481+943472913+943154703+942518899+939915784+933906318+930631486+934157158
1468+935489899+930524845+926609344+928265435+928228837+921301270+916711242
1454+923036862+930582072+934800980+936041747+938026740+941495801+943372714
1441+943622732+943367094+942916062+944621431+947299935+949211733+951504314
1427+952527549+950801551+950328245+951837191+948026343+941840878+943585860
1414+948200834+949066712+945530829+941039698+938034348+937203835+936871986
1400+933581459+928295043+924587821+923163173+923793426+923580349+919824261
1387+915020882+913981130+916380284+919432033+920956193+920339237+918855375
1373+919151928+920994642+921280366+920601248+920506875+920322788+921139663
1360+923041180+923514007+922230885+920863533+920765253+921354316+921400166
1346+921532371+922204910+921732152+920178521+919789171+920691167+922361514
1333+924281124+924564998+924013973+925785273+928744704+929525186+929235624
1319+930561511+932707152+934023376+935212878+936980614+939413076+942927988
1306+946596487+949192817+951304259+953961174+956841104+959303653+962644004
1292+967356368+971088880+972728660+973300040+973832150+975317588+977548967
1279+979290317+980287165+980988421+981414300+980551507+978984443+979410391
1265+981246251+982469198+984062306+985947443+986149143+985274699+985264076
1252+986199311+988428360+991738487+993430628+993991112+995711147+997290136
1238+997870084+998217696+997670234+996281294+996238733+997827112+998808951
1225+998935125+999470661+1000465112+1001670651+1002226200+1000510619+997766526
1211+998171914+1002466759+1006073302+1006313519+1005933696+1007271234
1200+1009512962+1011300573+1011806639+1011222237+1010170217+1008567994
1188+1007432361+1007719936+1007862147+1007605002+1009374452+1012859824
1177+1014379256+1013054259+1011393713+1011180019+1013086814+1015358012
1165+1016078183+1017266245+1018783141+1017401671+1015143770+1016791157
1153+1021219715+1022875190+1021054339+1021335403+1025425053+1028126928
1142+1028232952+1028978002+1029206636+1028419232+1028866220+1028966214
1130+1027332807+1026853402+1027758207+1027577342+1027093139+1027518813
1119+1029091291+1031639304+1031722300+1026709546+1021568767+1023224858
1107+1028919610+1031672612+1031331031+1029515320+1027998835+1028092523
1096+1028745735+1030710031+1032297656+1031711609+1033747524+1039648499
1084+1044707378+1047327010+1047856378+1046613213+1047877213+1054106130
1072+1057472662+1052788603+1048409871+1050111059+1054072205+1056159316
1061+1056695058+1057275759+1057910878+1059476708+1061937886+1061524069
1049+1058887440+1059423182+1062312022+1063580339+1063320795+1062386177
1038+1059843716+1055315233+1053416937+1058303380+1065246506+1067881558
1026+1066674306+1064826589+1061478424+1056521937+1055670178+1059650171
1015+1062761546+1063427025+1063571635+1063677454+1061849955+1057738579
1003+1056040955+1058473691+1059569300+1057063985+1055065010+1056103117
991+1058456146+1059599044+1060036095+1060118406+1058108465+1055480335
980+1055660720+1058764693+1061035822+1059491854+1056735631+1056423726
968+1058046784+1058548738+1056026289+1053036633+1052922179+1054939590
957+1056649276+1057247591+1057753863+1058373766+1059959129+1064161589
945+1067862917+1068717829+1068411269+1066435117+1062452999+1058593149
934+1057778604+1060428118+1062927950+1064603369+1067086684+1067838450
922+1066083187+1065051865+1064807330+1064648122+1065624822+1065543264
910+1062743041+1060650036+1060874832+1062082565+1064427027+1067517429
899+1070717283+1073471519+1073741823+1072072984+1070553894+1070093404
887+1070742984+1069240138+1063688625+1058050690+1054481978+1050730551
876+1048047592+1049698132+1051872695+1049786954+1046089122+1043379502
864+1041876382+1042852122+1045415144+1045062186+1038758360+1031468924
853+1029548560+1030762186+1031548288+1031547809+1028445961+1023147002
841+1019616259+1017067218+1012925961+1006852894+1000232091+996709641+998145048
827+1000746655+1000215711+998486081+998944103+998015447+991280190+982419921
814+976678086+975379270+978029606+982046129+983204105+979597561+974661772
800+972310182+971019179+969723241+968511191+963434082+955322015+950679626
787+949506504+946679689+942407872+940864658+941273198+938992542+934031601
773+931520460+932487770+931881711+927120961+920458831+916023831+915772717
760+915838374+914247871+913849474+913303177+910960566+909225590+907114765
746+903440440+901123118+901494923+902656051+901896678+898940125+895140038
733+892124476+893538500+897329061+894944917+887561383+884090882+885443636
719+886215757+885255849+885121588+884828530+883378593+882996096+883419303
706+883522792+883159622+881425126+879842367+878589127+875717284+873234654
692+872166597+870756822+869809387+869836870+869542716+868488846+865353141
679+861018134+860454841+864462180+868026368+864938913+855407750+853846374
665+862256570+864891280+861035131+856323247+853049786+851294729+850298771
652+849674550+849266147+848219610+848608412+853582307+857456550+853181443
638+847620199+846774059+843281765+832757386+824441700+826182022+834511894
625+838290599+831710917+820882515+810927597+806988314+812695196+818369113
611+819964002+821362674+818433399+816992988+821758947+817284264+803254774
##END=
