##TITLE=Sample description
##JCAMP-DX=4.24
##DATA TYPE=INFRARED SPECTRUM
##DATE=25/8/2023
##SAMPLING PROCEDURE=Instrument type and / or accessory
##ORIGIN=Default
##XUNITS=1/CM
##YUNITS=ABSORBANCE
##RESOLUTION=4
##FIRSTX=4397.6552
##LASTX=599.8556
##DELTAX=-1.9287962
##MAXY=1.9185274
##MINY=0.83291829
##XFACTOR=1
##YFACTOR=1.7867678e-009
##NPOINTS=1970
##FIRSTY=0.90147901
##XYDATA=(X++(Y..Y))
4398+504530573+504837675+504776862+504387897+504365146+504136404+504452013
4384+505752644+506375488+506322214+506545852+506547787+506003937+505447243
4371+505220536+505279748+504558995+502999466+503527004+506790206+509648632
4357+510090871+507906829+504686593+503537712+504727191+505846483+506363813
4344+506890750+507348868+507747307+507917338+508072056+508488442+508536479
4330+508395337+508610636+508680356+508548088+508401209+508155220+508378958
4317+508934351+508958536+508812357+509673651+511072958+511159424+510377725
4303+510120494+510341163+511015347+511603064+511571207+511291059+511033528
4290+510902761+510990294+511382529+511335226+510671350+511171567+513041468
4276+513813593+512580047+511557263+511781068+511997434+511950764+511639726
4263+510945594+511117892+512203558+512625015+512514997+512733665+513196653
4249+513972148+514194419+513221139+512683193+513072025+513452116+513979821
4236+514587020+514274814+512750645+511892253+513216435+514818664+515122998
4222+515163962+515250162+514901661+514378193+513672685+512623681+512062750
4209+512421359+512900193+513026223+512877142+512737768+513068922+514359479
4195+516478537+517639728+517094910+516748778+517232716+517028859+516001004
4182+516012813+517384365+518223409+518070125+517768393+517119395+516071458
4168+515323118+515073226+515105684+515320449+515735234+516402112+517740172
4155+519466796+519393640+517559199+516735801+516645565+516209498+516805655
4141+518373224+519387168+519399811+518286491+516700708+516532612+518065321
4128+519401079+519412321+518464694+517539084+517653905+518374925+518601132
4114+518967746+519977154+520476237+520131372+519825738+520545657+521833645
4101+521398177+519724093+519843618+521358480+521771597+521130305+520878579
4087+521111391+521077698+520962176+521091542+520945463+520553563+520357779
4074+520415057+520804622+521123400+520939959+520952369+521862333+522693904
4060+522322920+521773999+522083069+522781271+523419528+523664682+523847389
4047+524133909+523176174+521766927+522323921+524063155+525174040+525690570
4033+525898963+525574514+524613677+523627220+523277452+523236654+523328725
4020+523738739+523676892+523155492+523637361+525207532+526526544+526558769
4006+525858165+525982227+526598699+526469434+526045342+526126270+526613544
3993+527081003+526744845+525549361+525314381+526637362+527479308+526857965
3979+526012950+525896461+526253601+526692972+527248298+527450720+526857898
3966+526614778+527445416+527865571+527173907+526715789+527110325+527721027
3952+528021190+527593529+526333996+525391040+525465230+526304741+527900264
3939+529736206+530671323+529833747+527287761+525108723+525447416+527015719
3925+527694807+528006846+528744145+528945800+529134478+530760692+532707185
3912+533078736+531456959+528695074+526178777+525936458+527771332+528774768
3898+529329861+530239559+529515770+526970151+526883451+529589560+530912341
3885+530101186+529090544+528296969+529469134+531898998+532190055+530003878
3871+527387671+526358248+527241192+527408454+527723195+530348242+532531517
3858+532348209+529453189+523668585+522893691+528006479+532619984+534049447
3844+532208169+528897496+525522341+524370224+527538854+531419597+533010984
3831+533401751+533853063+533835250+533105023+530610510+527998573+530520040
3817+533597868+534388874+536301175+538200765+537367926+534157397+533126940
3804+534969486+535625289+535277690+535619752+536245799+537834084+539681601
3790+540598737+540854634+541001680+541322759+541582926+541022963+540400552
3777+540950607+541932294+542292937+541196229+539288733+538445553+539007484
3763+540217912+540077838+537740945+536169173+536194226+534820706+531135279
3750+530495822+533162134+533968052+533939196+536562642+539024263+538186654
3736+534161000+532248766+535103122+538666455+540244899+540166473+539970055
3723+540250504+540705486+541413396+542312852+542156299+539333133+536492955
3709+538619853+543154664+546684005+547844228+547999681+549634801+551339209
3696+552009356+551749990+549389513+546258979+547158235+550500232+552569152
3682+552111434+549290170+545125843+540627126+539581357+541081975+540620921
3669+540124107+541827847+543474476+544026133+543686105+542392313+540021895
3655+538706619+538607243+535100353+527129807+524460493+527161398+529542357
3642+530630292+530462463+528770599+526250065+523938993+521649437+517772763
3628+513983857+514403512+515694769+514474100+510057979+506394269+506964273
3615+507912534+506723188+504161090+501004002+499643725+500661205+500845480
3601+499298794+497913865+496896718+495571935+494528001+493766851+491838205
3588+488995525+488608594+489461715+489067580+488465685+488035588+486303994
3574+483967401+482989385+482159381+478433057+473861417+473744027+475737122
3561+476523892+476429720+476502909+476122251+474951186+474118747+473352993
3547+471681712+470616962+471548409+472974336+473248480+472492567+471708966
3534+471284874+470801903+469596312+467971032+466845903+466542770+467243407
3520+468269061+468830725+469046057+468767576+468021304+467324236+467138827
3507+467207580+466552711+466159209+467560484+469018769+468901946+468475052
3493+468993483+469353759+468676106+467873024+467409068+466990647+466764473
3480+466923162+467165715+467240939+467412103+467882097+468650854+469568024
3466+470036583+469629938+468873224+468747428+469146667+469254583+469534298
3453+470402897+470551478+469815714+469974302+471067941+471626803+471450401
3439+471185231+471632807+473110040+474633642+475198976+474778487+473785692
3426+472900046+472712602+473619164+475230800+476410472+477341653+478450637
3412+479391592+480300822+481148906+482360302+484288414+485616233+485998960
3399+486479662+487330814+488585877+490208822+491390495+491880671+492382122
3385+492922503+493845545+495776325+498055774+500738832+504229843+507388699
3372+509679389+511866767+514518234+517446179+519586955+520743609+522453687
3358+525599733+529779306+533989768+536868743+538981997+542215778+546214945
3345+550052288+554292374+558371903+561123180+563108702+565297181+568145966
3331+571348089+573850808+575587474+577368373+579645987+582358467+583982646
3318+583110043+581547445+581321071+581875830+582646288+583733655+584680114
3304+584317570+582695993+582460345+583699896+582927704+580271466+578255787
3291+575968432+572339983+569931335+570273331+570601116+569106436+568071375
3277+568333376+568077514+567465377+567065604+565840264+563767141+561714700
3264+560440790+559891969+558734514+557016396+556325700+556955750+557863513
3250+557956951+556800564+554931631+553645711+553398355+552782749+551642074
3237+551770406+552503502+551313822+548889396+548396752+549990874+550811471
3223+550098891+548840659+547386844+546638336+547260380+548631732+549743218
3210+549833153+549498030+549866946+550611184+551145894+551315557+551285167
3196+552032841+553216182+553467074+552665326+551323897+550638038+551622826
3183+552927427+552702988+552069969+552560279+553131917+553520582+554336908
3169+555186326+556047453+556815275+557388048+558163510+559089420+559934668
3156+560945377+562101463+562144696+560873321+560263187+560885397+561708095
3142+562719871+563715301+563934603+563886699+564422777+565462508+566047690
3129+565868152+566166248+567241672+568343117+569247544+569386117+568915089
3115+569330341+570974669+572503442+572242708+570227829+569043188+570351658
3102+572667634+573909653+574182396+574613527+575123051+575187433+574484961
3088+573350825+572920828+573146468+573732784+575387187+577577000+578525527
3075+577905318+577124519+577014235+577357631+578069110+578781390+578814949
3061+578465147+578513518+579011700+579702296+580342521+580754503+581082622
3047+581537838+582287946+582994555+583109376+582963464+583047395+582925368
3034+582049430+581548846+582663568+584033418+584514320+584932508+585351496
3020+585162684+585042125+585749535+586139233+585546112+585583807+586728952
3007+587656397+588031218+588367943+588585109+588970205+590400235+592360205
2993+593571334+594005067+594679384+596101141+597471659+598505719+599663340
2980+600326115+600297226+600580443+601315340+602154984+603326216+604718284
2966+605404076+604942322+604368549+604175667+603479200+602588517+602595122
2953+603007772+603483470+604922840+606576175+607307936+608323182+609945092
2939+610760518+610820497+611275046+612027623+611971180+611058880+610248258
2926+609962773+609989126+609770158+608843047+607736932+607460053+607799046
2912+607988125+608493112+609551257+610159257+610004938+609935752+610598460
2899+611891252+613263171+613867701+613535780+613394672+613937088+614779601
2885+615954969+617091641+617138543+616163862+615740337+616278750+617013047
2872+617845285+618275015+618182944+618596995+619443711+619978455+620473034
2858+621022255+621019386+620416524+619396408+618625283+619172770+620246660
2845+620443945+620322585+620726228+621305539+621707648+622366019+623838148
2831+624999706+624360749+623759688+625059218+626663782+627148287+627175642
2818+627745612+628635495+628871275+628797619+629169104+629339435+629341236
2804+630436676+632170539+632978626+632812565+632836383+633690172+634706818
2791+635037738+634931791+635210805+635858635+636341739+636943800+638077870
2777+639164170+639470538+639321758+639416897+639838621+640374765+640646841
2764+640236259+639990938+641282195+642995776+643419767+643420435+643663688
2750+643373999+642757993+642640436+643144089+644366627+645922887+646741515
2737+646910578+647123341+647539594+648096288+648647110+649326698+649993943
2723+650304315+650465705+650916918+651742017+652215714+652150998+652461903
2710+653058360+653216615+653225955+653471744+654183557+655725539+657419772
2696+658070071+657747824+657639874+658364697+659227892+659616991+659632936
2683+659497232+659581030+659971596+660253279+660473047+660848402+660734314
2669+660520884+661880794+663966727+664594475+664272561+664154938+663670300
2656+662899442+663301617+664727711+665702191+666195503+666533829+666497068
2642+666616960+667267459+667703193+667503106+667270528+667278267+667529860
2629+668487394+669681910+670232132+670521688+671047758+671663163+671888803
2615+671612058+671800602+672615561+672823453+672442494+672600883+673273465
2602+673763441+674135793+674552980+674865820+675591710+676802372+677405034
2588+677468549+678120249+679253719+679873928+679782191+679512984+679373077
2575+679623602+680264827+680778421+681147037+681753102+682530499+683131293
2561+683374346+683622269+684217392+684364772+683559288+682850077+682909990
2548+683537871+684356166+685101137+686005964+686614431+686517623+686705901
2534+687332648+687357134+686937612+687179264+687989085+688356100+688279375
2521+688469854+688965501+689168256+688655530+687851780+687758242+688806979
2507+690228603+691053569+691477561+692228470+693458013+694438966+694256359
2494+693594585+693649760+694101240+694406007+694771954+695376618+696231407
2480+697447273+698610298+699000798+698771756+698604094+698851950+698879838
2467+698185439+698038059+698893582+699113217+698443103+698339491+699192678
2453+700356304+701217365+701641623+701888880+702001700+702175433+702598691
2440+702797243+702548319+702543182+702945223+702838742+702326682+702659471
2426+703977749+705069853+705135770+704598691+704257096+704325282+704516695
2413+705213897+706602161+707556960+707624079+707583314+708050873+708807586
2399+709405378+709832573+710019649+709975682+709822231+709762919+710037663
2386+710195184+709756114+709041099+708471262+707981353+707316576+705918037
2372+703288753+700133400+697479097+695686456+694646658+694525766+695886809
2359+697962868+699408511+700192178+701304965+703613869+706193648+706907396
2345+705434399+704272641+703969142+703554757+704277378+706365580+708012777
2332+707714681+706557060+707342663+709994964+711943325+712203057+711997700
2318+712855024+715148183+717645031+719043170+719982357+721201626+721836179
2305+722122199+723035232+723791479+723877678+724051478+724519838+724985461
2291+725352410+725605937+725688601+725974220+727028428+728366455+729014085
2278+728950569+728773233+728670821+728273850+727832645+728535985+730315416
2264+731338401+730959377+730735939+731555434+732298003+732475606+733075200
2251+733816301+733431740+732406286+732248565+733161132+734312415+735349144
2237+736226950+736525246+735929656+735300973+736091713+737666988+738203466
2224+737703616+737264680+737922851+739348077+739808097+739536889+740119869
2210+741231655+741612081+741217445+740916881+741045846+741122438+741033370
2197+741327529+742025865+742482615+742418766+742419700+743259811+744609179
2183+745289234+745056990+744907475+745366293+745838322+745928792+746087380
2170+746614451+747039710+747199366+747593068+748280729+749097355+749739114
2156+749446289+748631865+748356454+748444588+748964386+750018795+750569885
2143+750542063+750717131+750896802+750489156+749723102+749601609+750635868
2129+752202003+753022566+752566616+751876220+751875886+752330168+752855037
2116+753317859+753512608+753322462+753157536+753608615+754344380+754663358
2102+754963121+755677135+756286269+756578160+756888931+757363762+757853604
2089+757840728+757327734+757292507+757998449+759007289+760048088+760480553
2075+760121611+759449162+758974664+759440488+760483088+760921824+761104098
2062+761581530+761570455+761082748+761029841+761345883+761571323+761659924
2048+761844065+762651151+763930999+764630536+764534462+764327437+764259651
2035+764345851+764763037+765634706+766730480+767640044+768140695+768386016
2021+768746159+768981740+768891537+768637009+767864483+767053060+767400527
2008+768761504+770052094+770794397+771221991+771611890+772172987+772697189
1994+772379279+771121915+770131155+770211883+771116644+772602650+774269462
1981+775131123+774710000+774271397+775125585+776340851+776509914+775914991
1967+775724311+776496837+777336815+777561787+777587073+777558118+777812780
1954+778697058+779227398+779037452+779030580+779009164+778197141+777496604
1940+778392625+780465414+782142034+782301556+781601085+781481660+781947284
1927+782218626+782120150+782263193+782991418+783377982+783122319+783192906
1913+783948019+785057870+786117616+787284578+788547680+789046863+788823558
1900+788550415+788257791+788009934+787725183+786677045+785244613+785721913
1886+787863155+789184302+789957361+790935845+791283045+791034788+790932910
1873+790836769+789180899+786132828+786511652+790287815+792864057+793731056
1859+794458480+795059808+795097637+795167024+795891313+796775591+796751839
1846+794645691+792226902+793698497+796417850+796922637+796822961+797678283
1832+797616970+795895716+795248686+796231240+797096570+798209891+799876903
1819+801096839+801504751+801808051+801766219+800807350+800074188+800502850
1805+801637320+802392299+801790771+801170829+802211760+803383726+802928910
1792+802214829+803595155+805501750+806472628+806806485+806634219+806460819
1778+806884211+806431730+803663274+800076322+799922271+802539345+805160622
1765+806891883+806766721+806110017+806797478+807535444+808141775+807928612
1751+804495445+800142040+800540078+803553590+805514961+806393968+806858858
1738+807016512+805365579+801740332+802833904+807823665+811845483+813896056
1724+814290158+813695635+811428696+805381925+799780829+803113986+809274578
1711+811979185+811050139+807827201+804566566+803313539+801927676+800436599
1697+801188375+803463454+807510625+810636889+810567636+808553224+803830936
1684+797399536+800450810+807169363+810264003+809950830+808735030+806787870
1670+802679919+801847748+806168996+807753678+804855788+803586014+804511658
1657+803878305+798613601+789368243+789582007+792464418+792192542+793733724
1643+797296524+798696264+797310001+793431960+790300024+793346027+797274040
1630+798684321+799456180+800957131+801585347+802637087+804843579+805691563
1616+807762284+814358010+820194820+822558500+823339699+825114994+828022224
1603+830897162+833342905+836100153+838369493+839081973+839652878+841043811
1589+842815503+844507801+845806130+846903572+848167275+848591467+845340440
1576+840899701+843334702+848248070+850820710+851859373+852970425+854197233
1562+854771207+850195230+840458362+843861772+852305582+858092487+861165311
1549+862760468+862054660+857899606+852301312+849342910+855601510+864206243
1535+866472248+864801166+866544904+869878994+869766375+867900744+867216886
1522+868082950+871485893+874906384+878466581+883672974+887526330+886083423
1508+876976705+872298116+884118116+894245283+897784464+896939616+896506484
1495+899781129+902403741+899424055+893247918+893550951+899550018+904698100
1481+906202321+905644359+903888746+899455413+893518993+894399668+902393466
1468+906557593+903066849+900007970+902855821+904130465+898396334+894126592
1454+899520863+907242652+914059747+918244557+920654672+922930018+924273314
1441+925965546+928340234+928112859+928571678+932902867+935837784+936860769
1427+938015922+936383403+933434608+933191154+931660514+929294566+932025661
1414+934046811+931137713+927712686+926961710+926079967+923245059+919467629
1400+913933717+907592320+903867063+902895251+904004035+905354671+904136736
1387+901279812+900996261+903105279+904801046+904938151+903476096+900806649
1373+899973610+902908461+906349367+907591053+906692430+904010773+901351000
1360+901491841+903743502+906405877+907905494+906637588+903862393+902614102
1346+903303097+904125795+903403441+900694696+899033889+901380356+905204155
1333+908189912+910817527+912283185+911655570+910456717+910234814+911937053
1319+915446678+918664813+920908400+923301836+925586455+927205363+929472035
1306+933907104+939829980+945159201+948097321+949293371+951408527+954615520
1292+957265953+959526487+962522118+965954350+968368736+968605584+967069806
1279+966806737+968116542+967502471+966528391+968445528+970905148+972437790
1265+975045390+977727714+977422146+974826088+972887068+972687248+973159677
1252+973567590+975559518+979912523+984126355+985884103+985291115+984136296
1238+984321638+985749266+987444233+989530700+990747767+989330413+987049797
1225+985849944+985706967+986455942+987133261+987493004+987315468+985497874
1211+984508114+987110844+990568896+992043894+992796872+993284846+993651928
1198+996368411+999989589+1000114885+998290886+998849381+1002514725+1006885411
1184+1008579510+1007202454+1005048002+1002756177+1001357438+1002053505
1173+1003395734+1005831136+1009224205+1009231277+1007369516+1008485638
1161+1010979017+1012918372+1015081364+1017264105+1017524238+1015352705
1150+1014300899+1015334024+1015680490+1013836543+1011904727+1014292292
1138+1017717052+1015326619+1010856123+1011980853+1017708512+1019952100
1126+1018130369+1019512830+1023749879+1025142147+1023990464+1023456321
1115+1023042537+1021903730+1023447181+1030496654+1035282792+1030788545
1103+1025298467+1023939892+1023923012+1024562769+1025112458+1026798951
1092+1030630223+1034464431+1037662617+1040861004+1045297740+1049574353
1080+1047904873+1041913411+1040645838+1043895531+1044665922+1043422368
1069+1042316253+1040082807+1039579954+1043306212+1047402020+1049327097
1057+1051520446+1055440453+1058980101+1060844931+1061593906+1059806401
1045+1055997880+1053391681+1053394016+1056583196+1059849968+1059220485
1034+1058272558+1058469042+1054576790+1049699449+1051391347+1057039479
1022+1060313057+1059844497+1055861842+1050411329+1048268618+1050169743
1011+1052835121+1057890932+1065530125+1066710964+1061267722+1059439386
999+1060357357+1058728241+1054819777+1048638969+1044430675+1046111831
988+1049469540+1051830217+1054440219+1056673732+1057376071+1056201370
976+1054019229+1052413865+1051533723+1051396017+1052663389+1054186691
964+1054865612+1055064297+1055118205+1056397520+1059483153+1061727008
953+1059243169+1053042747+1050554505+1054846063+1060592004+1063416303
941+1063171649+1060369500+1057367197+1057425575+1060241735+1063294410
930+1064792759+1064697619+1064850270+1065316894+1063436852+1059083647
918+1056676667+1059352787+1064374438+1067585034+1069083183+1070358094
907+1071880529+1073741823+1073425514+1070294112+1068372838+1068359895
895+1068007958+1067848970+1068857210+1068727711+1066599812+1067247375
883+1070588738+1068341948+1060906779+1057508105+1058184958+1056933531
872+1052147060+1046008018+1043885123+1045815670+1046723433+1047728137
860+1048525082+1045926022+1042728369+1041120669+1039205000+1037302808
849+1036222913+1033764027+1029805124+1024108288+1015905196+1011611703
837+1014133570+1014288556+1006637488+999117253+998203285+999147810+996902287
824+994002263+992794937+993343958+995316738+995581474+991677413+986874196
810+983850343+981169287+979681145+979861884+978282139+974975203+971593476
797+967877492+964197937+958163241+949942736+945977962+947505000+950825080
783+952529654+949568783+946080641+946195862+944434111+939854665+938740944
770+939992504+937952406+932219609+926261306+921755784+917686396+916220271
756+918986459+920811326+919141645+915883680+911561098+907447276+905701270
743+907168595+908147079+906069819+905422790+908256096+911475832+913405979
729+913483305+910789906+906351102+901542347+898047399+899342793+903650564
716+905011741+903841443+903433797+900800177+893265398+886230002+882801773
702+880579535+878783757+877330443+878535500+881879732+879304490+872851207
689+871109805+872264424+874401930+879945248+887599919+891074985+884388256
675+874070009+871239037+872490797+866346552+857081245+857713997+862091822
662+865394221+867867118+869681309+867511312+859703723+853982802+856925926
648+864558780+866401927+860774144+853140889+844726169+839215676+848270154
635+882292916+909192548+880616964+837962781+828450152+852552305+887367875
621+888674811+842394981+799369247+797361640+825010847+844238261+838224248
608+827814664+823429101+819633523+818971215+817555929
##END=
