##TITLE=Sample description
##JCAMP-DX=4.24
##DATA TYPE=INFRARED SPECTRUM
##DATE=25/8/2023
##SAMPLING PROCEDURE=Instrument type and / or accessory
##ORIGIN=Default
##XUNITS=1/CM
##YUNITS=ABSORBANCE
##RESOLUTION=4
##FIRSTX=4397.6552
##LASTX=599.8556
##DELTAX=-1.9287962
##MAXY=1.8402984
##MINY=0.12611012
##XFACTOR=1
##YFACTOR=1.7139115e-009
##NPOINTS=1970
##FIRSTY=0.1349179
##XYDATA=(X++(Y..Y))
4398+78719294+78712000+78701158+78465674+78139631+78291607+78794099+78949439
4382+78609633+78295824+78380801+78652331+78681378+78422742+78216054+78369525
4367+78745029+79000022+79307477+79828505+80170598+80153461+80008198+79778470
4351+79428205+79270483+79344836+79185297+78813522+78724797+78996223+79078670
4336+78634612+78272375+78423829+78563145+78433914+78407223+78494765+78356761
4321+78120061+78109906+78108897+77905548+77720778+77626010+77600528+77833716
4305+78172200+78140570+77872075+77841575+78038170+78205264+78135476+77922971
4290+77990004+78218236+78068956+77715544+77805625+78450816+79117134+79397480
4274+79489604+79570886+79590361+79570495+79445767+79248965+79006352+78660199
4259+78495469+78703114+79142295+79574277+79633702+79290123+78971201+79011160
4243+79308694+79445289+79354695+79320301+79303364+79156849+78893083+78746577
4228+79096068+79579172+79636580+79641292+79854588+79982324+79973360+79906623
4212+79836182+79849389+79962675+80209296+80565560+80861538+80949958+80858547
4197+80771570+80726829+80630454+80643208+80856052+80995012+80944385+80824222
4182+80718257+80703277+80737906+80858156+81179895+81344972+81130607+81018504
4166+81220219+81334313+81100221+80846888+80993786+81371412+81638047+81656261
4151+81351006+80935735+80744774+80825761+80980875+81011931+81002289+81068287
4135+81068148+81017773+81117027+81290138+81390026+81500191+81651201+81751463
4120+81829407+81902639+81891919+81872513+81893501+81842509+81774259+81794717
4104+81980878+82384700+82682008+82584537+82350853+82309972+82495273+82795085
4089+83093828+83322721+83462490+83535582+83481052+83214356+83042445+83285032
4074+83683350+83926971+84006828+84015461+83989178+83855339+83751504+83891803
4058+84113193+84152048+84018174+83849688+83739758+83646243+83473297+83408742
4043+83622168+83908026+84083346+84091805+83939552+83772544+83778221+83870189
4027+83782325+83644060+83613787+83562987+83580149+83672734+83682046+83694826
4012+83650651+83325025+82924316+82854371+83075379+83329538+83482556+83378538
3996+83146219+83152114+83318539+83426844+83481487+83413533+83264287+83162791
3981+83104096+83185796+83385694+83465220+83387024+83277163+83241734+83301047
3966+83349786+83270834+83135943+83140899+83348022+83576080+83355768+82548760
3950+81703280+81492983+81816374+81869922+81793326+82320962+82994853+82956337
3935+81917810+80535426+80285153+81100838+81330523+80981579+81296754+81642168
3919+81086971+80615282+81318133+82596778+83477896+83448127+81970462+79029957
3904+76441611+76204424+77896619+80307045+81747568+81270715+80110173+80366505
3888+80927318+80286292+79380352+78860132+79050692+80709719+81647862+80384980
3873+78155977+76605263+76964274+78006192+77868249+78262829+80134317+81135372
3858+79988523+76696987+73580301+76116603+80445657+82785391+82839939+81158446
3842+78644480+76019810+74980926+76746710+79056422+80664796+81752176+82034965
3827+81805480+81267176+79218778+76824932+77333745+79036390+81367708+84034623
3811+85149225+84083494+82060778+80967981+79864152+78774546+79878949+81796099
3796+83810155+85896052+87178444+87560417+87165663+86374270+86139395+86274338
3780+86045671+86436034+87779781+88413035+87453069+85741955+85124525+85651483
3765+86474193+87056290+86388285+85141470+84980035+84610904+82137792+78629091
3750+78650809+80840506+82076271+83429130+85106623+85360165+83369305+80494110
3734+81136059+85607333+89469976+90715983+89987623+89380043+90366544+92335651
3719+94074438+94738626+93747978+91226787+90174367+92954777+96242209+97911955
3703+98272384+99030565+100861442+102478667+103208340+102592683+100664796
3690+100171093+103981119+108669002+111782888+113212048+112901281+111379241
3676+110888355+114385909+118110340+120792879+125848746+131899173+136642839
3663+140232152+143104000+145256633+147503051+150827956+153138398+152848185
3649+153603175+161080328+169839429+176339662+181548712+186220842+190297920
3636+193789232+196955831+199388741+201506502+206623446+213760358+219358615
3622+222835738+224790065+227584585+232133622+236808950+241091108+245007603
3609+248961049+254120925+259535438+263465149+266170380+269006389+272225206
3595+275391997+278786107+281595339+282645429+283325145+286580339+291252555
3582+295093011+297839035+300020664+302046944+303743469+304703035+304415081
3568+302593672+302099492+305100222+308571416+310887249+312626410+313923348
3555+314446602+314741337+315257427+315615108+315717805+316393139+318045705
3541+320110623+322071244+323440483+324132544+324391946+324247413+323497378
3528+322753151+323156355+324301526+325566225+326895227+327752827+327847977
3514+327660355+327400258+326762344+326340395+326687921+327187562+327771224
3501+328847223+329893001+330234546+329865632+329158686+328427291+327785517
3487+327432531+327270888+326975701+326941515+327215557+327011417+326508924
3474+326409253+326394960+326357714+326582860+326416870+325513225+324485844
3460+323904407+323759214+323669246+323476999+322999859+322046448+320967145
3447+320251713+319906725+319728389+319573145+319459702+319436610+319308457
3433+319135407+319045335+319112732+319344730+319075799+317972917+316872435
3420+316590463+316911037+317488439+318269913+318899863+319334783+319846839
3406+320136045+319907734+319820896+320350375+320952260+321460213+322130852
3393+322776834+323301236+324000218+325252815+327064173+328564347+329213842
3379+329761788+330546948+331307763+332282562+333790561+335813154+337835887
3366+339402416+340875533+342895484+345179357+346674697+347402683+348452426
3352+350274913+352534338+354815985+356842022+358604658+360405792+362405955
3339+364591965+366843843+368753377+370398919+372224814+373997779+375271242
3325+376103907+377186444+378895628+380335777+380899025+381120554+381388337
3312+381735307+382621006+384738854+387377487+388905726+389586346+390699105
3298+391922559+392287752+391786720+391308537+391501305+391714558+391309093
3285+390684151+390212262+389628148+388693482+388072505+388152840+388001108
3271+387362777+387226694+387903454+388590369+388646464+388520154+388460233
3258+387959549+387650173+388141433+388162369+387269157+386773933+386869222
3244+386546735+385705654+384948455+384371992+383507193+382257274+381115477
3231+380132853+379357675+379098308+378792549+377774210+376405319+375309810
3217+374415381+373396659+372592963+372337213+372308974+372241125+372050130
3204+371706498+371246886+370565466+369815953+369386840+369174909+368817332
3190+368248068+367390816+366150112+365009463+364544077+364491390+363982499
3177+362743465+361581393+360995922+360546221+359840458+358915321+357965979
3163+357188366+356703297+356462571+356169888+355736010+355354785+354879593
3150+354313041+353951117+353486462+352716639+352063354+351482683+350692063
3136+349945193+349374190+348927375+348688562+348322952+347712094+347324122
3123+347143317+346895774+346439501+345577762+344464134+343409279+342582004
3109+342046126+341610649+341123806+340527381+339780128+339080555+338537617
3096+338059538+337600169+337170221+336857576+336587220+336188398+335771109
3082+335417949+335108608+335099218+335575489+336442548+337622600+338550310
3069+338101270+335885560+332687679+329625671+327363673+325751899+324139291
3055+322299589+320783105+319759688+318671795+317660029+317154198+316732145
3042+316160203+315683341+315233675+314543630+313584933+312705772+311970134
3028+311021592+310030205+309415766+309211138+309415592+309942602+310495000
3015+310985633+311622399+312607109+313878590+315258888+316861271+318934500
3001+321251864+323527808+326490214+331043215+336940241+343739764+351299512
2988+358689549+364268053+366592858+365552609+362685527+359365613+355840550
2974+352269233+349116875+346509507+344459961+343249583+342733284+342571710
2961+342920941+343623192+344129162+344646922+345695308+347016798+348143607
2947+349139237+350174477+350836074+350480028+349196375+347562240+345777590
2934+343834532+341998030+340362156+338674429+336912872+334984767+332262182
2920+328308076+323578999+318935718+314818333+311082800+307455945+304078823
2907+301226346+298796027+296605113+294758213+293489027+292806425+292372826
2893+291945869+291765446+292056877+292734993+293711183+294785547+295681089
2880+296329784+296881799+297719680+299037032+300267441+300826829+300992923
2866+301030030+300581999+299458042+297909110+296015748+293371064+289644677
2853+285073592+280155607+275162069+270167401+265394523+261048045+257031601
2839+253225470+249835881+247017347+244433262+241808018+239347304+237307774
2826+235556301+233866227+232449953+231439960+230558555+229805008+229372921
2812+228986410+228262423+227518370+227209759+227019581+226512168+225816507
2799+225215943+224676518+223905043+222824331+221564675+220199001+218895560
2785+217703353+216360962+214826255+213416953+212194229+210925826+209747670
2772+208973152+208366850+207523039+206580983+205845033+205341949+204992319
2758+204585116+204012443+203535547+203229753+202807108+202211796+201677709
2745+201191701+200601848+200010171+199452139+198879084+198380122+197923535
2731+197498943+197230587+196998659+196638822+196253980+195901863+195592783
2718+195429018+195323000+195144925+194953495+194704475+194384648+194181099
2704+194017229+193725590+193454242+193236556+192961853+192636219+192188378
2691+191616349+191115144+190696238+190181139+189591373+188996583+188325248
2677+187674276+187216558+186876440+186447240+185851615+185173620+184503607
2664+183909756+183436458+183031429+182592978+182129227+181745915+181475785
2650+181245649+180945802+180608465+180338109+180132942+180001085+179844763
2637+179597029+179439107+179372161+179273725+179235366+179271551+179239487
2623+179145502+179120011+179209874+179359363+179533248+179769923+180068205
2610+180370295+180604466+180759258+180920606+181091969+181244275+181385243
2596+181488913+181586567+181661877+181660068+181700497+181819312+181789247
2583+181549234+181277730+181014660+180716413+180377198+179976602+179564391
2569+179178280+178692654+178056983+177471356+177026246+176587378+176128739
2556+175699835+175253420+174837783+174573792+174406445+174256521+174055615
2542+173754290+173515946+173406277+173364092+173439158+173519597+173434863
2529+173264421+173187738+173281497+173454356+173615564+173798787+174010770
2515+174232508+174431641+174534267+174597405+174759240+175022223+175252916
2502+175399049+175576359+175793298+175945812+176054612+176158821+176184922
2488+176078069+175900237+175731134+175598982+175472481+175316975+175139508
2475+174917771+174640268+174320163+173938173+173487585+173046091+172704390
2461+172356029+171905337+171537762+171334908+171079506+170675937+170271185
2448+169930666+169565369+169154618+168811891+168607524+168486292+168346610
2434+168082183+167700854+167330966+167054472+166887090+166774848+166640835
2421+166460203+166240030+166058181+165979394+165950199+165881619+165762142
2407+165698779+165723557+165729939+165714863+165757482+165835330+165831227
2394+165720688+165642927+165643692+165585684+165344767+164874095+164132302
2380+163123370+161932485+160545562+158919009+157248271+155724240+154308765
2367+153013862+152034264+151542136+151502003+151720941+152237466+153330854
2353+155097072+156990991+157872987+157187377+155697253+154813622+154774272
2340+154994758+155314550+155658042+155885588+156042275+156345113+156948667
2326+157685957+158394398+159173037+159997338+160719604+161302135+161769033
2313+162098458+162295800+162610549+163144567+163567229+163761823+163951758
2299+164181929+164372159+164487201+164477985+164435088+164571675+164856741
2286+165045615+165083922+165101536+165136574+165115308+165039564+165005552
2272+165008838+164979956+164919201+164841492+164807045+164902664+165023167
2259+164955195+164746533+164629422+164621353+164595914+164557312+164507181
2245+164391078+164289407+164309943+164434392+164544896+164520361+164455137
2232+164532707+164689742+164785605+164836692+164882372+164901621+164918679
2218+165021115+165163474+165198947+165183906+165236958+165321153+165425275
2205+165574034+165731452+165844164+165891443+165952355+166113651+166316991
2191+166434312+166435390+166440745+166534504+166594894+166521063+166421775
2178+166424661+166487086+166477418+166404073+166393431+166457490+166510960
2164+166528557+166514977+166466724+166442728+166489242+166581679+166704685
2151+166846506+166997212+167144370+167245432+167289877+167331592+167373794
2137+167359101+167386818+167557312+167692577+167710192+167792822+167975749
2124+168137253+168219970+168227603+168249339+168367633+168532058+168643832
2110+168672262+168702970+168828619+169021596+169203549+169372792+169568760
2097+169770431+169971807+170224914+170533525+170829390+171066256+171294880
2083+171603491+171962650+172225755+172387520+172595991+172900602+173231348
2070+173444062+173480804+173575884+173887120+174227204+174510619+174757188
2056+174894140+175008208+175181293+175342363+175450988+175478219+175452710
2043+175472967+175618787+175845203+176026512+176168455+176333141+176510382
2029+176685866+176873488+177056311+177234056+177375024+177357792+177351411
2016+177683392+178202351+178601990+178914635+179247955+179540829+179777417
2002+180056833+180417800+180838045+181115235+181026849+180957747+181416856
1989+182178610+182939896+183635365+184208890+184707452+185210188+185764481
1975+186355672+186912503+187253179+187302492+187545253+188353139+189215173
1962+189749765+190137302+190401364+190564676+190823782+191087687+191159362
1948+191009978+190524196+189792628+189728221+190638404+191432101+191677331
1935+191721706+191780149+191869647+191949895+191813239+191232255+190780363
1921+190873270+191071777+191679661+192685619+193126174+192918260+192882370
1908+193464310+194219805+194764708+195149359+195371010+195298483+195155567
1894+195308968+195363881+195291510+195894768+196803038+197350845+197747598
1881+198135831+198507684+198837717+198978442+198432931+196823644+195584819
1867+196776904+198924764+200174753+200708892+201094725+201519752+201975347
1854+202395140+202598220+202273038+201316550+200306818+200899522+203119614
1840+204649679+205204232+205818324+206326537+205665097+204551677+204923843
1827+206164059+207596088+209421201+210823669+211536301+212028552+212248916
1813+211897895+211718550+212551597+213685813+214137566+213664130+213017261
1800+213305597+214045738+213932052+213029398+213595811+216301928+218335181
1786+219086607+219505983+219847092+220447812+221390807+221373854+219852605
1773+218781074+220589929+223702658+226292656+227526734+227782501+228680912
1759+230008053+231389690+232924850+232981223+231396211+231107579+233542297
1746+236428160+238569569+240394438+242663618+244428549+244346702+244973783
1732+249124988+253691012+257724689+260809788+262892737+264197621+263769778
1719+261888396+263223727+269428999+275324947+279191259+281018163+281895047
1705+283726315+285857413+287397737+290007644+294622235+302299285+309888628
1692+314295775+317413495+319536246+320529650+325872123+336040283+344302317
1678+350663824+356837884+363883732+369733044+375657371+384857235+392416566
1665+395835002+397764290+400131801+401212287+399296876+394209597+390317184
1651+392856112+394280924+395647033+401809720+408552001+413007278+415441284
1638+416993867+423290758+435128699+444520533+451988087+460382412+469687547
1624+480005421+492317407+502780510+510962731+521488258+532640850+540347356
1611+545972461+551107177+555738112+558731401+559724805+559625239+558867553
1597+556955445+553976902+550498336+546421745+541780063+536969574+531882468
1584+526628573+521456820+516021284+509219570+502480489+499680352+497624477
1570+494430282+493001122+493433539+493588957+492442048+488829799+488148657
1557+495998653+503093677+508730675+513925868+519505623+524140350+526854692
1543+529453749+537626963+558757205+576720935+588281982+602609606+619621734
1530+632370901+642339511+651586915+658304921+664068578+671584229+678480501
1516+684068743+687773951+687359131+682543703+675688537+675830427+684561324
1503+690611195+693449135+694624040+697272515+702593043+706890085+709154344
1489+712997130+721256103+729979558+737133806+743848474+750098104+754026997
1476+754758635+755393175+760799255+768392876+773751798+776803268+780175452
1462+784238167+786695020+787083549+790300557+797223956+802550049+806257413
1449+809810924+814415672+820348206+825842341+828775987+829639221+831119398
1435+835320526+841035773+846083441+849544653+852463484+854444867+854453840
1422+853522930+850748076+848348395+851512334+855055899+854619517+852707410
1408+850943522+848445284+846086432+843834901+839531321+835014071+833399585
1395+832834111+832082094+830356670+827163031+825042679+825347673+825866963
1381+825360263+824535075+824160527+822987082+820622805+819301628+819201609
1368+819582695+818936331+815663679+812845145+813056380+814270374+815154544
1354+814681716+812392905+809685796+808434382+808684567+809362996+809063636
1341+806872131+805937395+808334850+810671862+811567856+812448200+813904173
1327+815534308+816635000+817271001+818415511+820199430+822218164+823686099
1314+824292262+825608640+827818229+830040756+833132637+836979248+840247726
1300+842793679+845108295+847545326+849946675+851716475+852428916+851628907
1287+849996267+848975702+848093619+846871765+846092552+845509899+844655846
1273+843618241+842322799+840507510+837865504+835053578+833270910+832504078
1260+831462647+829221410+826409345+824523529+824767454+826660156+828064937
1246+828016736+827731565+827937375+828002478+828107782+829092736+830492161
1233+831750322+833494804+835663426+837701705+839706458+841326856+842300402
1219+842896340+843693915+845468862+847912779+850049128+851026152+851051818
1205+851673908+853283108+855202171+857395276+859510759+860652487+861213439
1192+862730550+865269268+867567539+869501278+871296952+872638647+873900495
1178+875634753+878195659+881718566+885759232+889433280+891263592+891580688
1165+893348471+897928945+903186319+906369316+907258354+908134386+910878637
1151+914934535+919393221+923903794+927402078+929854272+932086953+934127875
1138+936072533+938012253+939189523+939610464+941124097+945088254+950701604
1124+955045039+956315372+956472564+957195786+958971359+961783842+962622245
1111+961241182+962647980+966529437+968138567+967956267+969118443+972521509
1097+976513905+978471570+978033310+977827709+980212714+984294695+988163424
1084+991243620+993657907+995991650+999662220+1005069691+1009186171+1010487386
1070+1012136788+1013803161+1011478669+1007925089+1008818787+1013316214
1059+1017414610+1020041037+1022393212+1024108134+1024850900+1024573519
1047+1022630738+1022315659+1024782737+1027322082+1030361589+1032769824
1036+1033726956+1035212907+1036714993+1038850438+1041812254+1042612680
1024+1041142032+1038005497+1033601203+1032189884+1035081241+1036666166
1013+1033391219+1030025296+1032454258+1038438609+1041303188+1039590075
1001+1036679312+1034835020+1034015605+1033597795+1033019523+1032450920
989+1033276108+1035540853+1037244438+1037925510+1037965851+1037135864
978+1037419992+1039691067+1041630996+1043160487+1045027523+1045889784
966+1046347796+1047834512+1048657961+1047115533+1044449739+1044313691
955+1048578182+1054742191+1060837342+1062582450+1056480344+1051098817
943+1052836692+1057568237+1061655992+1063607606+1062344645+1059241079
932+1056616044+1054857651+1054020917+1055221140+1057653719+1060129561
920+1063058269+1064963282+1064857629+1066034829+1068298045+1067291460
908+1065047024+1065189332+1064544636+1061276506+1060475870+1064150335
897+1067247155+1068156294+1070326446+1073208275+1073741823+1072356239
885+1070373256+1067954866+1065135567+1062898225+1062990454+1063482130
874+1060969912+1055388487+1048896461+1045103129+1046047462+1048535546
862+1046482035+1039616505+1032891892+1027779816+1024706784+1024558634
851+1023980850+1019151094+1012595218+1008410923+1004907908+998704323+991776056
837+988352193+987579588+984614226+976869673+965843148+957191473+954901966
824+953798145+949782449+949040030+952844004+952972679+947337628+942032262
810+940654260+941644847+941690335+937800531+931643686+928178022+926031866
797+923035204+916711221+901157778+888558291+893818516+905174657+906979026
783+903700531+901911882+900918026+897337041+891773839+887741728+883770059
770+878747430+876752276+878085694+877784943+875088267+872940303+870680078
756+866309169+862015953+860192318+859686591+859036471+858108899+858447766
743+858937426+855735441+851646226+851259228+852261013+851588635+850906172
729+851669526+853153668+854650817+854184249+851857809+850316285+850567653
716+853493370+857078736+856018247+850200964+844114021+839750068+837952516
702+839303254+840068486+837338355+834437121+832799960+829191085+824849876
689+823825694+824666323+825760963+827845912+828715405+828308515+829668364
675+831360542+830741512+828224911+824188696+822070709+824689345+826092874
662+823065539+818380108+816336126+817173764+816252175+811862417+809294068
648+811389450+816346420+820996170+820362673+814227181+808247421+813443169
635+841083904+869082493+855806525+820761774+801585127+797137014+799168545
621+804245148+803139519+790783192+776756319+771355317+772272455+776540841
608+786348433+795248972+793602978+786244728+784184819
##END=
