##TITLE=Sample description
##JCAMP-DX=4.24
##DATA TYPE=INFRARED SPECTRUM
##DATE=25/8/2023
##SAMPLING PROCEDURE=Instrument type and / or accessory
##ORIGIN=Default
##XUNITS=1/CM
##YUNITS=ABSORBANCE
##RESOLUTION=4
##FIRSTX=4397.6552
##LASTX=599.8556
##DELTAX=-1.9287962
##MAXY=2.0058489
##MINY=1.2430861
##XFACTOR=1
##YFACTOR=1.8680923e-009
##NPOINTS=1970
##FIRSTY=1.3282809
##XYDATA=(X++(Y..Y))
4398+711036008+714001224+711023564+707891412+706935423+706943911+709021483
4384+711860221+710949859+707760148+707649687+709839762+708937377+704978459
4371+703573671+706138650+708868267+711004101+714251117+715952573+713343755
4357+708724623+705813903+706368378+708478942+710192012+713312422+716850172
4344+717130058+716037126+714855940+710955220+706751450+706322241+708294649
4330+709763824+708932463+706143818+704852172+705173855+705749643+708018145
4317+709738362+709641111+709779586+709537031+710081104+712595989+714867746
4303+714962062+713065847+711954410+712739825+713960702+715693044+718578111
4290+721483853+721728769+719115675+716532637+714004159+711706878+712252418
4276+714235355+715262878+716581135+718758703+719468882+717385184+714003904
4263+710924270+709467985+708152919+706084663+706646094+709042605+711354755
4249+714151760+715495606+715745371+716611064+718027402+721263314+723811702
4236+721088019+716735372+715351962+715131997+714459149+714691302+716662051
4222+718514042+718643520+717581282+716109746+716397225+718842043+719236984
4209+716229141+713668501+712845308+713128129+715533000+717552120+716349237
4195+714757349+714695067+715623743+716930513+717415878+718144818+718956588
4182+716724332+714156099+715450171+718534590+721416403+723562511+722672952
4168+719054669+716747050+717268533+718035761+717255068+716096728+716996177
4155+719037121+717487540+712894764+710010271+709571235+711296302+714583521
4141+717276063+720442228+724158910+724113092+721263633+720317026+719635244
4128+717228139+716475460+718129822+719182998+717611147+714230314+713011606
4114+715360640+718052353+718478945+717663346+717986242+718268680+717557480
4101+718889648+721348888+720809601+718807967+718723733+719686677+720644835
4087+722842568+724088205+721376647+718968458+721069577+725698600+729258302
4074+729019001+725599115+722631537+722740849+725632744+727767876+726429582
4060+724248887+725575631+728915624+728582454+724593416+722777095+724302554
4047+724877577+724224766+724024392+723082506+723542728+727850323+732234749
4033+733881836+734292794+732947353+729979393+727878337+726360472+725773708
4020+727317800+728236011+726441962+724200772+723262141+722554897+722461219
4006+724203771+725702620+724505098+721623222+720133243+720699396+722735042
3993+726228123+728249412+728266131+730251748+732674487+731177936+727499732
3979+726174967+728253432+729803651+728238117+727399162+729305587+731710012
3966+733514016+733447139+731297075+729411326+728017514+727861746+731097148
3952+734420102+733139878+729560266+727523088+727405161+727953828+726571567
3939+724582695+725836437+728539635+728816649+728718376+730371781+731222924
3925+730322773+728794123+727311930+727548422+729758152+729789165+726667095
3912+724233891+725060849+728342133+732472773+736410059+737214299+733642281
3898+730874822+732332447+734271353+732103868+729265449+729876462+728775936
3885+725696813+725753224+725423436+725174500+728079477+729481393+727043530
3871+723448987+722045347+723391108+722723428+721195864+724215194+729576220
3858+733020164+729685851+717156158+714520729+723093546+729996814+732831021
3844+732032524+728452849+721080872+712929733+715959210+726250203+731851103
3831+732779588+733714071+734736744+734270779+730908196+726427923+727542551
3817+730959439+732129138+733749551+736940603+739181410+737153676+734502166
3804+734289540+730344788+726694152+728726608+731992450+736033687+740846939
3790+742649476+739871105+736169546+736083526+739245989+741060650+740591303
3777+741240221+743315560+744869033+744652897+743411663+741540527+739902118
3763+741491135+744042841+742296971+737955874+735144256+731057456+721886324
3750+715470017+718273402+724534835+729229011+731471605+733776480+734597057
3736+729274127+721404916+723210133+731635605+737884020+740491180+741402307
3723+741819647+742628864+742261937+740116212+737665140+733016208+727686514
3709+730598638+738425413+743818154+745438631+745817555+746375539+746728427
3696+747563298+747564255+744662916+741374676+742087408+744883008+746629389
3682+746150469+744129755+741410667+737135234+735868793+737922500+735629366
3669+732329320+734153490+736437052+736884128+737859962+738957680+736657591
3655+733914764+733248552+728144949+718333961+717656263+723585100+727930728
3642+729006622+727663541+725492100+722846588+720183847+719048288+717649180
3628+714060124+713658929+715117703+714147293+710275607+706950483+705506004
3615+702639570+699086059+698132304+698447095+698482192+699186884+699910272
3601+699460835+697388686+694181745+691752369+691656522+693265895+693114721
3588+689119685+687089717+688162101+688718235+689127470+688202686+684229920
3574+681050419+681908262+683839702+681613189+676316359+676297917+679361151
3561+678693152+674749230+671803860+670882139+670698038+670930637+672174615
3547+673207627+672401664+671371205+671616312+671828875+671061391+670041462
3534+669949826+670786355+670705376+668648799+666194919+665430754+667354025
3520+671262850+674813554+676131300+675531774+673288095+669875036+667775831
3507+667847111+668373189+668231459+668260622+669564840+671241153+671193102
3493+669723416+669925385+671950248+672012849+670075730+669406965+670149498
3480+672014699+674878963+674889875+671413832+670060031+671847380+672518123
3466+671219138+670730136+671129671+669734966+668342239+670683999+674061896
3453+674619306+672903237+669957675+668991030+672564196+676365176+676266074
3439+673178528+670374951+670802564+674164955+677536662+678127447+676011076
3426+673765228+673129966+675022096+678556017+680784253+681311033+681675726
3412+681696657+681783060+684009637+686589484+685045902+680895544+678098348
3399+676920927+678774004+683424277+686787752+689636062+692522980+692029575
3385+690166671+690337754+691621935+693613678+697466985+702261412+706257853
3372+710489063+714490609+715072076+713816484+714631445+715842814+716211783
3358+719390392+724641914+727578287+729572710+734620285+742272530+748107051
3345+749948067+749929306+749840350+749951769+750670818+752799887+755731091
3331+758645002+764449084+773202302+778111146+777727372+775806334+772964725
3318+771235382+771815254+771660443+770482448+770400256+772457791+776721610
3304+779360293+777533826+774108197+772143829+772993760+774313612+773427244
3291+773015392+773377597+770866923+766374461+765794717+770955433+774280812
3277+769539797+761858197+760137724+765374250+768988449+765208272+759192202
3264+757536819+760038750+761691134+759404700+755075536+752339602+753636481
3250+757788243+760921608+761530962+760314487+758438502+756998936+755347701
3237+754249536+755641816+755921893+751979439+750476825+754405687+755474434
3223+751547741+749088374+749488547+750157822+749346307+748299130+750565526
3210+754950590+757273588+757431909+756381477+754002897+751964826+751662414
3196+751316864+749503990+748104946+749500736+753169495+754780081+752848386
3183+751953977+752995667+752897075+752020024+752343622+755066411+759365710
3169+761519220+759744506+756052200+753060501+752757898+754923342+756857270
3156+757734321+758387579+757885431+756858036+756832957+757498977+759170186
3142+760154507+758023906+756959371+759765884+760601201+758420825+759357159
3129+762516432+763657798+762612343+760271924+758452732+759336611+762550955
3115+764513918+764026448+764129507+764742370+763457616+760316657+758736063
3102+762290979+767468989+769480897+770939479+772375217+771424716+770905913
3088+770887216+768494087+766627226+766844128+767374991+768111398+768101634
3075+767887987+769363416+770721684+770894491+772112305+773962638+773481102
3061+770362989+767541481+767665087+769106248+770192416+773279452+776680259
3047+775647375+771863561+769735257+770765013+773603496+775386251+774471422
3034+771816211+770337783+772011480+774227464+773389722+771070488+770181695
3020+770914975+772488294+773678988+774674668+776193171+777370592+778231179
3007+778904283+779331577+780245640+780736939+780338744+781105972+783942030
2993+786738332+787207425+786518878+786786575+787785701+789400818+791041652
2980+791636711+791973263+791499704+789733158+788989158+789662708+789983690
2966+789845597+790835598+793266633+795141980+795436798+795397872+796348436
2953+797582268+796801192+793794625+791124226+791204440+794012547+796577526
2939+796752566+795975256+795595885+795861859+797572122+800298165+803037419
2926+804815451+803289226+798908438+795491742+794345079+793930866+792942652
2912+791873523+792470816+793716964+793087381+792670233+794968408+797236463
2899+796815678+795042432+794097738+794437864+795323019+796357689+798029536
2885+800235309+800700126+798945513+798394357+800289359+801361296+798869065
2872+795333484+794666124+796131535+797850284+800028554+802259980+804163533
2858+805984640+806553919+804555411+801460526+800169454+800146353+799299997
2845+799181367+799824032+798738375+797658716+799249393+801979776+803151964
2831+803310093+804025314+804053774+802691933+801596640+802059798+803684805
2818+804947800+805200628+805116586+805780884+806616392+806137537+805292647
2804+805279502+806129432+807612710+808919226+809929009+810817036+811037064
2791+810014519+808221937+807596055+808808892+810644931+812616382+813999345
2777+813823220+813182151+813174047+813446402+813723799+813913069+814031826
2764+814176683+813927427+813638863+815015509+817511570+818162977+816784863
2750+816131605+816788819+816218838+814161686+813332751+814038718+815039376
2737+816793159+819401786+821336991+822269751+823144186+823042914+821675967
2723+822189729+824864977+825031339+821826375+819108755+819196435+821802573
2710+823703318+822165097+819747080+819936223+822171670+824140376+824800972
2696+824041083+823098814+823679771+825114934+825911644+826167153+826110614
2683+825572987+825131015+825002367+825193999+826396307+827172214+825759003
2669+824601556+826135055+828049775+827396326+825744645+825711653+826376270
2656+826046099+825222077+825206506+826312584+827637860+828683889+830097036
2642+831571827+832140979+832716703+834324226+836178579+837267810+837094046
2629+835977503+835192088+835614469+835970994+834442536+832615559+832662590
2615+833512584+834254223+835587348+836604151+835596282+834238652+835298401
2602+837054865+836318522+834832053+835996137+838442869+838712736+837583814
2588+838223798+840206927+841082319+841414722+842541092+843695157+843919525
2575+843120965+841761484+841027694+842269822+844580568+845303829+843766118
2561+840952203+838160623+836729927+836550420+837137375+838908707+841413957
2548+842595461+841657532+841329276+843029073+844024498+843466706+843315085
2534+843729234+843913782+844143319+844351542+844205345+844876024+846125873
2521+845961362+844878768+843933245+843447625+844345352+845929519+846483802
2507+846321397+847072544+848594047+848916879+847259964+845151762+844993058
2494+846990672+848683832+849250814+850201315+851149262+849950081+847555995
2480+847397993+849654051+850661920+849020193+848090176+849491135+851231582
2467+852476900+852931060+852227517+851202291+850595873+850893690+852393751
2453+854494487+855603564+855290432+854714707+853885452+852903939+852837062
2440+853099527+852386987+851096744+850109168+850127865+851559391+852526866
2426+851615355+850581387+850568114+851427425+853447629+855506950+855661826
2413+854795623+855041942+856166653+856801660+856746717+856414122+855725001
2399+854879729+855020693+856483678+857302085+855960281+853865926+852677082
2386+852468349+852918680+853836444+853854822+851073069+845987398+840600783
2372+836316544+833582523+832279901+831674120+829991872+827518210+825344790
2359+824167688+826073028+830823105+835746499+839106018+840824385+840982706
2345+839950652+839672489+840877797+842338038+842343526+840915000+841461242
2332+843242401+841361055+838087110+838918917+843327273+848453849+851955800
2318+852622841+852738598+853923549+855229043+856313233+857451791+858837945
2305+859953977+860119063+860238904+860797144+860936321+861458506+863584767
2291+865821682+866984617+868100968+869019115+868553852+867452943+867277967
2278+867245294+866227216+865993212+867151425+867451156+866436651+865431654
2264+865296051+866265823+867392001+867500293+866790433+866775756+868017628
2251+868862325+868959322+869527261+869653930+868684860+867999313+867983041
2237+868618622+870015561+870508009+869391019+869038961+870353580+871274344
2224+870776855+870021942+870195898+871033257+871974696+873060097+873767660
2210+874042185+874193423+873308459+871927920+872269258+873742964+873938999
2197+872968972+872593621+874256534+876910469+877161447+875764891+875799351
2183+876613290+877076703+876942759+875796862+874972840+876067750+877567236
2170+876887369+875548053+876135200+876930251+876285289+875500385+874579877
2156+873128314+872653925+873435958+874438275+875637966+876984110+877794731
2143+877873349+878010357+878406382+878381368+878520736+879273032+879969938
2129+879840078+877964539+875896474+876232324+878227194+880172737+881472360
2116+881544725+880581015+879323253+877827148+876695865+877357992+879878366
2102+882849453+884593090+884309312+882705171+880557659+878603821+878052601
2089+879253696+881108943+882522601+883325309+883125765+881749246+880348670
2075+879840971+880197560+880884894+881188837+881447664+882425285+883805377
2062+884851534+885230075+885190000+885007813+884584220+883958529+883330095
2048+883261943+883824202+883968867+883139612+881736803+880648210+880636852
2035+881574844+882974591+884456721+884989754+883608258+881637382+881353029
2021+882524898+882854111+881927030+881925754+883355493+884584603+884908711
2008+884943744+885633312+886472777+886075857+885644798+887276761+889998402
1994+891252271+890127050+888082086+886495367+885515831+886160155+888959903
1981+891707516+892435754+892092630+891376835+889815385+888110483+887455439
1967+888603697+890663593+891730106+891630238+890896065+890277458+890477449
1954+891282519+892329760+892983018+892913461+892428033+891419718+891099885
1940+893049511+894690217+893293598+890782669+890079509+891053174+891687798
1927+891357819+891508610+892932797+894474847+894421691+893121493+892683350
1913+893362580+895021600+898193253+900963009+900590849+898372505+897050674
1900+896218803+894928050+894751223+896691724+898201038+897415559+896764280
1886+897469481+897876483+897869783+898432106+900023165+901302368+901092231
1873+900445865+898653539+894661756+893212746+896422495+899610101+900507190
1859+901245957+903010014+904201091+904281496+903727341+902478832+900907236
1846+898742048+897106575+899001705+901836295+902890109+903430991+904039707
1832+902229003+897819817+896523512+899145476+901567002+903613370+905365685
1819+906131701+906046766+904895891+902494849+900569982+901882304+904822442
1805+906077715+905238059+902753549+901228792+902943968+904860858+903444839
1792+900079321+900645665+903825869+904863729+904381555+905137616+906868937
1778+908333263+907677006+902984362+896231310+895873445+901529799+906012498
1765+907848728+907450979+905748374+904872727+904594182+905410674+906285938
1751+903336930+897312501+895043999+897912346+902601481+905073867+904085398
1738+902871603+900604761+895292679+895829924+902050197+906300743+907067014
1724+906205278+905499694+902922973+895000606+889126839+895130019+903646936
1711+908704721+909854383+906695237+902951498+902136665+897391182+887881904
1697+886667025+893673734+901364650+905259053+905105072+902535881+896744498
1684+889336402+890791347+896292635+899941484+899870268+897234265+895796741
1670+895041318+897107404+901726791+902594908+900002809+899889859+900893452
1657+898760107+891089802+881182775+882616981+885265683+882687941+882064995
1643+885978925+888363120+887098850+881295980+874580515+878268099+886192062
1630+889856800+888776886+886848255+886453952+889791774+894619321+895429112
1616+894351113+898096512+903194180+905846200+906931155+908648182+910125908
1603+910142564+910433042+912194036+914795580+918281705+921221524+921887161
1589+923580067+927584420+929795873+930199556+930658119+929623130+926454668
1576+924414299+926635324+928097033+926322128+926408212+928791067+928975488
1562+925784308+914904637+902833953+913839592+926376560+930523856+931432431
1549+932929876+932505389+927939286+920604895+914137409+918623362+928442199
1535+932575520+933534444+936380967+937803112+935606592+933344343+930988672
1522+926549622+926594738+931336583+936525632+942199344+946244601+946542482
1508+941450749+935323579+941240547+948123714+948347508+944681812+944953019
1495+948551966+948966689+944843260+939920823+941215788+947220563+951777158
1481+951463451+948173616+944651437+940073273+934081197+932674494+937890345
1468+941689666+939198647+934700952+933161135+929792810+921021788+918876318
1454+928492612+935696696+937908085+937844399+937650790+939078040+941926477
1441+944880527+946233562+945384844+945848576+947691761+949123095+951476086
1427+954038066+953462342+949301900+945017470+941252289+939846417+942457724
1414+943405480+941270795+940558255+941894507+940524434+935751512+932595621
1400+931285277+928710216+923983303+920920197+924818429+931074948+930807953
1387+923983878+919730652+919732630+920541911+921834962+923483581+924889581
1373+926873156+928282857+927862583+927308746+926539029+923673043+921390183
1360+922776082+925253126+926364882+925518781+923613313+922128312+920955805
1346+919906330+920113022+921498219+921905859+920735521+920493669+922136353
1333+924552519+926484852+927162805+926348674+924760869+924872096+927804959
1319+931036277+932177516+931803697+930636678+929736973+932425877+939909783
1306+948792478+954536704+955382805+954120002+955060292+959757085+965451408
1292+968307248+969821285+971963500+973303645+975739976+979638910+980882186
1279+979887909+979543636+980872550+983605103+985764739+987186693+988274073
1265+988019202+987611179+987547493+986241297+984320004+984182614+985770355
1252+986443905+986668783+988450517+990008010+989610325+989166567+991727142
1238+997096017+1001475019+1002430497+1000749844+998431185+997358801+998837804
1225+1001554658+1002248118+1001651399+1002798636+1005326731+1007568878
1213+1008794350+1008157556+1006753917+1007885967+1011462132+1013503650
1202+1012107669+1009985363+1011143576+1015204341+1017695360+1017433214
1190+1017056077+1014896951+1007821196+1001685986+1002947130+1008524101
1178+1013532111+1016650352+1017434682+1016423112+1016101429+1018647009
1167+1021278353+1021282055+1021260869+1021504317+1020524398+1020011594
1155+1021238215+1022776309+1022594313+1020297988+1017446743+1016605555
1144+1019030272+1024199092+1030190977+1033552347+1033682973+1033020462
1132+1031913236+1028213975+1022976428+1022312385+1027279172+1031312242
1121+1031177532+1028526086+1024681585+1022804195+1024944943+1030176874
1109+1037995481+1040996752+1034542986+1028843047+1026225231+1021996701
1097+1019799223+1020090723+1020201630+1024878960+1034968557+1042673257
1086+1046755399+1049327972+1046767779+1040422559+1038495650+1044490024
1074+1051945661+1053074009+1050928603+1052624188+1057190993+1058706433
1063+1055508106+1049876193+1045687610+1046846780+1052588963+1057610247
1051+1059022820+1058234406+1056441441+1055813836+1058569362+1061931434
1040+1061223616+1056257020+1052503134+1054501642+1059444754+1061246461
1028+1060496462+1061783387+1062049170+1059311256+1061718552+1069300603
1016+1070922293+1064313715+1056469902+1051702085+1051264389+1054581664
1005+1057045626+1053653371+1047210835+1045027716+1048966405+1053092196
993+1052208891+1050423648+1052735989+1055056435+1052306717+1047651913
982+1044663150+1042647796+1043494344+1048584737+1053412411+1055243600
970+1055756979+1056936824+1058262675+1054999131+1049980974+1052675686
959+1059985062+1063026152+1064178877+1067343893+1068851165+1064587857
947+1057722495+1054873355+1055854996+1056077769+1055218968+1053457272
935+1051153992+1051633996+1056840019+1063342986+1065128931+1063460083
924+1064167901+1066517446+1066057352+1062497139+1060528114+1063461232
912+1067737048+1067188061+1064129422+1066360593+1072154146+1073741823
901+1072419227+1072993292+1071790920+1065401478+1061157697+1065786528
889+1072827377+1072796236+1069190780+1067095021+1066183766+1067190933
878+1067315050+1064069246+1060307064+1058671591+1058452966+1055787226
866+1049901399+1044854909+1046105715+1052589984+1054447081+1051125340
854+1050197812+1048426927+1040506729+1031997853+1029589600+1031571643
843+1031561114+1029817031+1030518659+1028830093+1022597695+1019347297
831+1018428895+1013465745+1007347573+1005250410+1004801738+1003126892
820+1000799299+998465963+998196160+1002237142+1008739662+1010427016+1004840409
806+999080231+995378097+991107770+987858711+985990000+983133075+979811014
793+975617773+971506724+972054689+974610415+976212003+980857107+983784355
779+976166760+965218745+961798858+961911935+956216846+946663153+942292064
766+945103810+948300732+947485006+943024323+936243896+930676753+928977402
752+929752607+929865940+928232828+924725261+921984987+923228072+923313773
739+919738310+918250692+918260073+915493571+911037738+909127293+912702820
725+918802231+920160563+916818145+916377642+918486674+915942498+911626672
712+913019909+915272075+911366249+906401823+903928544+900334447+898070986
698+903267182+911272890+910660665+902684056+899169470+903921780+907448490
685+903098907+898165749+896949658+893626257+887447143+887417661+895587944
671+901025291+900163172+902170230+904459216+901210222+896757898+894348178
658+893949663+894335096+894190367+893216128+890890194+890812661+893484400
644+886476414+869521007+858654865+859341114+851392264+810245459+772986230
631+786378361+831554981+855084187+859844155+863425298+859468039+856518839
617+856203410+851314922+841417785+833095372+842459411+867217344+870215424
604+846252479+833132320+833925584
##END=
