##TITLE=Sample description
##JCAMP-DX=4.24
##DATA TYPE=INFRARED SPECTRUM
##DATE=25/8/2023
##SAMPLING PROCEDURE=Instrument type and / or accessory
##ORIGIN=Default
##XUNITS=1/CM
##YUNITS=ABSORBANCE
##RESOLUTION=4
##FIRSTX=4397.6552
##LASTX=599.8556
##DELTAX=-1.9287962
##MAXY=1.8156486
##MINY=0.10003084
##XFACTOR=1
##YFACTOR=1.6909545e-009
##NPOINTS=1970
##FIRSTY=0.10003084
##XYDATA=(X++(Y..Y))
4398+59156435+59157034+59283460+59546176+59664586+59758345+60042505+60243222
4382+60036839+59622953+59436344+59647015+59993910+60167380+60304992+60682166
4367+61113946+61393661+61788275+62237754+62376402+62371485+62407941+62259132
4351+61838593+61489900+61525845+61599970+61274431+60949130+61004277+61031882
4336+60788729+60515927+60409907+60489169+60591136+60673715+60808495+60781961
4321+60556235+60383065+60240336+60203351+60438260+60722928+60833152+60857985
4305+61026991+61219420+61145873+60984322+60930479+60988825+61178315+61374124
4290+61635347+62061341+62290738+62228060+62441692+63079948+63434633+63137765
4274+62788556+62794518+62837958+62727161+62682430+62858275+62954866+62717666
4259+62539438+62789671+63212727+63425283+63422344+63374414+63378865+63554401
4243+63858499+63968706+63906654+64089390+64372506+64288772+64036269+64145863
4228+64614139+64930297+65012767+65178552+65264040+65112817+65072342+65306854
4212+65573866+65749702+65982003+66265075+66434249+66513075+66530351+66530232
4197+66659729+66730623+66582780+66526760+66704204+66986607+67285092+67365134
4182+67144959+66963320+66919951+66931191+67185562+67546565+67598364+67391046
4166+67206486+66962840+66620100+66645224+67114821+67546125+67780276+67819045
4151+67627964+67410173+67355326+67407662+67491586+67579382+67709068+67911380
4135+67924123+67664817+67553571+67695960+67784025+67844504+67977041+68046565
4120+68077673+68079607+68073482+68214558+68417047+68553937+68556994+68390275
4104+68386177+68829272+69356867+69587132+69660129+69633608+69483619+69438381
4089+69504429+69495881+69521044+69760818+70051407+70140385+70075059+70051028
4074+70158106+70367856+70659331+70953524+71047071+70979494+71003917+71098455
4058+71100491+71004847+70898562+70845970+70805531+70712976+70559519+70511707
4043+70771106+71101218+71200784+71205489+71201872+71037906+70843869+70828482
4027+70923034+71157154+71457155+71491183+71282923+71145482+71251445+71510050
4012+71575261+71246797+70837740+70742633+70857404+70903686+70781407+70554297
3996+70546238+70763117+70738518+70635811+70942205+71320591+71354540+71312827
3981+71391693+71431639+71419429+71471285+71556187+71570040+71567048+71697893
3966+71845697+71726352+71515959+71612788+71945752+72112907+71751551+70953300
3950+70290374+70363507+70826182+70789255+70730433+71426118+72201466+72167993
3935+71011928+69594719+69577377+70585449+70814140+70330188+70414750+70541383
3919+69871236+69721757+71104148+72632307+73254626+72813391+70798472+67301364
3904+64476284+64356516+66306096+69124721+70946642+70564696+69369257+69792537
3888+70485178+69777874+68885358+68408195+68533765+70004781+70527239+68988386
3873+66895576+65532629+66161645+67474706+67332621+67902150+70274873+71356787
3858+69580911+65145365+61218468+64789988+70560563+73563955+73414591+71089753
3842+68115327+65275051+64356027+66700829+69501521+71303372+72467487+72781949
3827+72503970+71677982+69097491+66607265+67703970+70015700+72879501+75911096
3811+77117021+75821845+73580975+72623918+71575182+70557968+71969919+74012094
3796+76251144+78917114+80729614+81273076+80659592+79588151+79303964+79381627
3780+79043244+79752906+81639597+82504020+81580616+80033497+79742445+80648383
3765+81813331+82350783+81253081+79840817+79977539+79741106+77002761+73368732
3750+74021673+76645626+77863932+79736638+82322240+82893610+80478332+76964154
3734+77849110+83372769+88099464+89808561+89493214+89332213+90585830+92882821
3719+95214189+96373955+95521816+93085636+92834697+96998234+101330597+103529648
3703+104221059+105699169+108622352+111181931+112585982+112416883+110843601
3690+111167417+116763725+123375268+127976256+130700193+131650949+131095661
3676+131719588+137258096+142628695+146892013+154590816+163133033+169899858
3663+175530622+180467595+184727115+189473126+195250209+198976340+199637930
3649+202447373+213730596+226397206+235915559+243413221+250232162+256582272
3636+262442384+267955345+272129739+275845577+284459826+295562803+303722884
3622+308944053+313132529+319297211+326599946+333072987+339413738+346007120
3609+353088526+360928527+367905032+373209635+377643727+382318394+387246889
3595+391934140+397075963+401724793+404011684+405646397+410810286+417588585
3582+422679156+426448696+430226097+434575520+438722508+441286528+441575958
3568+439785691+439719070+444161551+449722099+453948573+457054690+459273586
3555+460070639+460740161+462979854+465507638+466056960+466098625+468486682
3541+472061823+474696060+475748105+476428342+477791778+478614739+477704712
3528+476683510+477343903+478381777+479117744+480437083+482014022+482667470
3514+482372506+481904961+481966894+483487823+485092186+484690734+483553069
3501+483983954+485060039+485301319+485956847+487121830+486919042+485515563
3487+484461157+484408001+484874734+485495612+486177365+486065520+485048336
3474+484451252+484006161+482957077+482371660+482399471+482306555+482321923
3460+482813684+483070579+482173137+480683826+479490009+478180646+476144164
3447+474832157+475469037+476411140+476583156+476325168+475903765+475779653
3433+476070423+476430105+476660986+476485763+476000206+475501149+474700008
3420+473702881+472879497+472717139+473726639+474973294+475451801+475469954
3406+475136145+474247444+473945782+475253842+477008613+478093228+478330208
3393+477796536+477708555+478861377+480358971+481629736+482712589+482979108
3379+482368804+482341592+484010532+486425449+488029283+489136493+490803177
3366+492748857+494131222+495282528+497111816+498759324+499270648+500291603
3352+502578848+505020378+507697125+510221455+511936500+513937381+516344331
3339+518516311+520926399+523300497+524834045+525728456+526618813+527766806
3325+528937112+530033253+530760443+531181811+532207207+533367996+533891339
3312+534698791+536693749+539152199+540265119+540125321+540325712+540446934
3298+539689818+539355974+539888447+539769164+538783141+538135262+537967159
3285+537288437+536095220+535357914+535126080+535294924+535510578+534753533
3271+533433242+532423355+531297710+530234632+530280808+530664671+529763351
3258+528204670+527686932+528474925+529634621+530397835+530169350+528781769
3244+527687707+528054157+528602809+527521860+524967145+522993054+522472143
3231+522071113+521204655+520319056+519410369+518240346+516431044+514197590
3217+512731121+512718079+513264087+512848359+511397259+510062411+509528810
3204+510046266+510721287+509768715+507976650+507503360+507849965+507736674
3190+507167260+505898045+504003053+502421320+500997291+499315027+498035237
3177+497312172+496648114+495508581+493531423+491781269+491374494+491317215
3163+490490623+489445029+488853830+488025265+486077258+483987867+483074774
3150+482585058+481318064+479830868+478911113+477726073+475591281+473600235
3136+472532540+471551275+470375259+469765343+469525508+469036392+468217097
3123+466681222+464668357+463472178+463048554+462500043+461946808+461307707
3109+460120587+458727577+457723824+456874708+455524702+453734964+452075189
3096+450848414+449823511+448813341+447984987+447463371+447496963+447577508
3082+446549467+445025895+444564449+444897764+444805729+444028521+442897835
3069+441399325+439180535+436364271+433576384+431224598+429259707+427317305
3055+425535956+424029056+422146225+420305551+419654042+419627993+418899288
3042+417236235+415266021+413654819+412355608+411025905+409890355+408820157
3028+407201095+405524929+404688150+404350358+403967835+403604910+403113678
3015+402528790+402406052+402867780+403511112+404167027+405008847+406080596
3001+407187312+408694529+411420131+415216003+419613647+424951984+430942923
2988+436122286+439171440+439693057+438214885+435469931+431777586+427576139
2974+423692216+420491067+417612731+414955688+412972220+411871637+411300778
2961+410673626+409864377+409338107+409406949+410094518+411157561+412182147
2947+412802425+412757412+412283523+411437051+409816367+407765221+405988666
2934+404385572+402454308+400151554+397704525+395259154+392833204+390073445
2920+386507645+382221529+377939537+374108664+370592318+367306854+364197319
2907+361245699+358591405+356373884+354637971+353294521+352302224+351548703
2893+350859830+350369515+350315443+350686052+351282044+351821602+352062107
2880+352179275+352508960+353011471+353605665+354250900+354789542+355130894
2866+355176648+354822183+354022028+352726306+350842276+348097004+344277270
2853+339476129+333876984+328150836+323136156+318654796+314323596+310308264
2839+306585359+303029463+299807659+297034048+294489731+292070003+289915542
2826+287984772+286244118+284746066+283394545+282129260+281066358+280255382
2812+279464374+278608632+277909571+277383496+276887594+276313245+275496893
2799+274359122+273031341+271720426+270387745+268837842+267114742+265238379
2785+263104450+260998105+259279622+257763293+256177894+254660261+253383204
2772+252321994+251425997+250580564+249576705+248403509+247351358+246552754
2758+245875971+245305658+244768655+244028547+243097742+242231935+241502913
2745+240702688+239782386+238955883+238331233+237889650+237492111+236894955
2731+236142475+235562327+235174658+234672640+234090501+233684501+233344118
2718+232911753+232429245+231897089+231408819+231051657+230629003+229977017
2704+229239959+228626130+228145474+227659988+227049667+226304677+225446167
2691+224467493+223514745+222736621+222012269+221264688+220561504+219844202
2677+219058252+218191300+217192446+216214336+215421002+214708159+214021225
2664+213379902+212738827+212149744+211654088+211134710+210487625+209789287
2650+209220437+208824871+208501549+208186051+207835781+207474760+207202830
2637+206982664+206788600+206690150+206586958+206389933+206214304+206162329
2623+206239190+206436990+206690731+206800885+206716516+206703192+206865796
2610+207034833+207148617+207204892+207216172+207267019+207290883+207146344
2596+206875014+206591311+206342452+206127362+205822704+205316086+204756454
2583+204270598+203776722+203246558+202722474+202206921+201664120+201029671
2569+200261117+199413728+198635445+198011818+197466215+196877625+196242313
2556+195659892+195212669+194851471+194449842+194050188+193736312+193402168
2542+192986740+192623322+192495808+192592020+192668476+192602912+192468296
2529+192375009+192402697+192480862+192525505+192595986+192733211+192878772
2515+193003483+193119224+193174917+193190938+193276699+193381794+193428182
2502+193476121+193526157+193526651+193493605+193388139+193122572+192756722
2488+192423776+192078458+191636699+191196191+190798369+190369194+189893771
2475+189334350+188696694+188136251+187723977+187346794+186924827+186427814
2461+185757182+185000208+184472828+184220779+183961240+183544895+183069949
2448+182611005+182119914+181560476+180933553+180328114+179908561+179607428
2434+179214965+178767724+178435466+178218578+177996473+177716472+177410668
2421+177174693+177023051+176826450+176576375+176348507+176135761+175957048
2407+175840285+175763019+175714305+175682563+175660550+175663088+175624472
2394+175464159+175223108+174993284+174755934+174351556+173743492+172970003
2380+171900316+170450273+168809074+167250517+165722609+164111443+162685211
2367+161570087+160631121+159868630+159396786+159361219+159940838+161230198
2353+163029524+164717251+165452636+164924146+163720248+162880050+162707682
2340+162871114+163120431+163308292+163357358+163276021+163347154+163812090
2326+164430447+164951517+165511502+166351559+167337195+168075505+168442466
2313+168553377+168603871+168818997+169201873+169544089+169741589+169863710
2299+169994290+170167240+170347698+170473343+170563052+170690196+170850297
2286+170945558+170892632+170723612+170567388+170449850+170317948+170197836
2272+170092477+170029081+170033082+169961156+169749573+169537691+169381502
2259+169208323+169045807+169001728+169010787+168910257+168761012+168733430
2245+168752869+168634714+168408345+168252085+168245670+168255399+168162887
2232+168094046+168128678+168140733+168073619+167998591+167970004+167982958
2218+168013466+168033788+168051659+168091808+168096478+168059378+168070323
2205+168155644+168289767+168411922+168449815+168431539+168453534+168507941
2191+168499464+168429018+168370628+168336401+168271508+168156930+168006663
2178+167830541+167683218+167566790+167440334+167342834+167254747+167139993
2164+167091737+167060577+166924269+166823456+166840570+166854564+166841081
2151+166835776+166867624+166965387+167042054+167011581+166967467+166982659
2137+166999402+167005923+167047306+167135869+167217524+167251328+167273940
2124+167321015+167372408+167374065+167342077+167371968+167520226+167693158
2110+167753698+167765295+167845205+168000618+168215373+168434517+168613054
2097+168798729+169016656+169202648+169396465+169683728+169966355+170186363
2083+170457023+170811982+171133154+171332118+171460389+171621989+171851742
2070+172041083+172043744+171994959+172155466+172419112+172581135+172699660
2056+172879977+173086483+173189058+173191984+173191526+173192425+173184317
2043+173210543+173348296+173521616+173601473+173658065+173775216+173918451
2029+174046722+174204938+174389255+174483829+174407426+174186238+174138951
2016+174574648+175182678+175533195+175691393+175890233+176151923+176399512
2002+176610231+176807732+177083345+177330406+177197552+176976575+177330618
1989+178039988+178741939+179456474+180075730+180543010+180976892+181435835
1975+181887729+182325822+182536242+182329559+182311247+183068715+183986249
1962+184473374+184711306+184812753+184822552+184904048+184967479+184809475
1948+184374536+183622496+182703305+182542111+183428714+184166108+184348610
1935+184382555+184411406+184460332+184521296+184245260+183311987+182514687
1921+182467506+182611904+183236624+184365688+184817423+184385622+184125166
1908+184723996+185560034+186028407+186303191+186511460+186346953+185948162
1894+185875091+185734623+185488355+186157824+187271466+187957714+188402963
1881+188751876+189110166+189478502+189574925+188822040+186821089+185213095
1867+186503811+189104896+190655575+191163374+191425839+191841073+192331265
1854+192723923+192834111+192369087+191210431+189907342+190344819+192786877
1840+194567398+195187906+195802104+196219454+195226116+193766503+194177543
1827+195606013+197188875+199220634+200749317+201480789+202008380+202276802
1813+201877077+201607862+202517994+203780018+204158488+203448306+202714949
1800+203290813+204336778+204202902+203129936+203839078+207109350+209633310
1786+210559674+210943484+211244952+211965038+213158591+213241127+211547477
1773+210444903+212904339+216915899+220125701+221570421+221904883+223313737
1759+225417897+227372989+229259081+229451735+227934102+228101113+231553393
1746+235590104+238693259+241439253+244882933+247710599+248125111+249235018
1732+254690346+260862448+266302373+270285999+272930387+274857809+274952206
1719+273344899+275545801+283571654+291095788+296068363+298708275+300329205
1705+303041801+306124441+308775174+313114270+319892004+330345199+340525002
1692+346693032+351542781+355432063+358102958+366429927+380368589+391424332
1678+399836780+407578718+415983270+422941198+429691896+440081185+448977320
1665+453293891+456188971+460286646+463407849+463145913+459294207+457247538
1651+461898799+464280158+465782652+471981843+478830851+483004734+484397849
1638+483829598+486492316+494709131+501507627+505979682+510321668+515493805
1624+522078128+530941905+538728504+544480349+552928645+563802115+571759707
1611+576886973+581142069+585297411+588118644+588886581+588517699+587241682
1597+584360243+580148503+575745924+571249336+566130001+560697161+555225865
1584+549719601+544091868+537801629+529784853+522481096+520002801+517442447
1570+512661962+510051660+510161531+510010242+508356671+504087263+503133281
1557+511368637+518384761+522760833+525181566+527428908+529140076+528732032
1543+527513717+531189706+548853918+566220838+577803414+591776268+607807071
1530+619128029+627409314+634852446+639679671+642952692+646871265+648319440
1516+647724858+647628839+645580372+639133944+628678071+624857913+634244117
1503+641882741+645407158+646977154+650903623+658267867+663758763+666428319
1489+671602395+682692259+694682809+704530706+712325342+717770766+720141762
1476+720223963+722692318+732896795+744415641+750602565+752781806+756774261
1462+763477444+767111910+765150649+766032159+775395028+785346839+792164934
1449+795063046+798005924+804117344+811818641+818443993+820526229+817941976
1435+819313096+826412549+832152091+835014249+837379887+838809380+839705271
1422+840067068+836612866+833479361+836598837+840327911+841469419+842166012
1408+843042939+842770040+841627053+839080234+832619424+824712978+820761905
1395+820393199+820786579+819645424+817484654+817404991+820432396+823505343
1381+823419265+820573392+817043617+813112988+810378715+810384566+811196987
1368+811742926+811156098+807855513+804815418+805358677+807136360+807994676
1354+807378381+805617123+804468566+805057720+805188283+804029080+802747211
1341+800176564+797962285+799159134+801371368+802404308+802358061+801446871
1327+800853770+802090309+804159925+805018523+805098115+806031512+807487300
1314+808770862+810601700+813180314+816406947+819937780+822092065+822590347
1300+823416163+825517715+827689201+828659186+828421255+827421237+826016631
1287+824568527+822954470+820612871+817762064+815524873+814344169+813646307
1273+812880485+811745534+810332468+808633672+805797881+802330708+800363455
1260+799948855+799468057+798670440+798393946+799176335+800523768+801392729
1246+801759179+802480305+803879413+805713776+807812015+810229047+812798707
1233+814991343+817027614+819809474+823535939+827543834+830720766+832268977
1219+832650232+833253978+834976673+837269487+839058450+840672013+843170470
1205+846104747+848246836+849357958+850276409+851607557+852874269+853910170
1192+855013820+856216308+857653626+859277834+860861154+862717090+865367823
1178+867945873+869676604+872015453+875758486+879672759+883042010+886616341
1165+890848067+894205404+895223821+896113650+899528161+903797393+907131254
1151+910301136+912989868+914412240+916409595+921026101+925629001+927393501
1138+929239567+933575913+937712185+939503545+940961519+943609291+946629576
1124+950198408+954580154+958144051+960704969+963943023+967369872+969574281
1111+970128679+970216237+970995243+970320434+969044064+971511924+976417050
1097+979426478+980286979+981032921+982733620+984303404+984348241+986696043
1084+994146437+1000733227+1002256341+1003257063+1006372803+1006938340
1072+1003808501+1003148496+1007305283+1012481051+1015059735+1016843763
1061+1021133016+1025385258+1026469591+1026265569+1027159839+1029037771
1049+1030055554+1028932094+1028380375+1030097571+1029458293+1025776382
1038+1025650049+1030084176+1032446007+1030536633+1030149810+1034540228
1026+1039495054+1040796311+1040525174+1041683601+1042706742+1041295791
1015+1038678614+1037094096+1036231621+1035925447+1036558592+1036487741
1003+1035392410+1033745713+1031542079+1031449938+1034639842+1038054141
991+1039612645+1039941379+1039669749+1038894339+1037431289+1035426884
980+1034725497+1035995664+1037922662+1040365284+1041391104+1039898727
968+1039745323+1041424661+1043129026+1046352205+1049129694+1048263694
957+1046949184+1047649796+1048482803+1049640665+1052399895+1055048725
945+1055328180+1054200350+1054125269+1055321201+1057989982+1061123839
934+1060493162+1056610543+1054367007+1054903287+1055739185+1056033374
922+1056758307+1057129551+1057241925+1058719286+1061670130+1064583540
910+1065383765+1064225479+1062739165+1061968760+1062469439+1064586360
899+1068411875+1071127255+1071185628+1072292943+1073741823+1071814049
887+1069368254+1067748839+1064621115+1060863137+1057247917+1054737687
876+1055833159+1059507456+1060009967+1055605661+1052532009+1051694490
864+1046248855+1035776837+1028391302+1028360847+1029401401+1025869369
853+1022249285+1022171103+1020165428+1011320298+1000693678+994101811+989763210
839+984206610+977871569+973130775+969844430+965117101+957892231+950657845
826+947153378+947348094+946831835+944927396+942773464+938769094+934720240
812+934315863+937118519+938842554+935514896+930346812+929705702+931478661
799+929017709+922751475+917408414+913836763+909235273+904134233+902053548
785+901103091+898362402+896940524+897929191+897625061+895059561+891425800
772+887044335+882553387+878889101+877283574+876203541+872633088+868338971
758+865945486+864464671+861080192+855518375+851294827+849099935+847708088
745+847985217+849687467+851104270+850627208+848705427+847220100+845600262
731+843457680+842083881+841288591+841307132+842477825+841712214+838188079
718+836832680+839684686+843401563+844604404+841795543+836131223+831122465
704+829020983+830297212+833490077+834171160+830932542+827501464+825757338
691+824356962+821933515+820065523+820803710+821224866+819743628+819861219
677+821501854+821989208+820219280+814982531+807964080+805943248+809478875
664+811118593+808597083+805908563+806203880+805045735+800054884+796005748
650+795316416+795501968+795470455+798524579+804265249+803511271+795219058
637+790574353+792798008+794220169+791385788+790893569+796106278+800780240
623+796910593+785320191+777924293+776433255+770257258+764302203+769474446
609+781292980+788655744+788503679+785020221+783821187+786342204
##END=
