##TITLE=Sample description
##JCAMP-DX=4.24
##DATA TYPE=INFRARED SPECTRUM
##DATE=25/8/2023
##SAMPLING PROCEDURE=Instrument type and / or accessory
##ORIGIN=Default
##XUNITS=1/CM
##YUNITS=ABSORBANCE
##RESOLUTION=4
##FIRSTX=4397.6552
##LASTX=599.8556
##DELTAX=-1.9287962
##MAXY=1.9388436
##MINY=0.61479813
##XFACTOR=1
##YFACTOR=1.8056888e-009
##NPOINTS=1970
##FIRSTY=0.7306298
##XYDATA=(X++(Y..Y))
4398+404626640+403828606+403693168+404067495+403747766+402953363+403685510
4384+405196877+404783534+403004593+401970344+401916571+402545565+403355516
4371+403723273+403768331+403410113+402934283+403412292+404606736+405467686
4357+405789230+405368361+404194812+403183867+402875625+402965147+403168121
4344+403395952+403580078+403448503+402934052+402595640+402611617+402630168
4330+402685591+403146797+403974573+404272780+403596880+402848855+402831261
4317+403308048+403669171+403781138+403672241+403189743+402429636+401837943
4303+402062935+402734742+402683412+402525330+403282037+403861582+403621868
4290+403679833+404086772+403889343+403564036+404067462+404754255+404514045
4276+403917269+404116646+404425976+403986424+403484450+402717940+401286026
4263+400758966+401744163+402618978+403025785+404061124+404819448+403764601
4249+402187809+402144732+403291147+403799855+403071800+401923767+401368154
4236+402104197+403414404+403857951+403248862+402586232+402700247+403298409
4222+403977379+404684671+405027044+404904876+404594819+404521307+404735835
4209+404350286+403473491+403244307+403628074+404224025+404771155+404447796
4195+403419752+402940192+403085532+403073385+403051136+403468045+404026992
4182+404365074+404436539+404205573+403862903+403889772+404370950+404536228
4168+404024318+403704326+403651313+403284579+403381659+404184612+404519195
4155+404062180+403577537+403634016+403919613+403946878+403521256+402572732
4141+401887028+402104131+402549163+402723320+403129137+403898982+404089644
4128+403548422+403245363+403281311+403273619+403103027+402679517+402358732
4114+402601516+403332574+403725716+403224501+402691301+402847634+403199183
4101+403173007+402866251+402682719+402642315+402707080+403077247+403485606
4087+403244109+402526188+402387945+402906951+403125539+402773660+402404054
4074+402372992+402504138+402720118+403349376+404085287+403994973+403355153
4060+403285866+403734529+403910403+403731426+403427278+402710678+401654873
4047+401196835+401937895+403157724+403473920+402943856+402953726+403749152
4033+404245943+404112156+403980416+403842800+403426453+403121281+403166273
4020+403289266+403213113+402937815+402607655+402281325+401875343+401859564
4006+402883284+403895615+403488213+402434026+402415079+403156766+403019579
3993+402380584+402542165+402786698+402198240+401533894+401723533+402573029
3979+403502209+403993422+403747568+403416451+403460320+403315937+402943526
3966+403018457+403534096+403825602+403651511+403450418+403244934+402530083
3952+402210751+403317819+404381249+404456477+404284597+403936943+403843856
3939+404108558+403962195+403255332+402036164+401155771+401775423+402759267
3925+403031760+403048991+402577023+401586445+401438332+402402766+403391430
3912+404126185+404805518+404646314+402750586+400504893+399666785+399729767
3898+400914605+402826111+403661446+402518101+401529537+401994374+402026096
3885+401419813+400778871+399759706+400119211+401732478+402212962+401220800
3871+400317433+400802604+401854481+401713069+401595555+402818453+403164160
3858+401694187+398756750+395282217+396511750+400544867+403101773+403535450
3844+402629871+401071267+398524892+396497060+397690646+399940268+400938438
3831+401428429+402078383+402498559+402303441+400405964+397236305+396663164
3817+398014369+399958192+402373289+403949750+403797676+402468422+401543301
3804+400251678+398607250+399346264+400986499+402490670+404616143+406439779
3790+407107657+406602779+405260519+404316055+404423765+404595050+404951552
3777+405802071+406295429+406110874+405097255+404267300+404551016+405017009
3763+405145350+404283277+402773098+402736854+403536143+403193473+402291888
3750+404200886+407699185+410060873+412153403+415413837+418872064+421205826
3736+420747557+418779803+420181050+423686612+425552070+425304731+423945768
3723+421526809+419053978+417754367+417095368+416609569+416458914+418550618
3709+423792407+429273645+433854289+438636785+445401098+453239667+460529786
3696+467750618+474051347+477082960+476782938+477021298+478416373+478118002
3682+475277413+470468642+464058850+455227161+447998836+445162110+441415217
3669+437966761+437446996+436644439+434390790+431788761+429431463+426697561
3655+424296691+422670485+419423650+414687466+414726285+418231418+420926864
3642+421956063+421846274+421405995+420725177+419588301+417884754+414328753
3628+410397107+410137917+410135838+407028765+401065722+396128742+394095629
3615+392182934+390116878+389101741+388347906+388053297+388869850+389026645
3601+387550664+385704648+384046389+382289334+380912414+379863740+377737375
3588+374150049+371933602+371754989+371430474+369804432+367397983+365414714
3574+364517124+364362409+363998216+362447800+359917995+358644229+358630299
3561+358230820+356959497+355662328+354868849+354183277+353369365+352790117
3547+352511386+351950095+351156715+350696201+350176369+349234282+348575745
3534+348701115+348524383+347405365+346887448+347586520+347759556+346723722
3520+345878781+345803850+345610250+344982808+344340841+343899968+343560599
3507+343253612+343271404+343626519+343611863+343081699+342783955+342817294
3493+342392001+341432023+340816002+340948205+341117411+340946521+341030893
3480+341521478+342033553+342291323+342140569+342120896+342466603+342557180
3466+342256564+341818497+341593241+341703558+341708146+341517385+341232845
3453+340785733+340478448+340721860+341491176+342512849+343486361+344027120
3439+344101854+344125323+344438120+344910979+345054999+344852652+344907480
3426+345421667+345815337+345773085+345716903+345962988+346623340+347740245
3412+348839226+349385597+349540114+349744244+350281735+351508165+353243765
3399+354472109+354937640+355632158+357127152+358935768+360499521+361698883
3385+362343028+362613672+363547375+365641159+368199715+370391504+372391904
3372+375173901+378723893+381893882+384325946+386888397+390043168+393258313
3358+396360006+399679097+403186079+406633445+409896190+413153917+416680506
3345+420265455+423660105+427611063+432279247+436317580+439430066+441728608
3331+442999963+444576590+446927253+448862460+450514975+452259355+453541637
3318+454290289+454820882+455626376+456843795+458300663+460513743+462757060
3304+463313565+462154243+460285384+458650298+457519067+456467686+455150315
3291+453368470+451153541+448719331+446350711+444317697+442437319+440024004
3277+437181732+435206584+434277304+433300953+432359658+431883069+430846013
3264+428773520+427097701+426442663+425587918+423989935+422409777+421372886
3250+421001993+420837144+419957280+418784985+418480540+418510116+417672536
3237+416254817+415290613+415096617+415150885+414734406+413635326+412091280
3223+410494914+409509749+409752863+410634246+410856762+410240180+409631356
3210+409747615+410171125+410155775+410089559+410094543+409513908+408606382
3196+408333757+408567431+408350658+407887834+408063741+408635331+408943308
3183+408785986+408234828+407997062+408400436+408590900+408297876+408461504
3169+409407057+410081009+409707112+408894388+409030882+410150032+410524226
3156+409651491+409016094+409989012+411493579+411472255+410668015+411242741
3142+413440537+414809337+413850448+412586288+413076246+414616397+414746025
3129+413308434+413262782+416003484+418481035+417485835+415198055+415902376
3115+419368723+420322660+416997495+414456962+416171897+419441178+419200837
3102+416050126+415149333+417957473+420763533+419501321+416178070+415833750
3088+419487358+422435029+420526922+417169573+416679284+419068370+421049263
3075+419445866+416721239+417015287+419698684+420670249+418906955+417271638
3061+417596087+419570278+420531643+418941449+416867669+416388340+417119960
3047+416987790+415927595+415552510+416197645+417173897+417536769+417109529
3034+416839281+417329041+417779487+417376970+416857535+417338118+419972299
3020+428706676+444433362+455643739+452777536+443038155+435048007+430170246
3007+427194385+425201181+424032517+423668292+423612836+423471094+423723252
2993+424576875+426126631+428160768+428974547+428044112+427393762+428889152
2980+431530793+432342955+430866974+429265723+429290876+431091141+432267463
2966+431138675+429630080+429873921+432250958+434252085+432799508+430050455
2953+429487711+431478506+434364515+434852723+432627793+431085298+431920765
2939+434542600+436234198+434861108+432641624+432354443+434585711+437129710
2926+436352372+433307258+431813815+432669220+434159527+433911956+431972689
2912+430755799+431161022+432569763+433522545+432846447+431731589+431432326
2899+432113540+433524757+433969888+432812646+431820450+432085548+433218793
2885+434078423+433972199+433679439+434154344+435257319+436029507+435825741
2872+435154462+434936567+435328553+435933054+436306324+436108268+435615009
2858+435425436+435723213+436121868+436043239+435647886+435562524+435758930
2845+435740807+435493963+435585234+436008943+436130450+436185609+436936671
2831+438080973+438745023+439009098+439532164+440367070+441026201+440974674
2818+440445666+440468145+441217061+441960333+442485116+442993593+443337418
2804+443213996+442873009+442937378+443452324+443959513+444375431+444874532
2791+445352475+445609420+445660980+445678838+445739180+445944564+446435314
2777+447076158+447542613+447667653+447795630+448150877+448378840+448408647
2764+448339030+448127638+448042573+448489850+449441906+450201188+450293152
2750+450206238+450427698+450753434+450984764+451219791+451495155+451933882
2737+452639491+453296674+453574580+453619407+453694965+453821589+454051763
2723+454361787+454514324+454619591+455083141+455754915+456011398+455905536
2710+456080849+456544862+456807286+456888753+457248225+457873654+458228009
2696+458221870+458265541+458487232+458818712+459253346+459835863+460513875
2683+460735698+460346221+460106837+460144302+460077194+460306576+461051400
2669+461706405+462015735+462278919+462619774+462870513+462948349+463040313
2656+463219554+463418303+463648709+463811610+463817585+463844850+464101366
2642+464389043+464408122+464365573+464584524+464922771+465177703+465616925
2629+466283582+466665303+466691281+466827445+467304430+467835683+468069290
2615+468128080+468207236+468316134+468644313+469182069+469444328+469393362
2602+469486877+469766236+470097683+470423782+470634085+470903936+471439844
2588+471936833+471972054+471826284+472069035+472493998+472667726+472667759
2575+472699514+472890143+473115135+473184752+473236642+473411064+473643054
2561+473716599+473652362+473831801+474280795+474740285+475077212+475257773
2548+475427936+475622890+475700230+475627247+475525842+475691978+476023524
2534+475971270+475842699+476358173+477099861+477354264+477259956+477318284
2521+477805502+478444332+478785649+478957859+479165554+479272438+479406324
2507+479771705+480133653+480081168+479673964+479678948+480399444+481123240
2494+481507601+481897013+482261073+482346931+482305141+482285071+482339041
2480+482547231+482784107+483016328+483317175+483667965+484022948+484226880
2467+484190537+483986341+483923722+484220311+484517594+484577671+484611604
2453+484748659+484934271+485148403+485536857+486004434+486142711+486043980
2440+486246393+486647061+486813263+487005741+487334910+487321178+487072353
2426+487168972+487630542+488071217+488451188+488907971+489213275+489194889
2413+489142668+489289164+489562976+489852831+490061946+490185467+490360284
2399+490838392+491807382+493448608+496861413+503778361+515141241+530933484
2386+550518964+572787116+596451201+620451652+643995649+666519920+688630650
2372+711711064+735547920+757542259+775339127+788250147+796486512+802023107
2359+805739962+801965869+785815970+763438854+743310204+732223282+735234397
2345+747358869+751438101+743214675+733738941+727209622+724104034+726620999
2332+732467090+734134393+730482368+728130385+729257457+728154020+721368020
2318+710907814+700151184+695738557+699819703+703320743+697887203+684009141
2305+667095207+653955565+645845560+638436541+629955180+620482416+608817104
2291+596216967+585397949+576372990+568289260+561347588+555315522+549760508
2278+545010724+541112912+537598735+534319353+531398619+529054425+527300836
2264+525866513+524634141+523552589+522508470+521365554+520139355+519030075
2251+518088120+517483652+517293848+516979335+516285577+515641762+515271529
2237+515095061+515229806+515637768+515725870+515344975+515115131+515154445
2224+515209703+515371383+515762280+516258906+516432601+516307000+516546978
2210+517309297+518063990+518396988+518529191+518871828+519403741+519897792
2197+520213956+520354972+520500180+520930391+521780052+522735805+523256099
2183+523265408+523154727+523141094+523180970+523311093+523665910+524067172
2170+524115201+523896316+523906945+524228918+524428988+524337288+524268331
2156+524334878+524247998+524033041+523932461+523862943+523842841+523969399
2143+524186600+524427536+524750697+525425211+526326432+526953412+527277069
2129+527709624+528281577+528765660+529187222+529338966+529299388+529603635
2116+530126999+530439763+530640790+531069515+531542573+531682169+531651569
2102+531685767+531768621+531947564+532282213+532645481+532959236+533232322
2089+533501943+533789883+533947767+534021444+534174244+534447760+534946729
2075+535631707+536232444+536631561+537001001+537526312+538298038+539179191
2062+539969666+540545943+540767898+541071816+541903718+542846465+543553724
2048+544284287+545172569+545940136+546448909+546848752+547248759+547613447
2035+547976913+548446570+548887245+549138050+549248995+549435102+549766450
2021+549967378+549956914+549799558+549461839+549207073+549428236+550004018
2008+550381843+550426010+550432381+550400725+550193558+550113741+550352201
1994+550393199+550106248+550219800+550830639+551305974+551374897+551303993
1981+551532385+551919552+552081595+552251758+552601723+552889565+553031538
1967+553288912+553846342+554437539+554986683+555517012+555769269+555877408
1954+556114745+556418431+556886834+557593169+558072729+557914680+557769571
1940+558426655+559378051+560079104+560561041+560886381+561141346+561427603
1927+561682633+561687188+561611927+561793479+562060590+562608810+563608532
1913+564426834+564785250+564995849+565294122+565729912+566360721+566939111
1900+567136243+567224114+567592234+567987092+567849377+567436364+567682680
1886+568444206+569141430+569972936+570865311+571476182+571822252+571874671
1873+571521273+570711025+569913453+570372415+571781387+573000159+573732240
1859+573930033+574026156+574386354+574578006+574666670+574921370+574581373
1846+573149361+572313894+573623970+575302562+576073859+576293371+576293041
1832+575485500+574038897+573809878+574774544+575936144+577237307+578088090
1819+578488164+579027009+579364101+578988718+578627265+579061471+579520367
1805+579630750+579893571+579974708+579725817+579899909+579972925+579222358
1792+579045296+580661501+582379110+583208635+583411247+583247124+583068808
1778+583202496+582908382+581434250+579899182+581001959+583765900+585697278
1765+586250977+585985053+585858165+585943726+585945574+586447581+586810948
1751+585795051+584187099+584061399+585056566+585714310+585505163+585452414
1738+586212290+586001228+584475337+585413001+588094154+589997210+590854067
1724+591087047+590912097+589706133+586833064+584903138+586886275+589611000
1711+591147388+591236976+589750300+587868634+586799526+585048578+582815032
1697+583025037+585796042+589172900+590865290+590613429+589100015+585894872
1684+583094753+585670738+589216208+590719389+589969746+588280921+586577373
1670+584589681+585297798+588153109+588914767+587946206+588525322+589728712
1657+589060338+585504965+581452405+582842760+583541238+581949922+583623629
1643+587838595+590331925+590157437+587613934+586554003+590860339+595042890
1630+597124988+598529273+599863313+601196364+604099736+607265664+608414852
1616+609952164+614442362+618727374+621019809+621924134+623045528+624792780
1603+626646520+628416152+630143730+631657672+632854063+634142287+635589219
1589+636866814+638122094+639693736+641286570+642175776+641965176+640543001
1576+640182010+642905745+644846300+645077498+646650856+649369838+651326171
1562+651918227+649041923+645540883+651143497+657954320+662952796+666647072
1549+669939228+672356570+672312338+669268346+666183093+671805710+680380421
1535+684654342+687271391+691518442+695275964+697159677+698884284+701261223
1522+704595367+709681384+715728172+722800032+729454127+734135779+736393488
1508+735559077+738291526+748858089+756668501+760413612+762603651+767256454
1495+774726671+780538631+783320066+786025051+792242894+799803755+806372817
1481+811920107+816628630+820055662+821106746+820645341+825565454+835556927
1468+843142083+847274592+852036589+858108728+860880063+857038366+856091988
1454+866180311+875992015+881151907+883663854+887820261+893360619+897569578
1441+900357351+900921943+899530862+901604379+906645833+909214622+909584261
1427+910858093+911148245+910455906+911407170+910895459+907081953+905183320
1414+905361175+904958923+903291025+900619511+896310336+891929861+889240522
1400+885486631+880331888+876937865+875131989+873446596+870690512+866572396
1387+863264527+862581167+863995685+866591937+868575998+868207350+865867514
1373+864687165+865903890+866889220+866864595+865973078+863864703+862949750
1360+864167862+865230037+866106502+867849858+869646030+869072855+866308321
1346+864468181+864695615+865320219+865204224+865930100+868197447+870155893
1333+870777261+871002385+872883391+875539456+876459163+875774549+874112197
1319+872822389+874083017+877336024+881465958+886015045+890086024+894324295
1306+898805184+902060238+904701978+908102471+911743074+914518501+916781161
1292+918920168+920295999+921496549+922896807+923564058+924247946+926785244
1279+930619414+933813466+936121547+937466415+938060121+938678717+938677133
1265+938501457+939019704+939538281+940697768+943200670+945851520+947346647
1252+947895592+949017845+950435135+950395062+949963827+951572638+955177063
1238+958351771+958388610+955784963+953962384+953532206+951782313+948664711
1225+947366320+948953873+950924730+951125229+950050444+949390389+950274313
1211+951658264+952170041+952171428+951946700+951526689+951137640+951597659
1198+952324195+950830521+948351584+947788048+949150939+951314307+952416621
1184+951281231+949769402+950117519+951441261+951418946+950156668+950096195
1171+951704477+952771274+952900737+953392774+955108271+957607806+958951090
1157+959066358+959957611+962060110+963092907+962114905+961625046+962952683
1144+965892959+969148805+969880887+968751439+969279258+972650241+977051842
1130+978500821+975724337+973729713+976199540+979359329+978383440+975227678
1117+974567491+976960340+979181804+979779010+981815160+985670125+987027207
1103+985941660+986395275+988669819+990666753+992795197+995155499+996364500
1090+998215335+1001368852+1003254677+1005538727+1010467950+1014956036
1078+1017756881+1020228622+1021633699+1022072525+1022738588+1024548162
1067+1027955521+1031416289+1032684310+1032293017+1033295446+1034606974
1055+1033138189+1031993292+1034293847+1035568735+1033164201+1033778901
1043+1038243286+1037933790+1033891001+1034668239+1041258031+1047756453
1032+1048685271+1044005203+1038692609+1036846329+1038363374+1041693161
1020+1045705053+1048842660+1049016487+1046615187+1044685526+1044209003
1009+1043844579+1042550942+1042792637+1047095474+1051336583+1051996506
997+1050754826+1047537403+1043171518+1042222565+1044555469+1044642680
986+1042299081+1041281138+1041211818+1041488107+1044204183+1047934242
974+1047876079+1044468522+1042605276+1043677684+1045733441+1048128865
962+1050244831+1049562396+1047719351+1048699993+1050976055+1052806754
951+1056382923+1059657848+1057579777+1053614163+1054112077+1056545131
939+1055507053+1052753675+1052987184+1056158459+1059924300+1063130368
928+1064461173+1064411857+1064020168+1061751369+1059354360+1060819778
916+1063302677+1062606905+1061064180+1059848775+1057620576+1056314198
905+1057194425+1059341553+1062150716+1063584709+1063819273+1065833637
893+1069441759+1072976798+1073741823+1069459980+1063498224+1059411269
881+1057970278+1059774041+1062254365+1061342911+1057060275+1051240196
870+1044939170+1039684277+1037337245+1037910881+1039947757+1042018105
858+1041079649+1036751989+1033276895+1030674172+1026240420+1021530907
847+1019816335+1020492301+1017763416+1009062543+1000179129+996010706+995443803
833+994976786+991530608+985818668+982097060+981095819+979204845+975190378
820+973000338+973950414+973315908+970142387+968470859+969631468+971889243
806+973308580+972439905+968661719+965709493+967406505+967913265+960687316
793+951360388+946961097+946539634+945191729+940763721+937066473+935535037
779+931934375+927069125+926363450+928907548+928171439+923234294+918877190
766+915099664+909831369+905401644+904649493+908226652+913334653+913968433
752+907742008+899123527+894862876+897722279+903477000+905925239+904426680
739+901543971+897928720+894403055+891487866+889596627+890954237+893369796
725+892073056+889694005+890062455+891209465+892183373+894217014+895996747
712+894443459+888389739+882888134+882547081+884100040+884542167+884660341
698+883524290+880902620+880537141+884281657+888338244+888999158+885551924
685+880519712+877927024+877024482+874871941+874916966+881022048+887101119
671+887050615+881748056+873991779+870778647+870537481+868655419+866389128
658+866031438+867458763+871410579+878032720+882281025+880827821+873690140
644+859743880+846480981+841909051+843642637+846309068+849741844+850991513
631+839932846+827158618+823407235+809202446+785635409+781530628+800657113
617+819943364+828653084+841489106+856202569+853370498+836609794+823925416
604+825896537+841446128+851960337
##END=
