##TITLE=Sample description
##JCAMP-DX=4.24
##DATA TYPE=INFRARED SPECTRUM
##DATE=25/8/2023
##SAMPLING PROCEDURE=Instrument type and / or accessory
##ORIGIN=Default
##XUNITS=1/CM
##YUNITS=ABSORBANCE
##RESOLUTION=4
##FIRSTX=4397.6552
##LASTX=599.8556
##DELTAX=-1.9287962
##MAXY=2.0615425
##MINY=1.2750832
##XFACTOR=1
##YFACTOR=1.9199611e-009
##NPOINTS=1970
##FIRSTY=1.3559624
##XYDATA=(X++(Y..Y))
4398+706244730+706213437+705312147+704567446+702927168+701733685+704877583
4384+709324863+710433656+710426764+709795066+706877235+704854858+705268188
4371+705243042+703861303+702650063+702705509+703987593+704922970+704228066
4357+703869872+703907436+703488208+706801983+712236981+712898109+709612709
4344+705537097+703060536+704084825+706447701+707378359+707098460+707347811
4330+707842229+708027007+710204173+713942516+715435580+715036656+716066471
4317+717875509+716208345+710577269+707096411+709287857+713251957+715370945
4303+716555301+718145660+718955927+717718919+716024623+714605941+712410087
4290+710564230+709825676+709168522+709642450+710800542+709750858+709067937
4276+711442050+712494839+710102471+707484967+706440126+707246792+709377266
4263+709969165+706577530+702791006+704828408+711095529+713913272+711421995
4249+708897439+709070855+707873646+703411155+701153583+704632082+712168186
4236+719940976+721802603+716414669+712001724+713743892+716655017+715252851
4222+712029416+712246046+715557834+717097031+715769497+714159022+712939399
4209+712449265+713959466+717188054+719530068+718243264+714356776+712676823
4195+715314816+717082192+714269479+712285597+715059505+718735509+718844476
4182+716442795+715456442+715734913+715041188+714550309+715461409+717520233
4168+720579814+721843955+718722222+715216405+716159233+719653874+721883878
4155+722597286+722375440+720627188+717889106+716346991+717174954+719653315
4141+721064608+718705955+715176109+715079125+717234187+717329556+716260128
4128+716801424+716967761+716235975+716962980+716937710+713958721+711898966
4114+713596740+716753056+719258364+721057964+721468810+720016911+719311948
4101+720768690+720632590+718278221+717246232+717379042+717497136+717586172
4087+717532961+718026696+718572649+717386120+715197095+714134310+714219497
4074+715743792+718567309+719219124+716826135+714795128+714262028+714033477
4060+714693984+717279698+720636750+723050725+723504661+723339875+725729076
4047+728890298+728044764+724742041+723020487+722849617+723693412+725727586
4033+726616769+725121469+723882723+723258600+722640127+723507703+724077436
4020+722393260+720632776+720583912+722058908+723526206+723423572+721576163
4006+719919617+722395309+727921144+729550308+726664019+724621277+725047335
3993+726025740+725619054+724663808+725169527+726554990+727417350+727650806
3979+727409216+726124648+724556083+724292141+725041188+726232808+726457634
3966+724641642+722648944+722222390+724442149+727780822+727091505+723215758
3952+722755614+724697771+723943695+723629026+726033377+726934356+725206470
3939+724851008+727626592+730443154+729860135+727107462+725577516+725306310
3925+724510758+723908676+724982948+726450183+726258078+725157605+725342632
3912+727132546+729662007+730135750+724832008+716122662+713172483+716148926
3898+719541741+722941634+725533619+725066520+724178828+725775147+726124710
3885+723656966+722146641+721141785+722349363+727410148+729761475+724814002
3871+718248294+717801063+721585476+722134098+721008852+723531856+727084054
3858+729023480+727973671+720297058+715828420+720774402+727525075+732778959
3844+733631447+728037872+719813382+715964582+719261345+724181746+726864754
3831+727817082+728396873+729345041+730909756+730179833+725913730+725047955
3817+725155618+724084886+726952921+731341775+733623623+733038368+732173214
3804+731363692+727378917+725704986+728615117+731922808+734944886+736837745
3790+737118948+737322229+737689177+736963041+735285571+733069786+732872900
3777+736982165+740873434+741048774+738857886+736226040+734318032+734817479
3763+737950636+739461085+735940056+732925552+734668154+735407577+728523411
3750+722976528+725173314+723937796+720424156+724279350+729430538+730664317
3736+729285311+729133688+731788570+735935151+738687824+738045074+736792357
3723+738398487+741818745+744348517+744856284+744242717+740257817+732293730
3709+730268683+734235391+737864207+738471628+737155581+737891278+739425260
3696+738268782+736058212+736441738+739419796+740545477+739562602+739748063
3682+740849529+741005746+739381797+735224040+734562726+738198497+735091542
3669+728217435+728474857+732551277+736680721+739212852+737900095+731466885
3655+725737396+725614770+724631273+718705893+718771583+723470139+724449848
3642+721874192+719945632+720241054+719837224+716744115+711928645+706008728
3628+703945931+708008505+710228202+708750598+706176742+704436003+703067862
3615+700105700+697367991+696872765+695275825+693119335+694517465+697589340
3601+697776663+694633634+691642911+690016602+690221311+691954165+690871636
3588+684893852+681930634+683503918+683544152+681577966+680210198+680016230
3574+680972407+682469446+681985521+676775038+669880441+668572589+670473023
3561+671432863+672388668+674030437+674272399+672675335+672185201+673571782
3547+673091210+670369954+669584461+670930808+672542339+673766619+674892238
3534+675521949+673767239+670553801+669335855+669804444+668964995+667620696
3520+668899490+671525066+672165022+671475332+670456569+667955917+665839847
3507+666697551+668239976+668067430+668328267+670219884+672208857+674163246
3493+676049212+675332700+670381317+665122466+664119287+665697849+666637945
3480+666584113+666439880+667067107+667958090+668679011+669735338+670462095
3466+670801289+671118318+669615506+667236859+667961009+670752549+671928337
3453+671792734+671916354+671824275+671035056+671060451+672848254+674366030
3439+673740168+672976531+673851371+673790771+671621801+670320407+670834880
3426+671640490+673143800+675650412+677208981+677958152+679610786+681217661
3412+680513567+677854525+676581815+677280197+677475965+678150691+681447081
3399+685831712+688165157+687719293+687486830+689249239+691344571+691763675
3385+689980280+689331818+692785046+697914750+701271677+701273478+699518458
3372+700167851+703802877+707064621+708714027+710495186+713403580+717648944
3358+722453052+726042131+728421336+730676921+732926297+734589673+736841098
3345+741430438+746588704+750603530+753973496+755851453+756470361+757967523
3331+758560104+756132097+755384541+760204978+767070516+770752171+770657795
3318+770757325+774579115+780071112+780112525+773497021+768916559+769380740
3304+769405141+769508210+773138951+775268494+772299440+769604014+770046401
3291+771587398+772243001+769982759+765749067+763077297+762827946+763528314
3277+762569716+758848262+756447015+758888744+763369738+766034306+766921253
3264+765434770+759945506+753902218+752197987+753554020+753856706+751857613
3250+749133253+749561980+753920286+756915107+756015183+754062284+752643789
3237+751642783+752106343+753547625+752883330+750956695+749592280+746690592
3223+743982810+745461532+749572101+752482791+752845518+751309735+748307649
3210+745085767+745600737+750256264+753662739+752293915+748268161+746142901
3196+746697360+747784670+749869012+751794716+750420739+747559223+746617016
3183+746672959+746184315+747602003+752394810+756336434+756007298+753930034
3169+752917541+752028731+750954894+752090200+755266322+757846573+759564277
3156+760279920+759094384+757135400+756173387+756572808+756457756+755206096
3142+755076142+755568822+755053914+755370198+757495333+759789910+761070504
3129+760467181+758999636+759394959+761055541+762278578+762963052+762276343
3115+760628614+759623945+759207263+758291568+756613290+755786756+757844896
3102+761484392+762865137+762481983+763610955+766167488+768425059+768410593
3088+764874786+760273462+758917119+760635878+761129800+760726405+761903558
3075+763178875+763499505+763196446+763510867+765783899+767336818+765914846
3061+764311324+763658454+762318688+761759511+763172356+765035908+767659373
3047+769944760+769044464+766917714+766043185+765564041+765006974+764740362
3034+765492762+766697111+766161279+765275884+766770997+769686468+771961425
3020+772752382+772927909+772689175+771301042+771849292+775871072+777862529
3007+774414516+769796429+768601766+770628303+774019069+777100567+778761149
2993+780278490+781450615+781026482+781686989+785010326+787817948+787156137
2980+784660887+784008513+784537639+783611948+783010177+785240988+787978760
2966+787763061+786293156+786376914+787426474+788641564+789151691+788618094
2953+787913752+787175943+786708658+786949938+788638894+791044301+791359715
2939+789662128+788247172+788795298+790942164+792069522+792166195+793454426
2926+795432782+795848471+794197513+791932925+790715662+790077382+788091638
2912+786094283+786782669+788016199+786627321+785044041+785823201+787402011
2899+789021055+790538955+791265588+791798067+792540470+793528189+794114127
2885+792912696+790986806+791017789+793024085+794413708+793726751+792243186
2872+792347806+793783438+794126358+794523358+796919637+798903767+798456723
2858+796507239+794840200+794982634+796226285+796286574+794200245+791945405
2845+791327429+791054670+790900999+792163401+794012983+795237511+796403550
2831+797214500+796373250+795505799+796223429+797250264+797971929+798074315
2818+797465528+797267897+797498808+797503837+797762067+799185281+800527406
2804+799685225+798651312+799955438+801794775+802476145+802921636+803599591
2791+804272144+804633566+804071719+802819810+801429689+800910187+802824963
2777+805902550+807894565+808858441+809204342+809322560+809284561+808686205
2764+807806460+807665641+808965049+810601726+811324944+811506059+811678357
2750+811443162+810399066+809319393+809629592+811609252+813036750+812216610
2737+810481894+809433017+809904090+811266332+811709340+812007493+813929037
2723+815663691+815011877+813752268+813854964+814326347+813815165+813133733
2710+813871728+815720131+817549658+819069793+819894093+819175345+817030652
2696+815989413+817965098+820224843+819944075+819960528+822561579+824007766
2683+822139681+820126183+819139333+818209544+818552154+820662946+822333586
2669+821660413+819897756+819843428+821275272+821953723+821645946+821446266
2656+821667367+821899581+821772360+821309049+821583298+823661307+826429999
2642+827759333+826634335+823934749+822246226+822953487+824303063+824552414
2629+824794998+826152397+827361713+827405486+827126456+826851151+826595467
2615+827758774+830082906+831103160+830027522+827864202+826612417+827055736
2602+826891882+825516042+825149404+826840161+829775688+831860092+831960739
2588+831419816+831741066+832578529+832231014+830467674+829298096+829792886
2575+830960975+831612417+831348475+830840956+831337237+832654650+833683037
2561+834456858+834765008+834259165+834329451+835312326+835372491+834421157
2548+834728686+836176549+835753037+833838882+833261761+833879675+834593641
2534+834847338+834504170+834691494+835701130+836735602+837761133+839067681
2521+840344426+840800038+840339645+839861557+839701366+839753459+840415643
2507+840675673+839287664+838146585+838795729+840231734+841133893+840496980
2494+839501873+839512304+839154731+838548924+839581533+841590126+842841911
2480+843601762+844041665+843236055+842400704+842948519+843105729+841778319
2467+840518897+840102650+840600980+842106338+843179926+843100948+843466283
2453+844694101+845367647+845297486+844622388+842916915+842393626+844220173
2440+844971455+843557616+842811239+844038251+846012943+846566222+845434704
2426+844739985+845070736+845190134+845249864+845907577+846567588+847002524
2413+847507187+847493589+846752614+845582290+843870485+842796089+843331797
2399+843948655+843530980+843267286+844425378+846446700+847599514+846915537
2386+845481519+844855782+845050619+845617806+845325427+841998116+836972535
2372+834360433+834391726+834104376+831923547+828839255+827241383+826013006
2359+823457840+822630871+824816294+828603750+833776234+838178436+838570159
2345+836439125+836504381+837713324+837788266+838438529+840291153+841422795
2332+839895457+837586414+838029049+840975068+842968201+842739340+842512341
2318+843169185+843901778+844772831+845648105+846017662+847037232+849427303
2305+851457192+851866486+851294518+851362941+852836385+854630149+855818230
2291+856252794+855852069+855186904+855066203+855009080+854360680+853934995
2278+854695901+856469796+857892017+857954727+857411445+857795281+859420162
2264+860463761+860290221+860281591+860109479+858865144+857418274+857428581
2251+859539436+862055982+862931505+862036114+860257376+859279343+859874594
2237+860141268+859798286+860778989+862470864+863207679+863203705+862907601
2224+862395177+862631862+863466530+862549097+860104698+859657716+862200216
2210+864629217+865413158+866571188+868172971+867906048+865639350+863740096
2197+863407980+863684216+864855284+867436714+869373780+869453441+868616414
2183+867276648+866040447+865975253+866634084+866745349+865997978+865340389
2170+865896772+867507496+868602009+868084245+867140362+866974148+867380337
2156+868061707+868168252+867857494+868538367+869237680+868569039+867946717
2143+868331734+869059856+869492123+868311306+866035232+865979475+868276288
2129+869394767+868670369+868510179+869247428+869626609+870004174+871447257
2116+873334093+873883149+872834459+871678416+871284707+870837477+870394841
2102+871081240+871298367+869828586+869295610+870472639+870711187+869774506
2089+870104076+871720637+872602182+872493836+872790934+873556621+873314224
2075+872492781+872603735+872963108+872304836+871120729+871067828+872836881
2062+875028451+875745708+874925755+874219115+874400851+874851124+875113886
2048+875612526+876713620+876983523+875260231+873359115+872872954+873058850
2035+873539112+874687953+875816304+876233234+876272910+875991086+875405458
2021+875014171+874812504+874315913+873651059+873585244+874249850+875204102
2008+876501399+878044259+878918354+878921707+878898175+879297224+879963567
1994+879535895+877450063+876287935+876619369+876802719+877564121+879434069
1981+880721741+880369819+879896883+880292020+880699017+881020888+881144757
1967+881163384+882255599+884090466+884969404+883783868+881048083+878834285
1954+878943811+881112967+883429275+884674541+885146234+884279217+881813274
1940+880622274+881114147+881367844+881909512+883148072+884368688+885170139
1927+885262962+884818712+884208560+883279702+881801973+881470167+883114109
1913+884249663+883902645+883144968+883231645+884989769+887521900+889754077
1900+891386098+890682500+887547791+885671511+885550809+884933267+884995357
1886+886449305+887166748+886516734+885898572+886348037+887579892+888710602
1873+888594619+886170399+882933243+882874568+885162253+887021335+888963679
1859+891611296+894249290+896122528+896131841+894490383+893214135+892324890
1846+890151512+888270264+889537385+891687169+892342337+891758945+891219698
1832+890488843+888525389+887739772+889620026+891631786+892928958+893718674
1819+894300017+895324989+895413777+893462182+891489787+891371445+892241628
1805+893407419+894472315+894669573+894996847+895848031+895431224+892875623
1792+890610477+892492035+895662445+896166363+894425810+893067914+893611445
1778+895171877+895327535+892838928+888922762+889706144+895179762+898959208
1765+899502490+898116530+897322592+897944666+897316756+896593662+896158353
1751+893269829+889890922+890274200+893058042+895344858+895897516+894920601
1738+893674652+892055422+888413877+887091931+889925444+893497883+896456072
1724+897969440+898314657+897525749+893039726+888540539+892093234+897532393
1711+900194539+899565511+895820711+893158503+894613631+894392965+889333670
1697+886894859+888987583+892507805+893669499+891562618+887416783+879340873
1684+873638765+881995009+890882118+893603498+891726224+890151636+890445567
1670+888335147+887235730+890415578+892037478+890457426+890252842+891555602
1657+890156975+881538652+868403509+869472689+872247341+868000362+867668681
1643+875056516+880837973+881008470+875656548+869085003+870701501+875173182
1630+876482027+876796261+877852465+876819359+876247018+878966722+880610167
1616+881179775+886341580+892701773+896261111+897769885+899069975+901011015
1603+903716624+906597574+908999379+910485427+911436513+912913124+914330750
1589+914348383+914529995+916802841+919481130+921004619+921837486+920356715
1576+916003874+915116119+916683629+916714053+916940058+918554756+920216704
1562+921422915+915797116+900725528+902789939+912617703+918494467+920152628
1549+921093220+922828061+921833264+914812254+903303046+902375244+913072756
1535+920897266+923468079+924165840+923520979+919986725+916786449+914987967
1522+912806951+916103279+922023444+923840429+924463993+926073103+927504947
1508+925862806+921532565+925913595+932692147+935125494+933001104+931671645
1495+934251088+935508089+932165690+928769026+930907386+934320007+935969351
1481+936397582+935999899+933578411+928305032+921214233+918672788+923845458
1468+928726122+928119136+925992573+926594033+923540227+911814948+907183325
1454+917744799+926418879+929472003+930287299+931915160+935030186+938407044
1441+940445875+939970891+935030311+930439791+931876292+935400860+939368872
1427+943548049+944660940+943063689+940630467+934289273+928791999+931882128
1414+937084664+937699473+934939536+934561846+935242284+932393683+928467520
1400+925060424+922634839+922131107+921224353+920626618+920701560+918630691
1387+914314917+911179153+909834916+909469272+910965192+913927790+916854499
1373+919256615+919212345+915919184+913152541+913032708+913009922+913239218
1360+915637857+917250009+915804256+914500689+915691192+917009598+917355437
1346+916100858+911671522+906413354+903774926+904633995+908864831+914706639
1333+917918712+917102236+916027840+916493822+917143650+918066112+919233456
1319+919964434+921104521+922535558+923664468+926380632+931600242+936365544
1306+937872889+937695499+938489126+940682560+943687688+946257383+948417971
1292+952421808+958034382+961842141+963551090+965442459+967262300+968790134
1279+970680447+971841457+971323631+969763262+968801497+969615737+970440037
1265+969506522+969650135+972325382+973799013+973308320+973365815+973980066
1252+974018313+974375327+977228212+982189406+985535033+984974862+983808139
1238+985175225+986510334+985829212+985824990+988173151+989844846+988387732
1225+986044477+984332360+982768887+982267390+983180105+984965921+988644161
1211+993460686+995490638+993914250+991744348+991879331+995405514+999694900
1198+1001618555+1001849527+1001526228+1000350130+998601257+996064966+993739654
1184+995186462+1000339016+1004490936+1005390177+1005627421+1008136579
1173+1012451360+1015862305+1015212166+1010207013+1006287618+1007586653
1161+1010611588+1009656466+1006431106+1007101983+1011837854+1016608061
1150+1018373263+1016414093+1015374716+1018609576+1022565914+1023752319
1138+1022485260+1021212613+1022449558+1025264569+1025314365+1020646606
1126+1015040303+1013191155+1015433950+1018044500+1017611985+1014898118
1115+1013774796+1014712532+1014101883+1013056980+1014883403+1018127203
1103+1021857598+1025972947+1026466186+1022608011+1020179258+1022047157
1092+1026020756+1028674024+1028977641+1030174850+1032717101+1034225378
1080+1035001930+1034620453+1032539029+1031342007+1033386425+1038719721
1069+1044355268+1045775874+1044132616+1044298270+1046000514+1047764847
1057+1049738546+1049943938+1047826688+1046173371+1047393180+1050049242
1045+1049624674+1045025834+1039068664+1036628363+1041169708+1048346253
1034+1051801405+1051533427+1049670496+1047636446+1048270379+1051710010
1022+1053344576+1052294395+1051541623+1052085278+1054028181+1056361253
1011+1056919189+1054827272+1051333127+1049214760+1051291403+1054413383
999+1051692625+1046132516+1043090382+1041636620+1042466756+1045407436
988+1047269994+1047526796+1047165560+1046056270+1044155092+1042065410
976+1040379247+1040427615+1042639986+1044344589+1044599031+1046119477
964+1046571240+1042608444+1039211842+1039161115+1041399936+1044916681
953+1044885512+1042785772+1044094120+1045452140+1044530236+1044116100
941+1045353170+1049118397+1052745040+1052566844+1051938995+1052825757
930+1051441907+1047423107+1045268355+1046679276+1049166951+1052170092
918+1056477857+1060399674+1061733603+1061312388+1060016954+1054884270
907+1046748816+1042147368+1046290472+1061065397+1073741823+1064215193
895+1048232381+1051416699+1063292669+1064003468+1058375682+1053826514
883+1052607947+1057128554+1063746170+1064993795+1058131919+1048904312
872+1042339969+1038521780+1037929633+1042584850+1050093449+1050483743
860+1042747276+1038867308+1041692004+1042282475+1034292683+1022378156
849+1017209583+1020484987+1022801605+1022537105+1023712954+1020881490
837+1013652604+1009200916+1007168108+1004757858+1003226298+1002970987
826+1001075334+998154026+998856817+1000765135+997034182+989577800+985014848
812+983556926+982855625+983847815+986299167+988480866+989544209+988692963
799+985458476+979118401+972807693+972329046+975261778+974576931+969371353
785+961372745+952266833+946483265+946812587+949697572+951691761+953029229
772+951713368+947048527+941302585+935848711+932082925+930044653+930518955
758+932980925+932822597+930892112+929785927+926609494+921569446+918064622
745+916822523+917602056+919110146+920126426+920460529+918222826+915137975
731+914863415+913546809+908839933+904719182+902150108+900405767+901152331
718+903602317+904815917+905495610+908173093+912239702+913121931+909585317
704+908984105+913023519+912157496+905292826+901610302+900330080+895755021
691+889649146+884422271+884294181+890852998+894926251+893120752+891696421
677+892396044+894192975+895895156+893201406+883211279+875948927+879501560
664+883756921+888586423+896934782+897069205+885942345+880126366+884535336
650+888860983+889875276+891607260+894380733+905516348+924732779+926730009
637+910664804+901445579+906047275+922297383+935478907+918785170+865609857
623+811705614+797135336+835506790+909113624+964619339+945695039+878585368
609+823254000+805478976+816950557+831187042+849408862+894546450
##END=
