##TITLE=Sample description
##JCAMP-DX=4.24
##DATA TYPE=INFRARED SPECTRUM
##DATE=25/8/2023
##SAMPLING PROCEDURE=Instrument type and / or accessory
##ORIGIN=Default
##XUNITS=1/CM
##YUNITS=ABSORBANCE
##RESOLUTION=4
##FIRSTX=4397.6552
##LASTX=599.8556
##DELTAX=-1.9287962
##MAXY=1.7994286
##MINY=0.3044804
##XFACTOR=1
##YFACTOR=1.6758485e-009
##NPOINTS=1970
##FIRSTY=0.45715198
##XYDATA=(X++(Y..Y))
4398+272788375+272603072+272423637+272639226+273090836+273338008+272830487
4384+271889068+271450600+271422182+271298178+271370041+271623081+271530536
4371+271391825+271587479+271717831+271664748+271747245+271838652+271766184
4357+271836073+271837585+271293323+270693897+270619918+270953340+271147766
4344+270599449+269647040+269099720+268899159+268815719+269105108+269635250
4330+269926969+270207592+270676327+270561660+269738981+269286464+269569825
4317+269853630+269608859+269064509+268610889+268270924+268052952+267941166
4303+267652807+267300767+267394236+267971131+268534794+268553360+267984539
4290+267469745+267469122+267620833+267469354+266997559+266652579+267010879
4276+267680069+267696288+267236693+267022349+266881327+266647119+266655886
4263+266905246+267121243+266920308+266439622+266273258+266188147+265874145
4249+265542573+265280748+265357252+265747900+265795542+265734616+266185426
4236+266450915+266091512+265578531+265016593+264536796+264261295+264236558
4222+264648849+265128842+265184646+264923159+264573821+264461732+264929525
4209+265387822+265191866+264846548+264609726+264258023+264234495+264558758
4195+264467921+264016488+263625858+263468208+263748137+263871731+263388182
4182+263014250+263024351+262948505+262860441+263058460+263250201+263134964
4168+262825906+262439970+261913937+261453026+261364162+261322762+261083789
4155+260929606+261016158+261163014+261274729+261606675+261879312+261560811
4141+261039864+260873873+260941592+260902558+260805389+260955054+261241688
4128+261124086+260731926+260663797+260601733+260109115+259520466+259320669
4114+259753998+260263813+259992011+259215071+258734776+258690816+258883250
4101+258916096+258397514+257629661+257127457+257013768+257207749+257497583
4087+257727932+257885315+257910657+257748383+257353911+256965183+256993086
4074+257192118+257226742+257279577+257418181+257470179+257180309+256729464
4060+256646664+256928905+257251888+257193291+256590825+256053765+255977919
4047+255961594+255721695+255541282+255638931+255817726+255874739+255755217
4033+255441411+255022967+254509542+254014842+254055744+254569454+254781290
4020+254601464+254499867+254633688+254876289+254877801+254391300+253713075
4006+253384189+253621918+254072976+254212896+253946785+253549450+253236124
3993+252795042+252167874+252010793+252355649+252439391+252284497+252339466
3979+252401779+252098767+251563095+251263836+251415617+251680964+251678225
3966+251417129+251045153+250979923+251467403+251947982+251916185+251375267
3952+250616946+249988995+249722582+249633629+249331649+249375076+250194109
3939+250709188+250161139+248813298+247471752+247436221+248462680+248697545
3925+248208181+248331669+248299321+247256626+246502377+247277343+248853986
3912+250062263+249974769+247728135+243763961+241005112+241509628+243387469
3898+245251367+246383424+246012835+245118383+245644896+246406045+245863437
3885+244752204+243764495+243573625+244941971+245586940+244105866+241705068
3871+240231178+240929213+241975198+241591503+241776273+243382151+243818308
3858+241688263+237313078+234025297+237575899+242454906+244716264+244394188
3844+242359373+239714818+237111307+236373420+238403967+240446464+241867875
3831+243278101+243894367+243588510+242531303+239823937+237517783+238754834
3817+240509720+242411888+244830576+245548937+243778117+241307964+240210745
3804+238922140+237815993+239244838+241159757+243257418+245658661+246968890
3790+247241403+246904532+245917463+245008872+244335894+243391363+243621178
3777+245228924+245882394+244644454+242532851+241546084+241862362+242715362
3763+243241324+242021417+240085905+239724030+239207511+236018036+231909798
3750+232483509+234932820+235611347+236850140+238866869+238879655+236046080
3736+232123555+232492899+237442061+241357064+242042259+240727015+240028002
3723+240945716+242584849+244201469+244944514+243954884+241905469+243778917
3709+251855081+261089070+269814489+279928900+293239703+306798550+317813424
3696+326220822+331004101+331492860+329839464+329623253+330168422+329107961
3682+325391795+318902374+310328595+301203814+296544201+294895215+291085757
3669+288149003+287575790+285922892+282758260+278982946+274663673+269961647
3655+266370196+262790642+256171723+249346000+250253382+254016603+255563334
3642+254903765+252824669+250171791+247538991+244774807+241265871+236448146
3628+233596307+234594313+234777020+232371652+228209175+225273523+224529411
3615+223586481+222412792+221533384+220602867+220620703+221218884+220416443
3601+218333809+216535051+215081238+213722531+213028622+212014843+209145132
3588+206250844+206646667+208146895+208365097+207307357+205617754+204266072
3574+203614007+202613031+200002514+195709364+192901042+194058244+195909143
3561+196393137+196244912+195857802+194601937+193058443+192305848+191453453
3547+190123466+189829169+190684160+191265874+191073012+190405992+189796554
3534+189495961+188805626+187271752+185974932+185691891+185723972+185754684
3520+186024939+186204925+185984677+185457185+184625952+183795662+183555799
3507+183509011+182941773+182634920+183430337+184348122+184510396+184422314
3493+184435599+184044168+183328687+182820010+182504461+182143458+181919173
3480+182186600+182559981+182603088+182368365+182058275+182078068+182437898
3466+182633658+182315174+181792502+181687313+181905782+182058097+182164602
3453+182237479+182069781+181757540+181726614+181949814+182309164+183030424
3439+183767369+183949649+183759544+183566185+183618201+184135183+184800728
3426+185189882+185338819+185450641+185826671+186626143+187595713+188417805
3412+188985576+189355187+189788871+190695257+192053964+193360263+194307212
3399+194957125+195623399+196682402+198133796+199688832+201222474+202775465
3385+204408926+206240227+208287597+210459131+212774284+215288344+218011377
3372+220826440+223578353+226412729+229466747+232763189+236462764+240375935
3358+244218506+248252000+252700985+257340093+262043560+266968555+271908292
3345+276447990+280712509+285038149+289383670+293336267+296698810+299919602
3331+303289027+306404398+309127182+311611776+313507204+314782453+316034548
3318+317596289+319414573+321068822+321971580+322351398+323197498+324494905
3304+325164736+324960511+324401222+323635184+322470938+320375198+317063177
3291+313331112+310019555+307050861+303910664+300459720+297108274+294196131
3277+291828660+289830728+287623698+285131707+283162602+281869054+280391073
3264+278602897+277051613+275799447+274622931+273411916+272211623+271064006
3250+270107435+269227085+268051280+267056849+266738419+266385454+265345408
3237+264034556+263150631+262720842+262195181+261149196+259837686+258884228
3223+258412221+258001281+257285605+256354661+255674374+255385909+255135109
3210+254821409+254597214+254480786+254280384+253602463+252520608+251746780
3196+251613564+251622101+251435606+251280605+251130602+250825439+250457446
3183+250069501+249529027+248758418+248169396+248223422+248637189+248820749
3169+248837323+249124099+249444574+249308264+248797808+248270512+247986795
3156+248008189+248237310+248402341+248244531+248028000+248053412+248052825
3142+247893592+247772576+247763080+247839887+247825002+247752766+247941003
3129+248337982+248688565+248724861+248365938+248042369+248074628+248318083
3115+248418986+248248301+248155187+248288189+248308017+247976659+247522701
3102+247338163+247376699+247306686+247044025+246765323+246646228+246606820
3088+246412998+246045237+245808895+245881398+245963504+245829133+245603052
3075+245258676+244769241+244358052+243988762+243436604+242923535+242819182
3061+242845999+242484177+241938440+241651077+241506534+241310720+241047633
3047+240732048+240595418+240667423+240480270+239968410+239611034+239436543
3034+239092594+238602430+238244734+238142746+238324848+238649662+238760364
3020+238489629+238037913+237729584+237616321+237600867+237817327+238146907
3007+238170203+237984598+238034427+238316703+238540454+238803044+239360306
2993+239961990+240301120+240634203+241115494+241485034+241868444+242604945
2980+243379804+243722811+243734228+243547573+243126230+242749115+242739263
2966+242888946+242730887+242246555+241778176+241430954+241111920+240943190
2953+240982936+240881518+240677079+240821463+241203646+241390888+241177576
2939+240731301+240413529+240243057+240033746+239768898+239593375+239505774
2926+239223498+238705111+238171075+237613831+236947326+236231935+235563438
2912+235153086+235190324+235448451+235617553+235712712+235827024+235985332
2899+236161157+236214560+236041830+235745914+235488837+235346854+235372142
2885+235554031+235714722+235743744+235812175+235907192+235740935+235419179
2872+235217551+235054477+234891154+234835634+234847638+234866310+234790215
2858+234570874+234469811+234440237+234005290+233240674+232733295+232711191
2845+232871455+232997966+233256679+233635039+233918151+234098404+234185419
2831+234210013+234341575+234568064+234724167+234897022+235238482+235542063
2818+235647874+235751551+235935112+236111612+236229018+236268444+236375589
2804+236601617+236706272+236621925+236563934+236637468+236767038+236931748
2791+237098646+237132985+237120910+237295099+237593914+237756703+237744913
2777+237763870+237819283+237786046+237849817+238070314+238140950+238048689
2764+238032595+238152971+238374908+238568285+238632395+238689924+238840336
2750+238991246+239070969+239156472+239220439+239170005+239169988+239380348
2737+239725328+240013651+240089053+240111780+240281291+240437857+240448456
2723+240440257+240546745+240812962+241179639+241442211+241517417+241590649
2710+241751998+241917829+242002478+241985850+242069023+242339331+242572081
2696+242733821+242916528+243108287+243309346+243375803+243222847+243058778
2683+243050419+243181377+243355867+243487874+243551787+243597686+243678441
2669+243716871+243672199+243631084+243617675+243662347+243857520+244106897
2656+244194320+244122795+244062812+244068663+244019331+243902637+243837834
2642+243792824+243802729+244005869+244262253+244349623+244323659+244336321
2629+244397816+244473840+244575490+244724640+244935942+245219339+245474478
2615+245526939+245502647+245635738+245819121+245852500+245814212+245989095
2602+246346648+246575129+246691504+246857086+247016638+247088679+247146209
2588+247245653+247227159+247054499+246943638+246989341+247179855+247406878
2575+247480804+247452457+247406629+247283870+247177792+247164205+247126558
2561+247050996+247059070+247138277+247143061+247079859+247097286+247211100
2548+247326959+247385787+247352016+247262939+247215457+247219316+247272951
2534+247395301+247455284+247387956+247409385+247592430+247713606+247777645
2521+248026506+248388292+248586452+248602120+248600839+248657515+248720860
2507+248781750+248910840+249112006+249324464+249497284+249627441+249777479
2494+249987395+250176041+250253257+250307248+250423693+250504875+250484957
2480+250416580+250414108+250556464+250718383+250801235+250920740+251084632
2467+251164764+251198108+251264885+251233746+251057690+251023671+251245394
2453+251379517+251248080+251156904+251290618+251467918+251574583+251624590
2440+251649647+251730117+251840161+251889492+251896392+251884673+251873772
2426+251912771+252032400+252311013+252664956+252829310+252866442+253022919
2413+253266605+253468696+253621313+253822248+254142901+254393843+254383635
2399+254327493+254510698+254856265+255073027+255072067+255103437+255303607
2386+255390835+254989072+253921141+252196363+249990578+247634257+245410564
2372+243298391+241122074+238920379+236896448+235349753+234574680+234468477
2359+234859570+236036691+238287076+241551081+244981255+246717237+245747613
2345+243383112+242047897+242056290+242451652+243085488+243909394+244587903
2332+245056834+245637659+246483154+247480946+248591645+249925544+251430075
2318+252813857+253948421+254991401+256056575+257046774+257963296+258901069
2305+259729261+260323938+260810475+261344138+261893254+262338374+262719117
2291+263154170+263663665+264212106+264697398+264988637+265074673+265063932
2278+265085948+265228535+265448925+265614347+265771517+266079366+266436830
2264+266660706+266803756+266910136+266926443+266920433+267028680+267250724
2251+267477801+267746330+268090155+268329306+268422100+268500116+268578950
2237+268653427+268790520+269015604+269277181+269518448+269732952+269914716
2224+270001464+269989656+270026859+270247444+270541155+270727330+270824499
2210+270869900+270939362+271137665+271357148+271546292+271755105+271926769
2197+272042521+272135155+272242069+272369931+272441118+272486946+272663482
2183+272886202+272938432+272993009+273310781+273672674+273810069+273846756
2170+273970048+274218074+274519272+274741049+274847393+274938854+275104524
2156+275320806+275545980+275753068+275895833+276020601+276192176+276347176
2143+276466752+276675174+276967089+277206347+277376819+277494047+277583675
2129+277681698+277751284+277847528+278027070+278161779+278197043+278313809
2116+278672003+279169619+279554417+279757663+279949244+280233868+280531545
2102+280767104+280982212+281277968+281718784+282195735+282630558+283289914
2089+284326829+285520186+286734527+287891499+288803984+289434246+289937855
2075+290382387+290722122+291038845+291433352+291807249+292115080+292510707
2062+292976704+293351561+293674099+294015790+294330485+294582974+294798136
2048+295048953+295363791+295608704+295699755+295850648+296153055+296389005
2035+296535096+296723529+296908388+297006819+297037211+297073756+297218726
2021+297379684+297302984+297203184+297527358+297991612+298134342+298173234
2008+298461645+298925864+299330223+299637805+299942471+300249591+300438308
1994+300385456+300396766+300932439+301779285+302610376+303460210+304371006
1981+305266010+306114884+306993741+307907915+308877539+309760735+310384150
1967+311295017+313031320+315097469+316911734+318374385+319579816+320756225
1954+321977199+323029053+323731890+324079022+323993484+323544239+323623198
1940+324540893+325270369+325507636+325545337+325483415+325446674+325449022
1927+325109856+324178218+323446003+323289829+323049042+323256077+324149765
1913+324446641+323816539+323289189+323511091+323952760+324226553+324452439
1900+324568600+324352745+323982103+323905243+323812982+323669399+324341790
1886+325421351+326119492+326602348+326911957+327038788+327189805+327271467
1873+326562299+324599828+323042213+324225095+326530467+327851171+328329901
1859+328613760+328993969+329514739+329984933+330058912+329542339+328418106
1846+327083283+327324675+329501721+331004741+331153695+330954805+330495246
1832+328921946+327106721+327080153+328017126+329109597+330526758+331368447
1819+331523448+331660131+331552008+330712666+330075806+330679446+331672331
1805+331946195+331236921+330344940+330531275+331130327+330605218+329265273
1792+329777898+332741150+334872351+335298264+335018033+334731968+334969128
1778+335521944+334962477+332820571+331152165+332619298+335624447+338048755
1765+338798682+338184869+338004225+338312839+338677008+339190024+338335957
1751+335879782+334605777+335892621+337502946+338137779+338200945+338710867
1738+339066109+337510486+335777847+337746757+341065108+343822214+345190329
1724+345201497+344549414+342323214+338087025+336431566+340278760+344226040
1711+345853081+345133991+342957869+341357112+340441799+338699628+337344994
1697+338420215+342480313+346465649+347266685+346065629+343884919+340412278
1684+339130378+342827516+345959853+346961202+346485389+345877978+345028250
1670+344459537+347227775+350361001+350718199+350775746+352767134+353992447
1657+352175266+347561784+346084550+350037770+350333970+349995196+354534557
1643+359218284+360918984+359962093+357226896+358035757+364755544+369726651
1630+372154302+374216788+376243564+378344889+381954462+384962706+385901350
1616+388298342+392947783+395814506+396661246+397264922+398645236+400081710
1603+401234395+402468850+403443025+403718846+403786495+404304881+405162611
1589+406121102+407098693+408047260+409050743+409711326+408917403+406816399
1576+407412641+410986505+412321399+412473661+414769643+417629894+419075330
1562+418272124+414408462+414051798+421840119+428110092+432637716+436205319
1549+439696099+441658393+440496566+437438208+437682304+449293456+459856703
1535+464412211+469552474+477314476+483155584+487074837+490945435+494341677
1522+499914895+509118955+517900658+527503387+537195317+544003700+546971149
1508+548419964+560694581+578208265+587841830+593824849+599896964+609732762
1495+621679310+629709521+634632471+642521055+655160943+666848138+675546437
1481+683004164+690207375+696214971+700699808+707241192+721111337+736167779
1468+747064820+756484700+767725957+778035150+783724209+785905239+792856993
1454+805707650+817389581+826583184+833588572+839626329+845213952+850677375
1441+855714992+858201826+860424611+868044381+876229664+880346100+883282001
1427+887000799+888241371+886060625+880919295+871715236+865667734+866525535
1414+865385973+860053720+854620742+850745663+847070043+843093385+839418263
1400+834875310+829297503+824906207+822322276+821462412+821077863+819399321
1387+817329046+817468966+819135486+820453949+821044572+820356638+818198656
1373+817078015+818200220+819475078+819664294+818321717+815977577+815804651
1360+818445347+820033407+819000688+817415402+817226542+818159034+819752713
1346+821547985+822873206+823946898+825329808+827217483+829511545+832227785
1333+834550229+835429797+835882420+836970837+838045169+838748753+839704789
1319+841156344+842608253+844303938+846879405+850241539+854084110+857784698
1306+860687379+863639925+868083576+873597647+878587035+882744657+886905622
1292+890663117+892892163+894521978+896909082+899074179+899655483+899703498
1279+900867388+902370585+902870797+902689264+902511928+902147937+901418247
1265+900810268+900625747+900966121+901777117+902916607+904370509+905614851
1252+906309471+906778953+907092013+907228945+907854708+908892549+909604028
1238+911069524+913820620+915418852+914755388+914265348+915294368+916170806
1225+915251118+912640299+910055087+908433665+906965537+905316943+903451035
1211+901418461+899425366+896622912+892542825+888272101+884361810+880469304
1198+877501535+876160309+875011500+873563645+872504464+871073681+869418258
1184+868713536+868320238+867073762+864784324+862675068+862083022+862506908
1171+863142630+863932783+864571137+864887966+866249678+869183730+871382757
1157+872241767+873306567+874414119+875525583+877860689+881458844+885233981
1144+887889899+889050374+890633810+893565514+896360855+898160253+898672700
1130+899191265+902550767+907753841+911204252+912616824+912782281+912470929
1117+914497315+918779705+921837316+923294845+925261265+927838225+929835304
1103+930979916+932163794+935380104+940700335+944588503+945357245+946251609
1090+949796272+954643606+959931969+964801782+967896097+971397725+975863427
1076+978315049+979816824+984280961+991175950+995486581+996199696+998420632
1063+1003734105+1008885323+1012757201+1015707400+1017825334+1018156817
1051+1016006659+1016109163+1020612139+1024581755+1027360095+1030125132
1040+1030670870+1030920051+1032767393+1033109120+1031238801+1029205303
1028+1029176280+1031861079+1034052566+1035345065+1037597513+1039593454
1016+1042036967+1044545497+1044077864+1042005313+1042190189+1045404507
1005+1048252487+1047730152+1044493640+1041077516+1040354086+1041786007
993+1041810477+1040277191+1040873647+1045680577+1051290891+1051323471
982+1045026432+1038815038+1038134786+1042209039+1046291687+1048599121
970+1051197137+1054656084+1057818902+1059069005+1056885201+1052596977
959+1050496684+1052289893+1055326875+1059398070+1064854664+1066672770
947+1063914561+1062179895+1061602929+1059519281+1058123709+1057998728
935+1058285610+1060785105+1063557683+1063046019+1061506543+1061935266
924+1062520554+1061807937+1062345067+1064145817+1064858150+1065273855
912+1066141259+1065605053+1063366476+1063422672+1067451684+1070938444
901+1072407426+1073741823+1073710169+1072009789+1070313890+1069909922
889+1071138472+1072555242+1072384165+1068730810+1062217525+1055590212
878+1048966242+1042634917+1038795547+1038300385+1038546223+1036905596
866+1034798403+1031821813+1025893816+1020296234+1017798873+1014911698
854+1009275634+1003156215+997195212+991191528+985910847+979555621+971058275
841+963009711+957697731+954855656+953159188+951744126+948771946+943268902
827+938155385+935385866+934388216+935022871+936555233+937871562+937061064
814+932906003+928696525+926476584+925133153+925748531+927467050+925628030
800+919246058+911691375+906457856+905683423+907444338+906707749+902752431
787+899218865+897750950+896827563+894265968+890422757+887082745+883772041
773+879985523+877190538+875929267+874786148+872045225+868165024+865355741
760+863570357+860992187+857017165+853745584+853846096+854319064+851269065
746+847853723+847508369+849012277+849727456+848369584+846096863+845670132
733+848218497+851047483+852112782+851983105+850441709+850102544+853754761
719+856513183+854968088+852818357+851711588+850314095+848064421+846202283
706+845265595+843517698+839798828+835146827+833071999+835013380+836934559
692+835705155+833286325+831767194+829815285+828225021+829904843+832280068
679+831194995+828126287+826140661+824417305+819130649+809915564+807342658
665+814926861+821122748+822255979+819328614+815585773+812621489+807581454
652+801004362+798405634+801949586+807054424+809083300+808134518+808456896
638+813339371+815825138+810214112+804546748+803529465+802642926+799789469
625+795020738+788274560+781181251+773024066+764867805+762906792+768819069
611+776370693+779081029+779818614+784500847+788949833+784952119+776800127
##END=
