##TITLE=Sample description
##JCAMP-DX=4.24
##DATA TYPE=INFRARED SPECTRUM
##DATE=25/8/2023
##SAMPLING PROCEDURE=Instrument type and / or accessory
##ORIGIN=Default
##XUNITS=1/CM
##YUNITS=ABSORBANCE
##RESOLUTION=4
##FIRSTX=4397.6552
##LASTX=599.8556
##DELTAX=-1.9287962
##MAXY=1.8363682
##MINY=0.66251034
##XFACTOR=1
##YFACTOR=1.7102512e-009
##NPOINTS=1970
##FIRSTY=0.74976492
##XYDATA=(X++(Y..Y))
4398+438394626+437456914+436572002+437089023+438369707+438572612+437465592
4384+436909259+437425164+437722551+437635562+437219855+436377984+436050834
4371+436596433+437239406+437606949+438308090+439489134+439974509+439477284
4357+438739794+437678743+436759015+436851510+437241916+436945330+436660107
4344+437461236+438631302+439308290+439557408+438947369+438043184+437945217
4330+437823690+436946097+436749640+438117801+439509313+439856712+439385869
4317+438286900+437675955+438418255+439495094+439673428+439174321+439202063
4303+439996535+440418098+440369724+440963697+441625072+441069401+440206341
4290+440239415+440666693+440879391+440950383+441224664+442292929+443890099
4276+444362858+442863655+440594655+439198055+439097300+439663182+440651602
4263+441792393+442267871+442220020+442396438+442807336+442909903+442485518
4249+441834668+441333993+441610922+442433032+442437144+441481031+440788673
4236+441104566+442158577+443415980+444338741+444467412+443925787+442919522
4222+441740116+441069262+441142031+441549479+442095809+442987204+443612891
4209+443014318+442106125+442387376+443040805+442530650+441598550+441732902
4195+442886832+444145525+444767274+444741484+444388334+443797708+443394129
4182+443417653+443789587+444867681+446633984+448255306+448306851+446023283
4168+443378271+442632591+442965596+443328817+444535338+445863211+445531251
4155+444198081+443415144+443418281+443699950+443852285+444019746+444759084
4141+445946471+446492139+445982890+445090520+444383630+444196547+444823071
4128+445590847+445255751+444367424+444276322+445011373+445972087+446578815
4114+446735332+446320844+445590080+445916185+446797856+446461261+445290916
4101+444092063+443177980+443370743+444757690+446338932+447053630+446530998
4087+445729207+445646121+445901164+446063328+446023841+445576732+444951707
4074+444487034+444694783+445562931+446048446+445868717+445803824+446469381
4060+447345162+447351191+446836401+446951829+447705525+448246245+447989634
4047+446896241+445920855+446145437+446859089+446982359+446813504+446981000
4033+447595743+448409454+448786198+448369061+447850333+447538274+447239597
4020+447548729+448393736+448749220+448284547+447426087+446907324+446924645
4006+446622692+445927965+446190535+447739401+449438337+450294775+450043113
3993+449527173+449598653+449677348+449262546+449043157+449170469+449040543
3979+448866704+449002625+449123245+449144993+449469843+450117800+450532113
3966+450587457+450528384+450359146+450210435+449970971+449278369+448404679
3952+448008489+448398197+449536583+450685285+450587283+449900466+450724597
3939+452287508+452549626+451402109+449965186+449831147+450923146+450959322
3925+449980276+450227791+450961238+450393021+449582134+450332136+452248335
3912+453848677+454189140+453026776+450338549+446922031+444875034+445343751
3898+447952761+450811377+451704479+450538735+450024293+450340849+449672364
3885+449035455+448720538+448205085+449546760+451259288+451060251+450066429
3871+449167925+449072746+449591230+448895666+448859107+450855534+452014517
3858+451024110+447354258+442349841+444995864+451527330+454929732+454914746
3844+452995549+450082112+446939108+445908552+447820988+449831008+451123751
3831+452123602+452487555+452662161+453133805+452152843+450026385+450840165
3817+452742528+454323876+456449114+457659677+456829761+454725921+453817764
3804+453514138+452734791+453872097+455764667+456974499+458544833+460488356
3790+461688569+461183990+459575912+458640291+458503848+458209354+459051677
3777+460962405+461343993+460059231+458537863+457805391+457740323+458399015
3763+459690677+459809137+458900108+459312575+460078120+458548702+454706300
3750+454422366+457891125+461050370+465564114+471607590+476463192+479358158
3736+480571056+482668901+488214909+494220363+496431091+493759104+488856070
3723+484757650+481834420+479593300+477482072+475572878+474775931+477509744
3709+484190095+491145633+496311865+499926268+504319217+510751426+517246995
3696+522630874+526455432+526828864+523285732+520996831+521016975+519532306
3682+515507457+509828213+503247676+495076348+489053329+487063523+484282591
3669+482788023+484291722+484917409+483575282+481481375+479081368+475984891
3655+473892936+472862554+469207061+463036237+463100329+468302667+472737054
3642+475251513+476508603+477029457+476998405+476562727+475193660+470925130
3628+465923432+465013601+463919128+459069521+450703931+443583720+440439322
3615+437886423+436362929+437218426+438569092+439774706+440970074+441314162
3601+440594481+439432884+438013630+436382132+434818524+432743541+428797666
3588+423681341+421130184+420981508+420656623+418884464+416425489+414752378
3574+413460472+411784015+409413388+405867607+403068272+403457981+404567405
3561+403962455+402230968+401044905+400353976+399379810+398455411+397459149
3547+395770773+394457921+394716483+395840092+396487144+396258832+396014733
3534+395731949+394365425+392476235+391583238+391304566+390873977+391224791
3520+392246948+392272599+391125047+390215042+390293806+390696793+390412614
3507+389336334+388052129+387451082+387953012+388591803+388344846+387590906
3493+387376047+387788374+388239909+388358891+388237260+388110227+388193452
3480+388901144+389967318+390399963+390161963+390176392+390545015+390689195
3466+390505145+389929330+388861692+387935621+388013479+389126563+390427426
3453+391147352+391120272+390593284+390171547+390160883+390469910+391303242
3439+392470659+393455316+394130039+394323987+394114600+393983872+394433664
3426+395588152+396457346+396526804+396843917+397631176+398446036+399385386
3412+399977581+400333936+401378990+402710418+403717624+404603755+405554746
3399+406831631+408346238+409636019+410873173+412814605+415356597+417425167
3385+419017179+420924073+422764715+423953775+425258053+427514298+430363051
3372+433414256+436711164+440219375+443811160+447022821+449860666+453185943
3358+457630263+462659459+466795553+470132784+474167077+478595331+482312337
3345+485931097+490300800+494725812+498627914+502398173+505929317+509225179
3331+512593880+515483445+517588818+519139949+520269971+521610286+523535895
3318+525174678+525722019+525794789+525989225+526201260+526911009+528000812
3304+528252370+527648813+527486998+527847257+527306015+525320984+522476587
3291+519823315+518400576+517383613+514784012+510788996+507701964+506262009
3277+505035623+503250046+501499007+500072958+498556155+497185066+496406765
3264+495925119+495751071+495679974+494737941+493000912+491612885+490968588
3250+490500150+489419792+487627524+486302682+486192482+486686187+487082692
3237+486923421+486228728+485488101+484752004+483586713+482149720+481304574
3223+481310742+481519014+481251425+480830595+480833348+480582941+479935611
3210+479963318+480599600+481093165+481309244+481079294+480335426+479951747
3196+480722207+481629563+481411080+480493059+479895497+480351667+481718748
3183+482510955+481919527+481193781+481392086+481792354+481552123+480838924
3169+480519860+481405155+482952696+483709669+483538583+483530951+483978582
3156+484711821+485755690+486358758+486036906+485801101+486657435+488038352
3142+488448901+487854371+487843532+488747961+489329561+489494478+490195793
3129+491253916+492052815+492685925+493302412+494062625+494738777+494665171
3115+494447663+494973954+495710051+496075398+495921843+495316021+495031250
3102+495720367+496912668+497613530+497799009+498338822+499026057+498573233
3088+497346463+497388390+498941438+500280533+500739874+500894858+501201237
3075+501739587+502081827+501935661+501639877+501303770+500724818+500266941
3061+500454616+501206988+502178749+502785895+502628123+502399812+502742505
3047+503221956+503600965+504222714+504721647+504531950+504266905+504565059
3034+505095358+505588714+506031327+506461393+506890902+506909687+506808897
3020+507469644+508446564+508794590+508505114+507974676+507690777+508400281
3007+509935416+510644886+510281560+510627146+512233168+514018850+515071885
2993+515492123+515691473+515713778+516203649+517768058+519558654+520722655
2980+521532149+522471533+523543632+524518705+525336667+525732021+525880662
2966+526438703+527035603+527490030+528074837+528198629+527898245+527751416
2953+527603994+527486859+527633653+527885907+528359538+529025374+529450526
2939+529975353+530798439+531326960+531575451+532053716+532767856+533321924
2926+533807543+534350598+534018081+532276103+530318152+529002546+527994922
2912+527886291+529218694+530530187+530699391+530530780+530672172+530992073
2899+531938881+533379568+534164143+534330245+534510845+534691793+535084673
2885+535984501+536902173+537291219+537551908+537939978+538157625+538404408
2872+538670254+538598983+538494185+538591351+538915399+539782223+540981982
2858+541616522+541251453+540767821+540883562+540822607+540128437+539352331
2845+538966700+539396348+540759596+542269742+542963528+543032430+543364354
2831+544323639+545612165+546402037+546428036+546610379+547306640+547909778
2818+548248813+548521107+549060781+550070774+551009183+551502888+551668815
2804+551699241+552098603+553061930+554022888+554352965+554322889+554847507
2791+555996383+556813404+556749138+556500056+556845572+557489556+557948375
2777+558175014+558167625+558242556+558783554+559500482+560086299+560721745
2764+561522665+562411341+563271961+563857674+564005304+564113657+564566481
2750+565008955+565038578+564851670+564929563+565355517+565986676+567141268
2737+568651658+569430377+569429576+569648338+569965730+569759619+569653810
2723+570427162+571559798+572199147+572462937+572838043+573245839+573516216
2710+573877137+574489650+575376514+576416375+577057188+577064576+576862473
2696+576913391+577648024+578955962+579986727+580376052+580423624+580339144
2683+580272125+580453387+581184987+582171073+582682935+582851965+582855938
2669+582487419+582345922+583003255+583889874+584473530+584942735+585290831
2656+585669387+586283189+586637767+586838512+587427779+588030917+588056986
2642+587725968+587893185+588953573+590249418+590904555+590968890+591164476
2629+591755068+592176561+592019520+591997564+592688179+593400960+593575566
2615+593734070+594200939+594673664+595191625+595846343+596519394+596979781
2602+596843093+596661239+597617910+599467961+600742547+600850098+600490223
2588+600516431+601076493+601913205+602952125+603750013+603777337+603428195
2575+603530798+604147040+604624505+604608055+604351130+604773041+605914843
2561+606415030+606444584+607119028+608117730+608547099+608054161+607366543
2548+607535154+608490013+609284973+609382417+609214852+609154280+609215061
2534+609769407+610662300+611148059+611407632+612054265+612894044+613457870
2521+613898531+614609430+615446073+615827626+615546793+615300464+615819540
2507+616853024+617669592+618181977+618929749+619923293+620620878+620961934
2494+621368441+621681406+621397228+621068928+621368789+621861239+622184939
2480+622659824+623350649+623879135+624303765+624844101+625163619+625081300
2467+624921192+625100259+625688690+626165805+626584928+627478030+628214580
2453+628498967+629197319+630022949+630041351+629514746+629248969+629607730
2440+630349228+630826204+630960382+631404458+631854808+631697280+631762382
2426+632271980+632365730+632639592+633718313+634483440+634292942+633867337
2413+634104815+635082884+635848779+636027915+636295922+636818902+637192718
2399+637667325+638855060+640548211+642529373+646363445+654941211+670295273
2386+692465363+720054427+751697127+786465997+821736658+853982566+883198912
2372+910300962+933406603+952550894+969915743+984116852+989427508+984368409
2359+976503145+968323452+956456691+939220304+919786258+909328957+914939683
2345+930513867+940271422+938725693+934273636+932472028+932076395+931672746
2332+931740776+931830135+929799344+924223120+917750309+912710239+907226511
2318+896540933+880317468+868039111+864662429+861934889+852226195+835903682
2305+817536298+802647014+791409738+780845512+770578290+759941644+747522627
2291+734714807+723656040+713910753+704700086+697182779+692248518+689302320
2278+687344717+685775080+684634254+683883555+683187015+682478277+681713428
2264+680628852+679134006+677800174+677374638+677447268+677222337+676939553
2251+676628400+675886204+675033600+674258574+673437685+672753761+672259568
2237+672018466+672210427+672716470+673176229+673449952+673707086+673988058
2224+674336154+674708785+674960133+675365803+675975842+676632931+677249382
2210+677201287+676760975+677010371+677510210+677801149+678538675+679272715
2197+679327850+679530755+680296649+680830572+680906618+681212335+681838475
2183+681981296+681579947+681630482+682409898+683238804+683775097+683940293
2170+683766663+683800260+684454212+685565344+686433144+686281958+685611975
2156+685684605+686608795+687382426+687454359+687554313+688240677+688970883
2143+689517144+689917865+689994887+690045561+690498002+691446169+692264201
2129+692256812+691963921+691902653+691804790+691786040+692137272+692694337
2116+693287787+693901729+694303984+694439625+694938070+696050805+696853363
2102+696954781+697171208+697574160+697633826+697726739+698174859+698573489
2089+698920748+699337153+699489175+699595890+700086179+700572077+700919406
2075+701593502+702207305+702273523+702441715+703095319+703945484+704626062
2062+704840119+704902782+704994023+705026504+705592421+706906667+708065686
2048+708274306+707884458+707844658+708397401+709335740+710541250+711362488
2035+711303659+710873663+710608235+710589554+710799150+711163836+711650013
2021+712154521+712274968+711953847+711924572+712584030+713786124+715253996
2008+715949699+715451533+715150069+715766520+716459645+716902885+717273146
1994+717296427+717251678+717712344+718319455+718935140+719798618+720660842
1981+721268511+721548437+721875413+722712056+723455575+723530924+723409990
1967+723507434+723933179+724876258+726110276+726867457+726861881+726621407
1954+726399612+726275611+726826054+728002289+728649619+728341393+728282912
1940+729305801+730497788+731122186+731659943+732554369+733451584+734212808
1927+734549612+733789294+732915081+733127257+733282206+733244706+734321405
1913+735873686+736672271+736771807+737404499+738871046+739679250+739291214
1900+738649530+738281360+738381662+739030386+739758502+740153368+740443332
1886+740852278+741363269+742130139+743049310+743874103+744437441+744516206
1873+743962138+742585926+740948607+741164756+743343038+745464024+746767815
1859+747779969+748728834+749031762+748577509+748334455+748696561+748814568
1846+747869677+747275809+749336990+751785022+752101403+751440621+751748428
1832+751948336+750777608+750278466+751328818+752547501+754152548+755937845
1819+756804460+756903159+756916054+756281062+755059869+755161635+756704925
1805+757565197+756763475+755603481+755932478+757170330+757687664+757097003
1792+756821468+758721148+760827915+761180123+760693667+760486510+760807980
1778+762004707+762378175+760244921+758034924+759673148+762468649+764116841
1765+765074697+764977671+764760198+765716520+767105349+768205816+767317454
1751+763493628+760292946+761072641+763315886+764577019+764073904+763089422
1738+763875948+764533734+763192791+764166121+767568733+770535354+772068257
1724+771778224+770932869+769777196+766219565+762814235+765322769+769677661
1711+772256316+772361218+769935422+766918894+765016774+762115535+759311461
1697+760124056+763355547+767469825+769761513+769506889+768320896+764960942
1684+759890203+761793856+766139407+767723055+766354371+764014448+762608751
1670+761732866+763164143+766031019+766331369+764860779+765470051+766409436
1657+764182780+756436499+747460800+750567524+754138119+753763606+756022604
1643+760572593+762685843+761193227+756246698+752768180+757292519+762768859
1630+765428718+766488618+767137551+767806071+770406334+774177882+775683463
1616+776712346+781753949+786815208+788932292+789744747+791098654+792572311
1603+794320597+797355456+800711646+802402148+802538417+803011699+804878688
1589+807747098+810676706+813048135+814409361+814284105+812781870+809777819
1576+808105091+811597689+814789938+814404412+813805038+815001486+816589246
1562+817507999+813986544+807378300+812155869+820616674+827377706+831402275
1549+833386714+834263296+832929742+827608213+820363583+824234597+834370708
1535+838855317+839188566+840785527+842330280+841384831+841170774+842420475
1522+842301214+842750936+845258146+850579676+857005925+859571615+856785246
1508+850218127+849765129+860218527+868147569+871155593+870871345+871494906
1495+875589597+878716185+877413789+875663761+880049530+885865392+888548462
1481+889541169+890869565+891185179+888735544+884561183+884913670+890850118
1468+895489397+897311149+899674980+902170480+901135881+897219420+899926607
1454+910091366+918706074+922438171+921904945+922551299+925486205+927725825
1441+929601946+930891099+930599741+932881671+936895855+937480731+937290791
1427+939036359+938254572+935743877+934875868+931937826+928949876+931078948
1414+932389500+929804572+927080098+926173613+924023561+920241418+917112041
1400+912511308+905575182+899384668+895945950+896099784+897161358+895479360
1387+891959926+891721821+895084284+898553253+900059670+898612082+894815510
1373+893292643+895673482+897725672+897679459+895655429+891774307+889672210
1360+891271332+892881327+893143131+893350706+894232795+895949714+897290099
1346+897144071+896154989+893357467+889104202+888979783+893993644+898196862
1333+899701258+900780675+902244992+903227662+903890466+904936844+905998348
1319+906890823+908591153+911409725+914512963+917687159+921811752+926329539
1306+929243255+930921489+933381022+936363187+937573645+937772159+940860899
1292+946647765+951119826+952875152+953540256+954435867+956150068+958931070
1279+961139046+961719112+962259030+962719766+961958751+961142740+961048084
1265+960200428+958554187+958457509+960018852+961493415+963732756+967631164
1252+970447994+970199852+969583261+971611752+975030674+975795174+973708203
1238+972955691+974862272+977335815+978873807+979114073+978293043+977058189
1225+975845081+975216989+976433303+978647761+979120555+978408889+978926921
1211+980138146+980501228+980718283+981726255+982989688+983629699+983211133
1198+981882947+980784988+981634108+983749169+985224847+985986838+985914417
1184+985639927+986284469+986900572+987400062+988870722+990035316+989926928
1171+990369402+991629070+992681652+993611557+994201522+994926849+996073390
1157+996575599+995970300+995481335+997595700+1002351940+1006374767+1007371099
1144+1006366124+1005553389+1005964705+1007419960+1008647008+1008909091
1132+1010043922+1012972973+1014997142+1015019308+1016447727+1020254824
1121+1021423322+1017123426+1012048923+1011106402+1013983176+1017237948
1109+1017525890+1015298607+1014752485+1016953700+1020435285+1026048730
1097+1029473716+1025724472+1021345046+1020603059+1020571902+1021923439
1086+1025496614+1028346134+1029007962+1029190723+1031407829+1035896062
1074+1041155208+1047212590+1051004422+1050082881+1051405004+1056273117
1063+1056207736+1052143854+1051897036+1053585517+1052147757+1050747219
1051+1051521408+1051911813+1049868754+1047073115+1048563151+1052554194
1040+1055446651+1059547615+1061987492+1059003724+1055706782+1056002949
1028+1057301443+1057920055+1058854003+1060445248+1062145438+1063500252
1016+1066055626+1068284582+1065426349+1060315810+1057205113+1055606410
1005+1057250072+1060984190+1062001363+1061511770+1061852268+1061486259
993+1059733234+1058076607+1057447400+1057294960+1057060341+1055640913
982+1053832962+1053763956+1053583286+1052054355+1051574870+1054338168
970+1059885255+1063722952+1063504643+1062728990+1063490493+1064426044
959+1063987753+1061091950+1057555091+1056553044+1057058180+1057447261
947+1058763737+1061444646+1064756435+1066611994+1065773957+1063717515
935+1061655846+1060452845+1061401152+1064318353+1067134765+1068596153
924+1069325942+1068721549+1065868265+1063490005+1064764103+1067969177
912+1069533935+1068266808+1065266799+1065162385+1069796226+1073444122
901+1073741823+1072756504+1070281079+1068220037+1067843224+1066344544
889+1063236217+1061794136+1064781459+1069923295+1070359425+1065093309
878+1060894901+1059710998+1058630954+1057910366+1058471752+1058681837
866+1055046906+1047641123+1041925772+1038646325+1034533233+1031430134
854+1031782133+1031713755+1027385908+1022301577+1019870413+1017394640
843+1013029711+1008866990+1006211383+1004369626+1000224541+991315756+982850003
829+980134034+978695786+973201394+967265085+966352118+969340695+970726526
816+967629003+964695282+967154258+969672480+966278442+961663141+960006306
802+959636253+957338361+952268459+947356921+944019481+941163339+938319535
789+934785185+930799370+928657473+928920531+929402944+927543761+922587614
775+916862993+912597879+910098545+910458491+911965674+909637740+904361587
762+900741154+899299421+897612265+894325360+891049398+889487568+889942100
748+891448447+890801535+886838095+882315289+878915326+876370826+875362784
735+875524006+874949167+875551818+879380314+882698515+882632298+882887828
721+885778961+886026266+881328855+877095386+875367384+874273050+873744076
708+874437758+876285022+878436189+880495210+883013433+882072863+874375165
694+867991783+869998317+875022495+875529234+873170840+873141495+874732113
681+874581206+873030737+872833548+874571936+875944593+877017877+876708884
667+868355631+860776567+861424873+860933678+855618770+853041021+850740201
654+845921019+847970351+853832008+850468500+844030052+844172943+844791207
640+838730061+828882868+821887774+820782357+823344423+826077470+826383116
627+823531993+821235844+819564928+816456323+815691335+813182034+804359193
613+797374276+796975994+801493851+806611570+812971322+823689243+830249391
600+829149063
##END=
