##TITLE=Sample description
##JCAMP-DX=4.24
##DATA TYPE=INFRARED SPECTRUM
##DATE=25/8/2023
##SAMPLING PROCEDURE=Instrument type and / or accessory
##ORIGIN=Default
##XUNITS=1/CM
##YUNITS=ABSORBANCE
##RESOLUTION=4
##FIRSTX=4397.6552
##LASTX=599.8556
##DELTAX=-1.9287962
##MAXY=1.9564805
##MINY=1.1370919
##XFACTOR=1
##YFACTOR=1.8221145e-009
##NPOINTS=1970
##FIRSTY=1.1913096
##XYDATA=(X++(Y..Y))
4398+653806112+654795251+656776343+658847458+660654197+662805717+665030970
4384+664965546+661327471+657277292+656837776+659534014+662132443+662309021
4371+660458842+659231364+660758351+665120535+669061784+668792827+664226129
4357+659022532+657600354+659285666+660888740+662458514+664325965+664554752
4344+662396689+661422204+661946313+660402381+658255767+656665778+655319622
4330+657103854+660737154+661964173+662219064+663621288+664468589+664309151
4317+664408988+664827895+664821157+663691291+662673103+664618409+668229530
4303+668956255+666921908+664325834+661913274+661303395+662198913+662834307
4290+663106862+663255962+663163257+662437840+661664729+662592109+664885533
4276+666610427+667020633+666621221+666528843+665873037+664336891+665527535
4263+668620043+669053017+668878663+670803818+671413827+669697963+669318767
4249+670099140+668971564+666530479+666241961+668981967+670749582+669141797
4236+667009118+666009642+665124460+664098945+662997801+662884356+665308628
4222+668556713+670148666+670253082+670166461+670768293+671722169+672185695
4209+671860343+672118243+673537281+673231426+670362405+668017492+667365153
4195+667262504+667950171+669244446+670251381+672461063+674921972+674354095
4182+671824949+669543497+668665251+669638165+670370125+669866559+669342582
4168+669813108+671784190+673148469+672517000+672313794+672589817+672351740
4155+673379283+675110915+675831687+675960571+674786872+672593611+671418538
4141+670391649+669474541+671217491+673615986+673747880+673963843+674773460
4128+674837968+675771235+677144215+676010359+672381900+669824950+670611538
4114+673985106+678222134+679750757+677550299+675212910+673375423+671323019
4101+670701103+671374573+671679578+670997668+668877747+666918506+668408856
4087+672923542+676981899+678600937+678476567+678564038+679215854+678619779
4074+675763058+672604864+671836922+673475325+675262763+675866885+675366198
4060+674057726+673547356+674935842+676873165+678219256+679642154+682124718
4047+684255368+683574570+681366066+680482782+679985431+677713204+675154029
4033+675226846+678573721+683003357+684927988+683133222+680163253+678304699
4020+677107971+676421415+676554356+676139112+675154749+675636201+678217620
4006+681411600+683192954+682964233+682261976+682338391+682039274+680493446
3993+679234957+680173066+682541139+683225470+681988898+681071463+681057004
3979+682004404+683703913+685056938+685997533+686592953+685153438+681905091
3966+680080623+680307839+680482520+680327073+680915755+682320923+683547027
3952+682904829+680629919+680113204+681667472+681349971+678929952+678924391
3939+681746438+683566981+683691090+683701034+684213104+685574046+686287033
3925+686020235+687823310+690686377+689217748+683212647+680417816+683473687
3912+686283042+685385626+683474341+682113857+681271463+681874734+682991122
3898+684243396+686386411+688282191+688548661+689001131+690025403+687152063
3885+682539569+683602898+687465115+690063021+690988831+688011075+682810161
3871+679832929+678677679+679172805+681102278+683260406+685102800+686663807
3858+687588635+685623376+677439472+673707579+679764365+686485855+689370905
3844+688674013+686132502+681373655+675642351+675561357+680213956+682331260
3831+681588244+682436461+684964298+687141465+687215851+685095734+685815263
3817+687002570+685521380+687295472+691908948+693271787+690213953+690256348
3804+693487292+691362661+687136754+687738848+690285592+691803616+691312089
3790+691188634+693743818+695501489+694366062+694338650+695547678+695444439
3777+696000736+697949247+698736097+696686441+693952716+693623635+694587848
3763+695075647+695157295+696181960+698205904+697791642+692278330+683205974
3750+679860080+682949448+684655891+684937147+688408982+692487227+692919743
3736+688984186+686046077+688079443+691744735+693124388+691754221+690845291
3723+692076302+694176268+696791577+699143424+699070281+694916013+690076237
3709+691131258+695773913+699736947+700735115+699396287+699709927+701647513
3696+702479766+701659354+699050196+694999951+695424420+700598642+703985491
3682+703489580+701489449+699239728+693912611+688735445+687956119+687194850
3669+688705023+693666291+696365538+694892199+692597401+691356969+689028216
3655+687455302+688037899+684759784+676187264+674390667+678381572+680736756
3642+680879445+680613236+679740878+677150365+674009574+671541403+667395772
3628+663625671+667139376+672861652+675586348+673243333+668063092+665596034
3615+664122956+661292142+657335323+651783083+649451975+653131725+657414616
3601+658632738+658434374+658596297+656526425+652027571+649285537+646720671
3588+641433593+639154496+641429406+644106540+645633330+644583151+640613116
3574+636954628+636369741+636599116+633221884+629233792+631003501+633974517
3561+634504645+634528328+634985050+634907065+633830193+631426006+628852438
3547+628770201+630966864+631726693+630676317+630056887+629980341+629870102
3534+630300721+629973275+627127807+624430784+625132125+627730947+629695094
3520+630763985+631321394+631103795+629391660+626799446+625390876+625523685
3507+626272459+626975501+626818091+626175108+625510208+624935724+626147565
3493+628387146+627615867+625278805+625760715+627282206+627289534+626153911
3480+624536182+624050739+625041383+626460486+627728395+628161565+628005857
3466+629109357+631759601+632846549+630975238+629074159+629746779+632080897
3453+632347236+630340956+629432419+629459831+629439026+630563658+631708375
3439+630853027+629324012+629235690+630079523+630026792+628749789+628372818
3426+629748742+630896468+631642493+633240203+635136768+636637585+637168629
3412+636187078+635856427+638797742+642675987+643080828+640540561+638887241
3399+639398461+641410433+643907587+644988254+645952270+649145793+652246610
3385+654238235+656652562+658162081+658190933+658944024+661962472+666331722
3372+668651578+667911571+667553704+669560508+673293251+677828611+681411142
3358+683803226+688089976+694548790+699098282+700818465+701573715+703403940
3345+707762657+711607602+712496970+712987713+716227097+722670340+728216299
3331+730427878+732052215+733294871+733227027+733963958+735595427+737746686
3318+742030165+746947337+750415573+752042855+749512989+743895457+741409033
3304+743395752+744771349+743403341+741881915+741005566+740074719+739789145
3291+739180836+737136872+736408053+737240372+736994576+736432653+736388230
3277+735461963+732516461+728588821+725898144+724427945+723036385+721316072
3264+719965728+720273285+721284079+720797132+718896576+717604591+718171094
3250+719042994+718746625+719541849+721692584+720570570+716450518+714594713
3237+716202040+719288463+721306454+720264518+717484866+715548523+714888857
3223+713531056+710599032+708126804+707184050+707655624+710213752+713810872
3210+714846266+713091213+712548655+713426770+713265632+713096250+714258501
3196+715057846+714511101+713615387+712089839+709984115+708932889+709779797
3183+712366516+715523270+718049929+719148195+718361738+717056406+717033181
3169+718438480+719586795+719363439+718558729+717266416+716015909+717064388
3156+720585355+723753559+724240572+722783130+721911950+722794514+724709267
3142+725962587+725285976+724104622+724295593+725268638+726234814+726855422
3129+726400009+725329155+724974036+725419047+725715089+725708154+725963372
3115+726851563+727828010+727893499+728031935+729674787+732031672+733543350
3102+733161931+731316265+729699648+729715677+731750874+733666739+732849402
3088+730395101+728785092+728839132+730602821+733779071+737472757+739129544
3075+737195884+734423559+733386988+734274197+736363696+737781098+737307955
3061+735675505+734718358+735771351+737656074+738038082+737204847+737356499
3047+738731965+739323918+737974621+736553555+737324180+739060326+738477336
3034+736633765+738437428+742622641+743593658+741292514+739153816+739253653
3020+740673868+741248157+740527974+739625390+740284598+743093560+746879166
3007+749812172+750073408+747796209+745953553+745572068+745062876+745755581
2993+748551328+750822574+751236705+750696502+750806741+752542691+754932026
2980+755656789+754474257+754144653+754995814+754906446+754748055+756500557
2966+759578149+763056395+765342491+764122472+761139941+759153092+758107165
2953+757852012+758512006+760423618+763388354+765238141+766037028+767925939
2939+769348771+769105199+768331761+766097872+763612364+763830225+765438730
2926+766282367+767343407+768697217+768084983+765605756+763248282+761855871
2912+761674517+762286751+763354137+765295910+767417532+768507227+768590969
2899+768430158+769299507+770978735+770763884+767798035+764845665+764604382
2885+766198821+767068693+766706050+765715733+764870460+764865488+765270329
2872+766143800+768359697+770351846+769968136+769191166+770223485+771922012
2858+773030550+773426232+773549228+774047363+774150929+772404642+769774940
2845+768954463+770174809+770748378+769622111+769123976+770321489+771712984
2831+773274253+775328684+775839250+774850961+775093814+776874121+778818772
2818+780042455+780240950+779972321+779091065+777302645+775929011+775529208
2804+775724366+777416352+779616547+779490738+778458877+779804378+782398032
2791+782993844+781751908+781602742+783653707+785695185+785595479+784301073
2777+783344646+783034996+783457436+784073203+784449716+785317102+786630415
2764+787075034+786806994+786988544+787346607+787341635+787516578+787779777
2750+786997245+786102512+786947654+789018508+790882688+791559495+791228582
2737+791121287+791929531+793343466+794424198+794882948+794930511+794686808
2723+794767999+795403458+795857891+796289229+796915790+796184813+794885500
2710+795136530+796147129+797369241+798520566+799226029+800306761+801083863
2696+800999401+800933323+800052983+798070059+797743988+799721285+801019682
2683+800478629+799450301+799259395+800510883+802467376+804122789+805295769
2669+805312190+803562109+801516967+800880134+801534304+802761389+803945883
2656+804353669+804320368+805162893+806917358+808390501+808548041+807610259
2642+806850626+806522985+806789259+808046962+809107348+809292627+809616474
2629+810350658+810643690+810023998+809088309+809280589+810576304+810761060
2615+809589389+808815820+808649121+808867897+809755957+810772705+811412352
2602+812730049+815092887+816248007+815270120+814329459+814682027+815678494
2588+816337506+815950722+815402210+816101719+817291709+817785592+818001163
2575+818503943+818892690+818742936+818998349+820252454+821537112+822112186
2561+821381011+819838258+819554777+820599199+821311074+821576366+821896091
2548+822066324+822173749+822225107+822272212+822849182+823517419+823712970
2534+823397759+822357917+821553599+822010910+822849510+822951767+822592002
2521+822657230+823378787+824632761+827060303+830096482+830446564+827875939
2507+826396646+827035966+828216731+829458536+829893538+828832236+827649966
2494+827566486+828189318+829389645+831060826+831619936+830416338+829269528
2480+828778851+827843293+827152093+827671818+828665471+829250620+829558373
2467+830485360+831381794+830787159+829746139+829964261+830850358+831327296
2453+831934820+832253694+830983364+830006394+831624516+834295696+835479143
2440+834930108+833751502+833072536+833401878+833934099+833740446+833234787
2426+833318921+833582644+832678882+831277574+831587878+833522847+835423206
2413+836847020+837546333+837556735+837707864+837570736+837008943+836958371
2399+836870900+836366942+836506555+837826869+839811690+841437205+842023531
2386+841439037+839843421+837603906+834783167+831749867+829423927+826902829
2372+822708849+819285821+818790368+818469857+816457428+814501000+813803912
2359+813010389+811558639+811501721+814340254+820451408+826969757+829291575
2345+827376692+825251406+823619742+821864950+821028967+821300540+822442575
2332+824254809+826919054+829357915+829165373+828409861+830984149+834051339
2318+833869723+833672013+836148165+838806718+839321798+838885685+839534621
2305+841107143+842600371+843920423+845294973+847040933+848564518+848623137
2291+848063504+848774658+849749470+849089477+848037727+847812473+847897001
2278+848701515+850547769+852548619+853804817+854070372+853681167+852707206
2264+851427062+851411884+853158367+854728075+855065268+854378844+853066119
2251+852790163+853873250+854252053+853299158+852763208+853718785+854722187
2237+854474297+854142338+854349469+854138020+854274493+856149795+858572497
2224+859432163+858688100+857952346+857627518+857119569+856700728+856622743
2210+857304718+858693858+859038836+858432948+858727027+859462127+859828041
2197+860333896+860499353+859662061+858775702+858751954+859283651+860624181
2183+862604030+863238115+862421302+861865332+861554374+860592320+859633275
2170+860711914+863584861+865140699+864304324+863251658+863452639+864323428
2156+864956336+864933241+865126764+866322053+866748419+865521268+864539129
2143+864298174+863883977+863743578+864413712+864825554+863894641+862707726
2129+863060294+865122053+867827189+869614300+870203308+870774195+870911977
2116+869930361+868755680+867669387+866423525+865257480+864093137+863238181
2102+863512502+864855321+866522380+868023983+869119828+869158297+868240404
2089+868168961+869563662+870978774+871369811+870892219+870068536+869529838
2075+869885938+870883256+871809785+872027187+871324800+870257152+869013318
2062+868131147+868920744+871453946+873856431+874200821+873266768+873250216
2048+874353847+874848973+873713546+872478872+872818093+873822738+874140239
2035+874274030+875249823+876493264+876364707+874867815+873954894+874697713
2021+875500330+875130883+875279329+876034056+875149987+873979689+874977596
2008+876565296+876958361+876838243+876424373+876457543+877568959+877730490
1994+876090647+874432224+874204092+875321331+876811943+878014952+878736378
1981+879445177+880678412+881584790+881303731+880467225+879742527+879082338
1967+878683515+878967519+880037195+881290384+881675010+881693852+882856036
1954+884432353+884520020+883352144+881856560+880201605+879313937+880234513
1940+881917404+882637522+883093917+884772752+886801276+887560975+887377004
1927+887222931+886623193+885039157+883647793+883666373+885087963+886414361
1913+886771901+886474943+885420184+884744685+885579948+887177527+889519692
1900+892009256+892194078+890052698+888115832+887332646+887475859+888761563
1886+890326823+890800228+890494765+890496074+890636407+890859894+891419920
1873+891241641+889440791+887612659+888665325+890976348+892108896+893010957
1859+893771506+893651323+893659043+893905821+893488549+892813836+892931729
1846+893142458+892917532+894148673+895651911+895598133+895026200+894706737
1832+893089400+890268792+890983676+895074744+897661790+898419657+898731858
1819+898662836+898181319+897258192+895751944+894221817+894923747+897633723
1805+899462705+899070818+896649425+894525121+894968693+896214358+895447790
1792+894135131+896620246+900382103+901569215+900133297+897786749+896369412
1778+897290642+898523353+896499016+891567451+890250408+893646416+897647724
1765+900158289+900128063+898948541+898669968+898611741+899241704+899196431
1751+895168758+890545534+892389171+898153121+902422469+902449031+898707652
1738+895540691+893348216+890094765+891123682+896212984+901075855+903991065
1724+903929894+902715109+901086257+896195320+890920411+892265259+896610564
1711+900087632+900408600+896941476+894370329+895799703+894966272+889408668
1697+887073373+888213575+891369741+895011284+896746579+895337289+889199574
1684+882938797+887257213+892990479+894781581+894216518+893453221+892166404
1670+888588583+887055381+890352338+893246482+893262184+892279521+891598265
1657+890807228+886934609+877410176+876157052+877712826+874419009+874309817
1643+878796764+880875075+879724143+875753127+871160652+873032225+876871216
1630+878412400+879818092+881207231+880186557+881176613+885962872+888638436
1616+888645109+891921131+896575824+899458911+901093977+902941475+905672256
1603+909017888+912157566+913812260+913663487+913662178+915600876+918925769
1589+921712618+922884682+923416706+924019912+924340422+923372088+919304702
1576+916753705+922004865+926136104+924296523+922643138+924472970+926032865
1562+924749843+916246083+905159662+911266497+919341732+922617753+924006304
1549+925971367+927099139+924548338+916980202+906325903+908650142+921061457
1535+926768619+925802313+926534534+928981180+928396947+926233454+924875587
1522+923983602+924890896+926551805+930293381+937254387+942529623+940746633
1508+928896522+920389098+930655043+941183794+946091741+946131126+944657133
1495+946028477+947118957+942658376+935970318+937052228+942330277+945419776
1481+945739632+944578952+941442871+935314839+927315953+924508495+929329561
1468+933818536+934402245+933569599+933622723+932207676+926985629+923987069
1454+928189881+933793282+937452424+936451639+934637770+937391057+941532632
1441+943345390+941948530+938290370+938462761+942247385+944651114+946655235
1427+948862104+949132565+949802176+951376071+948182876+943687097+945622916
1414+948967043+948370576+944230244+940447451+937680098+935917390+935910521
1400+934042546+929299989+926312878+926928057+928630640+927461651+921520730
1387+914250271+912657861+915743892+917994006+917808857+916083048+914369931
1373+915164239+917256551+918217820+919053934+919440522+917842877+917750826
1360+921177322+923353507+922328058+920410884+919357368+918704441+918069047
1346+918661065+920616315+921847325+921405192+921061457+922196949+923497505
1333+923782621+923623183+923454456+923015071+922671074+923421940+926168750
1319+929988573+932940682+935258771+937213824+937766588+937706726+939108688
1306+943012514+948565800+952624615+954082515+956624352+960861250+962619706
1292+961554086+961484148+964879241+970112344+973421600+974735764+976435208
1279+977921697+977846984+978366839+981568213+985796867+988771089+989624540
1265+987887740+984043187+979723267+977085518+977701351+981271320+985158660
1252+986779137+987564613+990258495+993609165+994064840+991539031+989838410
1238+990852737+992453653+992379528+992494674+995790518+999412500+998936412
1225+996563302+996342366+998126664+999605368+999670857+999692316+1000699055
1211+1000874128+1000843118+1002980180+1005135102+1006174945+1007591497
1200+1008416815+1008216750+1008554859+1010887538+1014264769+1015452535
1188+1013245143+1009011123+1005612236+1006973898+1012513903+1015812561
1177+1015033235+1013733072+1012519398+1012585411+1015548511+1018564866
1165+1018850833+1017606345+1016785737+1016034674+1016166110+1018224402
1153+1019236963+1019334052+1021974810+1025697216+1027533919+1027824399
1142+1026925283+1024557145+1023264309+1024935555+1027080468+1026806212
1130+1023421064+1019927182+1021331827+1027714684+1032970620+1032409024
1119+1029193846+1028708665+1031151320+1033128749+1032416482+1030128619
1107+1027451289+1023539939+1020511873+1022587175+1027909516+1031154657
1096+1032337908+1034638202+1037418640+1036449193+1033107094+1033536076
1084+1037010985+1039956814+1042170094+1043302642+1043405095+1040547458
1072+1035017528+1034292765+1039601367+1044419816+1047231853+1050449909
1061+1053603457+1053642777+1051047619+1049847423+1049829170+1049527501
1049+1051320697+1055120827+1055764726+1051653507+1047800515+1048302510
1038+1053356679+1060309507+1064073327+1061730246+1056537967+1053131099
1026+1053137249+1056575717+1060844083+1062095768+1060220597+1057765838
1015+1056741173+1056635645+1056820270+1059030541+1061263318+1058719387
1003+1054156875+1053415168+1055866394+1058741631+1059493021+1054356679
991+1046052592+1042459790+1044994824+1048534960+1049913108+1051586971
980+1055792269+1058308526+1055653179+1051755175+1049687986+1049774083
968+1051959624+1054290667+1056617850+1059316835+1059265739+1056337902
957+1054973427+1055535154+1055240814+1055462861+1057481245+1059319125
945+1060239439+1058907349+1055859394+1057047879+1061227204+1061123508
934+1059541238+1060755238+1063166294+1066880130+1069415949+1065817193
922+1058727303+1055271694+1056156744+1057151314+1055702639+1051930707
910+1050880723+1055297013+1059929789+1063298908+1068774667+1073741823
899+1072553861+1067162302+1064116114+1063265149+1060356154+1055541239
887+1051507678+1052317622+1059406662+1064742152+1063784155+1063437933
876+1064427007+1062124227+1060198287+1062515853+1063990893+1061112386
864+1057585596+1054271890+1047393776+1037630089+1031528749+1032488317
853+1037277783+1038575852+1032708010+1026358257+1024083020+1022461365
841+1021323780+1022418840+1021722209+1015936539+1009444293+1008562317
829+1011929670+1010853452+1004977039+1001445080+1001638014+1004441546
818+1007071379+1008332615+1007755841+1001260716+994297617+994261830+997358460
804+997800004+993283159+986762258+982643777+979963699+976197393+971855752
791+968455098+966132757+965579012+965243846+960226903+953097301+949649281
777+948053337+946591709+946920658+947899265+947068123+943833188+938395832
764+933286315+933355664+936211535+933842219+927378433+924086252+926111963
750+928830509+927222266+922825277+918980725+915419522+911051253+906730875
737+904554886+906578307+912685208+918048177+916459888+908527080+902004870
723+902554232+906651582+907504247+905805131+905050143+906218346+909334080
710+911559660+909256946+903045236+900187141+902537549+900210759+893893521
696+893178899+894742654+891386685+885783154+886722244+896943243+903942914
683+896165552+881926760+874566408+877527611+883726367+884919170+881510077
669+877938406+879428690+880149593+873355287+866707725+866656041+868478415
656+867120483+866000431+866688622+865789113+865630199+868510211+868392383
642+861455257+853033080+850750255+857047473+864729708+860752607+846806389
629+833139726+822898708+815887588+804872478+783042258+771274515+799792204
615+860366281+898558617+897166795+883245830+860811096+832159746+816939338
602+826574795+845758434
##END=
