##TITLE=Sample description
##JCAMP-DX=4.24
##DATA TYPE=INFRARED SPECTRUM
##DATE=25/8/2023
##SAMPLING PROCEDURE=Instrument type and / or accessory
##ORIGIN=Default
##XUNITS=1/CM
##YUNITS=ABSORBANCE
##RESOLUTION=4
##FIRSTX=4397.6552
##LASTX=599.8556
##DELTAX=-1.9287962
##MAXY=1.7941935
##MINY=0.08580371
##XFACTOR=1
##YFACTOR=1.6709729e-009
##NPOINTS=1970
##FIRSTY=0.08580371
##XYDATA=(X++(Y..Y))
4398+51349552+51413473+51442193+51514256+51641212+52002105+52493450+52703559
4382+52561635+52472918+52711322+53176101+53661485+53931614+53852969+53643186
4367+53582769+53857963+54607626+55335628+55390280+55150350+55186342+55160347
4351+54727818+54343075+54302312+54133274+53667790+53384387+53385814+53366792
4336+53277134+53386197+53803441+54062980+53941606+53855181+53775948+53393978
4321+53027003+53060159+53377253+53705940+53845938+53861200+53927668+53998234
4305+54018963+54035402+54167620+54471226+54827696+55002469+54892055+54973642
4290+55438520+55664480+55503610+55474859+55832537+56321640+56563214+56543997
4274+56592393+56766715+56824907+56769627+56707921+56632781+56526144+56412123
4259+56384175+56537870+56895027+57248006+57384825+57400261+57517867+57851294
4243+58256178+58521135+58604738+58640145+58750176+58762741+58538346+58381582
4228+58664410+59268546+59749952+59944553+59982132+59966580+60029824+60302285
4212+60667414+60822978+60670700+60549036+60738559+61002258+61069814+61090525
4197+61262779+61397529+61347305+61374985+61666044+62063303+62293290+62282205
4182+62221953+62271655+62371105+62478969+62639897+62601952+62225337+61948382
4166+62052094+62299314+62547340+62877534+63105394+63054528+62955662+62999189
4151+63057194+62987128+62937425+63018576+63006096+62812703+62796767+63169824
4135+63421115+63179130+63041891+63468811+63901049+63889403+63812042+63955394
4120+64123567+64170719+64182098+64219842+64305577+64452397+64507570+64498336
4104+64683690+65089336+65469090+65563193+65487028+65446872+65361378+65334821
4089+65590767+66021262+66360820+66544729+66694518+66783178+66748506+66706994
4074+66734349+66881767+67154464+67428232+67640267+67736083+67668683+67606367
4058+67715639+67833383+67752447+67570941+67536849+67723861+67863993+67858264
4043+68002435+68250868+68319306+68295835+68343206+68335929+68207764+68063017
4027+67905050+67926858+68304115+68652283+68684605+68612176+68675950+68891949
4012+69009867+68766335+68418457+68496661+68877066+69080259+69049992+68884539
3996+68738262+68784442+68870444+68916807+69111466+69350624+69368932+69319698
3981+69456504+69579884+69423968+69248771+69433576+69734494+69769179+69757305
3966+69853906+69689745+69371889+69458631+69919138+70255980+69933759+68924664
3950+67994467+68019865+68482000+68248612+68168816+69312555+70573395+70574189
3935+68889483+66915230+67098867+68712771+68958858+67945309+67771892+67965770
3919+67295577+67252572+69051629+71048122+71963979+71509807+68951122+64445508
3904+60741042+60294255+62622962+66469472+68983685+68380566+66651192+67031374
3888+67681105+66555514+65378888+64713336+64959999+67372737+68568145+66723015
3873+63799843+61936566+62896654+64704058+64644135+65260537+67861581+68958292
3858+66728860+61366121+56642417+61023674+68010105+71524762+71363148+68749864
3842+65114176+61529778+60669585+63763490+67077973+69177885+70538398+70764577
3827+70346450+69392239+66355202+63758898+65355341+67904105+71428679+75391244
3811+76759533+74944425+72149029+70821110+69213627+67989295+70002822+72707738
3796+75779813+79101657+80846825+81196852+80668516+79635647+79350335+79413543
3780+78885609+79664415+82069070+83222907+81879454+79623795+79187882+80317812
3765+81739518+82443718+81082474+79405553+79721131+79331421+75486502+70550736
3750+71446398+74794782+76445846+79298060+82646907+83126436+80031394+75906622
3734+77587172+84900952+90673787+92342022+91625658+91445244+93118946+96067613
3719+99079971+100594447+99412528+96033271+95458796+100755152+106206488
3705+108578112+108986166+110657745+114156177+117131437+118675342+118008676
3692+115269413+115162552+122093149+129956845+134864829+137275993+137486673
3678+135885954+135763274+141813412+147917378+153241460+163498119+174351798
3665+182280949+188611861+194085304+198564268+203640411+210384157+214717246
3651+215114135+218569316+232690281+247954508+259381913+268991489+278060513
3638+285972579+292838050+299522725+304971448+310017343+320274609+333075511
3624+342923778+349328545+353939294+360953316+369860377+378019604+386512459
3611+395074514+402677743+410904922+419393282+426586477+432969735+439445665
3597+445633734+451404349+458039441+464210637+467583152+470033189+476286213
3584+485084943+492637306+497549650+500463191+503361358+507182466+511068388
3570+513086775+512017726+511976776+517213973+524701343+531256569+536099356
3557+538849133+539394679+540245352+542780499+544974742+546248397+548971600
3543+553478904+557003803+558260158+558577770+560498347+563736027+565711716
3530+565418503+564621158+565333821+566925480+568771970+570758895+572212081
3516+572542319+572642768+573452384+573529254+572798042+573125998+574372400
3503+575503623+576874695+578411421+578991104+578647453+578533093+579275684
3489+579489993+578672423+578513938+579175628+579770115+580225058+580723662
3476+580437976+579816843+580346160+581021797+581215417+581913741+582561412
3462+581911422+580994473+580991727+581470676+582185908+582557917+582417802
3449+582325237+581935215+580496797+578883628+579381234+581527464+582214230
3435+581163231+580456168+580336208+580311916+580683176+580923453+580361070
3422+579860932+580277708+581075874+582181271+583415973+584098602+584769638
3408+585692901+586351630+586148272+585016407+584323470+584937504+586285746
3395+588165695+590666848+592894621+594490881+595662840+595934614+595559145
3381+595724193+597026884+598986450+601277574+603491436+604035056+603051831
3368+603707956+607267528+610745485+611659723+611523675+613195914+616852296
3354+620260695+622087602+623052706+624111767+625034637+626172459+628315692
3341+630777821+632658020+634102109+635690308+637473625+639672006+642298220
3327+644115067+644608820+645075106+646332995+647422162+648354521+650103166
3314+651570156+651436534+651046440+651638929+652149590+652704981+653822756
3300+654449917+654623347+654619994+654358457+653932336+652608742+650513949
3287+649329613+649369065+648864611+647250158+646250810+646810768+647403685
3273+647256650+647761461+649316343+650337379+648612562+644685441+641871171
3260+641661856+643094531+644259177+644327307+644787673+646296683+647165762
3246+646457771+644947834+643084686+641306505+640377999+640464607+641312141
3233+642043317+641641096+640375859+639277132+638202019+636250480+634468233
3219+634762515+636129128+636611752+636265247+634905697+632798277+631580410
3206+631628994+632477741+632790857+631233835+629363481+628758864+627967832
3192+625874609+623705407+621716270+619704162+618817533+618710378+618307229
3179+617507565+616178049+614433899+612459672+610640257+610072024+610589961
3165+609935762+607656623+606088043+605192140+602557935+599245704+597615164
3152+596604437+595888706+596087570+595335419+593363832+592027290+590836390
3138+588640079+586700203+586184049+586344995+585819103+584167482+582596370
3125+581317756+579419722+577449420+575946973+574487438+572427460+569660383
3111+567332625+566507385+566382288+565526157+564383948+563509626+561768007
3098+559325711+557854976+557095299+555693764+553883730+552723685+552458439
3084+552275306+551143584+548660373+546177734+545492144+545350960+543670981
3071+541402721+540107485+538945907+536786586+534413170+532185218+529743243
3057+527661862+526039206+524313532+522345870+520146704+517830076+515945882
3044+514909472+513945759+512273698+510241079+508007849+505403465+502784992
3030+500882321+499805211+498640850+496772673+494708663+493401121+492929234
3017+492495694+491901920+491135145+490175890+489731185+489842655+489936897
3003+490021365+490180955+490851670+492714604+495790090+499886575+504407898
2990+508050796+510067042+510689673+510135209+508218163+505152665+501757571
2976+498709445+495891002+492517203+488729803+485732650+483682446+481714176
2963+479601263+477784130+476454614+475583895+475175680+475007422+474898555
2949+474816584+474549232+473800256+472474522+470853756+468990644+466584303
2936+463998683+462096047+461062812+460157028+458543895+455939012+452427810
2922+448306819+444104106+440183655+436421260+432611673+428895651+425612919
2909+422804535+420294429+418017930+415677295+413263607+411411053+410129586
2895+408909829+407928744+407526201+407386443+407119235+406677347+406099697
2882+405631556+405547694+405613649+405554222+405372373+404902912+404404522
2868+404340244+404256988+403651694+402464254+400508505+397776849+394561428
2855+390913892+386377945+380782615+374984248+370053284+365958582+361937647
2841+357922169+354386818+351336338+348340612+345209337+342215288+339686669
2828+337664715+335983416+334500196+333096414+331689779+330295914+328929979
2814+327687999+326648093+325710740+324825788+323996874+323134929+322174034
2801+321117827+319843815+318183633+316192891+313989873+311637039+309238261
2787+306923059+304865649+303069134+301281607+299445605+297723142+296090283
2774+294424483+292836159+291504664+290337414+289100107+287803177+286699403
2760+285815824+284905492+283847020+282728639+281678121+280671139+279707587
2747+278892013+278051275+276969706+275776381+274766189+274139028+273710517
2733+273126071+272359956+271578216+270849180+270129436+269383724+268653599
2720+267989377+267441512+266946600+266348421+265622417+264854625+264134346
2706+263326566+262309365+261403349+260677648+259775235+258714943+257651638
2693+256457154+255117490+253856337+252827347+251985627+251235153+250499981
2679+249608465+248504299+247431362+246477120+245494109+244565923+243808279
2666+243014323+242011586+240945837+240092364+239569521+239117057+238444559
2652+237726224+237140637+236515991+235903170+235501430+235137286+234666559
2639+234246394+234012056+233953057+233980381+234023988+233989352+233837074
2625+233689986+233652496+233753676+233925715+234024773+234028144+234120976
2612+234392662+234569071+234516136+234469318+234502991+234470656+234308693
2598+234025397+233583260+232935196+232146911+231451530+230906643+230240334
2585+229406158+228601162+227838756+227037076+226196801+225385847+224588359
2571+223768381+223008686+222312912+221584037+220778130+219940816+219221536
2558+218666840+218141411+217647997+217265198+216882185+216485474+216193938
2544+215924108+215612400+215373246+215221432+215152374+215218150+215281466
2531+215241693+215267608+215434403+215648837+215818772+215919649+216064222
2517+216234888+216289963+216291390+216356899+216521591+216742017+216832692
2504+216678862+216454922+216365086+216312008+216086890+215675911+215212193
2490+214792493+214405110+213951968+213372160+212766865+212161588+211481153
2477+210857381+210382587+209985020+209615918+209124948+208479720+207917355
2463+207479962+207005667+206484805+206016485+205648132+205244608+204615165
2450+203952833+203598641+203369778+202913070+202370484+201958809+201564185
2436+201156470+200845119+200551995+200199088+199894300+199676799+199478666
2423+199314742+199247735+199222337+199080867+198819509+198576342+198384416
2409+198266471+198275639+198341665+198347479+198248208+198145940+198134597
2396+198080574+197916989+197743915+197559462+197343762+197119447+196851525
2382+196476270+196005275+195524185+195021444+194443758+193839622+193245421
2369+192712663+192321106+192042287+191951273+192180903+192455709+192554089
2355+192766989+193220470+193495544+193284177+192835726+192538554+192406341
2342+192330933+192529262+193015934+193349437+193319241+193252056+193421902
2328+193717254+193921825+194052808+194244341+194435857+194526906+194485368
2315+194281956+194008041+193824676+193794553+193835485+193826389+193761878
2301+193686649+193663338+193754815+193839551+193787989+193713259+193696494
2288+193641329+193545304+193472197+193354680+193182231+193064482+192971096
2274+192763172+192495464+192357490+192296262+192116499+191817669+191538635
2261+191382541+191280737+191101902+190931593+190868919+190772983+190600569
2247+190490329+190390416+190205481+190038703+189947940+189850202+189702882
2234+189597351+189612493+189668567+189655868+189581353+189492782+189385075
2220+189311754+189356503+189431875+189421976+189359535+189296184+189226947
2207+189138555+189068124+189075490+189101565+189055675+189000688+188991057
2193+188963751+188886239+188790089+188684932+188524040+188309962+188126722
2180+187989498+187810841+187556527+187322617+187158390+187013068+186860237
2166+186682169+186507133+186382554+186267070+186114079+185940684+185841145
2153+185893741+185996312+185999059+185912415+185822703+185772247+185762777
2139+185744959+185682054+185628869+185623822+185587866+185489433+185434785
2126+185452692+185475682+185466051+185398330+185332589+185372362+185465052
2112+185489558+185492893+185577967+185718456+185872000+186029165+186176877
2099+186320808+186489138+186674910+186795923+186885848+187058690+187247459
2085+187402377+187636804+187914054+188060018+188105035+188193730+188336805
2072+188469089+188499944+188322429+188107942+188231701+188577028+188761303
2058+188768490+188728878+188720906+188734728+188670628+188532708+188418776
2045+188321216+188203878+188198206+188366375+188595185+188784596+188902344
2031+188977431+189001420+188978894+188920786+188799221+188566381+188185722
2018+187998843+188369318+188927064+189219528+189350760+189541972+189755657
2004+189887389+189967487+190078155+190272881+190325370+189900123+189523834
1991+189944818+190767329+191521068+192172859+192636042+192971542+193340555
1977+193801169+194247659+194588188+194643067+194217374+193953715+194583230
1964+195472249+195917400+196039697+195907876+195640775+195552847+195538168
1950+195295537+194723291+193681013+192347485+192035919+193223466+194295261
1937+194528565+194417201+194328114+194365318+194400686+193957032+192729142
1923+191774026+191844992+192119942+192874696+194235210+194803318+194280672
1910+193887564+194474203+195387050+195961043+196340936+196528510+196214715
1896+195718715+195678158+195502105+195055634+195677355+196970486+197794228
1883+198331463+198798035+199233841+199646746+199767152+198807220+196201089
1869+194038450+195614004+198929909+200833044+201389096+201721296+202287318
1856+202943925+203450519+203596233+203008399+201472066+199726399+200265935
1842+203417131+205716014+206503086+207217907+207639338+206342176+204505834
1828+204978363+206712740+208610524+211095750+213028812+213895822+214385883
1815+214532490+213812835+213199710+214193012+215930956+216726019+216016530
1801+214975893+215481952+216815855+216826895+215499966+216253472+220461161
1788+223882955+225114216+225490398+225805298+226747181+228321129+228485535
1774+226368056+224865716+227755750+232779922+237034910+239089127+239478543
1761+240975889+243481340+245966013+248405384+248744559+246928977+247178261
1747+251472362+256519363+260494123+263977199+268213228+271837969+272708582
1734+274519455+281696010+289864012+297314767+303030752+307086074+310249202
1720+310991329+309453818+312440199+322514296+332194911+338955742+342864351
1707+345424360+349310924+353568926+356909230+362045657+370308721+383137233
1693+395850778+403562624+409248949+413828629+417039057+426024986+441301465
1680+453491758+462458817+470436695+478961046+485663521+491474515+500879396
1666+509373605+513309966+515789538+520198890+524112814+523851776+518625959
1653+516043762+522405796+524755812+525052628+532190034+540884748+545432895
1639+545636182+542624833+542762842+550590332+557726169+561574066+564107537
1626+566793713+570808441+577962078+584825534+588314121+591928875+598741892
1612+604427790+607164725+608778535+610968640+612529943+611999949+610222482
1599+608153729+605559262+602517556+599451310+596122170+592310265+588153211
1585+583348770+578053181+572659069+566332028+557591905+549742834+547760903
1572+545542832+540570883+538107255+538924648+539754275+538800014+533439041
1558+529512740+537143364+543910081+546860469+546718607+545449482+543365212
1545+538892722+533511096+534174426+551876972+570302026+581340550+593559129
1531+608505370+619257352+625508272+629052362+629405002+628174722+628777484
1518+628364490+626500985+624916853+620384187+611006237+598969899+596591774
1504+606813512+613200694+614833410+614602478+617313017+624074955+628979166
1491+631320514+637846383+651825272+665880996+676067384+683705678+689789160
1477+693513815+695187766+698714948+709905322+723001649+730957553+735770875
1464+742771092+750594588+753827416+752478496+756472535+767129990+775956543
1450+782207534+786899719+792172908+798536404+804479487+808972844+810922314
1437+812423620+818747593+826951908+831998801+834467779+836009249+834949547
1423+832886358+832419144+831011581+829972567+833319827+838433924+842899030
1410+845864472+845795842+842676232+840058579+838592516+834395368+828177907
1396+823883307+822087790+823383204+825287160+823676488+819857805+819119210
1383+821049775+821824398+820049000+816399039+812342861+810712857+811249414
1369+811414640+811872366+812062704+809741617+807730150+809242727+811726616
1356+812476055+811434759+810305926+809462387+808118461+806161428+804207962
1342+801885947+798172706+795841203+797722757+800873401+801662363+800140013
1329+799351835+799990267+799718172+798124266+797042233+797319608+797850030
1315+797870933+798518426+800673288+803425776+806180333+809126655+811538845
1302+813401565+815594809+817283100+817414296+816528666+815234821+813316170
1288+810475576+807234614+804253335+801882879+800414034+799198094+797433326
1275+795314419+793309659+792021736+791341782+789984943+787602859+785063467
1261+782761570+781044601+780706657+781699085+783016615+784120978+785443573
1248+787541791+790082395+791908802+792708752+793496216+795115520+797781685
1234+801355881+805435531+809454825+813059912+816546216+819906318+822626131
1221+824869457+827040371+828985989+830517614+832096753+834138967+836306314
1207+838064519+839504114+841456938+843813411+845835293+847751448+849636854
1194+851170762+852443704+854062865+856001135+857680508+859657802+862294432
1180+865421390+868689390+871418193+874491360+878639924+882565334+885485545
1167+888047694+890832571+894171128+898076133+901626288+904707801+908282212
1153+912087055+915481114+918557706+921173575+923525553+926531017+930745501
1140+936048653+941109244+944158654+945328793+946091645+947340831+949474647
1126+953305957+958716121+963004443+964191918+963720139+963905483+965874359
1113+968243530+969812610+972375401+975014528+975695195+976008026+976713448
1099+978266476+981015753+983834018+987128200+990140513+991083644+992478579
1086+995802796+997860492+998498568+999629755+1001160452+1003938266+1007002944
1072+1008239501+1010005340+1014600430+1019303744+1021256782+1022155824
1061+1024041231+1025479684+1026132100+1028031917+1030319189+1031314043
1049+1029937299+1025327870+1022422141+1024631294+1027090641+1027342119
1038+1028887798+1032512932+1035239951+1037400735+1040302398+1040364322
1026+1036937588+1035801050+1038403793+1040366890+1040986061+1042387631
1015+1044187214+1044888784+1043631894+1041612080+1038795242+1034584611
1003+1032114991+1032064267+1032284212+1032468629+1032554239+1032909090
991+1032620158+1030513523+1029009506+1030473215+1034420597+1039012619
980+1042359522+1043605212+1043799046+1043864680+1042882525+1040929273
968+1039803580+1040796436+1042902001+1044533005+1046798874+1050506265
957+1053424407+1053972664+1054207805+1055759192+1056093782+1054693568
945+1055597747+1059921240+1063269142+1061688648+1057987892+1056703322
934+1056540236+1056008672+1057433428+1061068621+1064839934+1067646498
922+1069020317+1068696213+1065866249+1062395569+1064466534+1070377513
910+1069906161+1064974769+1064656729+1066953347+1067436184+1067939782
899+1068756497+1067367697+1065245223+1066528153+1071028002+1073741823
887+1072233740+1069745857+1068046437+1064792135+1059577732+1057294170
876+1061285998+1066019276+1063644896+1054117630+1045473354+1044093971
864+1046291781+1046009626+1042787427+1039857157+1038551184+1033486312
853+1023253053+1014425002+1009371473+1005722796+1001516802+996248108+989921709
839+982845442+976604867+971998220+968266573+964223451+958619382+952010543
826+946742634+944079965+943939993+944622515+942801387+939391133+938968935
812+941029485+941580310+940211415+937565082+932876821+928316903+927064364
799+926635247+922521283+916132745+911144779+908667027+907963459+905275250
785+899168867+894652752+893774542+893590053+893098940+891630452+887668159
772+883370491+880669226+877335164+872309388+867658509+865712463+866055971
758+864889969+861428777+859655591+858986553+854378051+848009988+845383204
745+844449133+842587412+841794097+841567803+841321390+842257530+842065265
731+839999508+839031550+840237146+841901323+841094025+839361717+841491182
718+844749622+842835679+838665997+837841578+838002738+835268442+831449260
704+830610501+831724494+830752042+829955659+831061163+828692206+822412179
691+818449030+817639521+816237237+815369086+816848560+817888573+818723123
677+821381512+822261934+819517008+817964837+820359192+821594394+816964847
664+811221948+807652959+806708258+806096079+802129720+796193629+794776150
650+798281573+800071097+798764339+797965674+797657337+795812453+792404838
637+788669482+785044419+784399708+791591405+800449990+799954953+794605715
623+792618790+791575282+785353969+772458396+762283851+762709829+771133375
609+781316625+783865006+777207583+770027158+767231865+773785629
##END=
