##TITLE=Sample description
##JCAMP-DX=4.24
##DATA TYPE=INFRARED SPECTRUM
##DATE=25/8/2023
##SAMPLING PROCEDURE=Instrument type and / or accessory
##ORIGIN=Default
##XUNITS=1/CM
##YUNITS=ABSORBANCE
##RESOLUTION=4
##FIRSTX=4397.6552
##LASTX=599.8556
##DELTAX=-1.9287962
##MAXY=1.8345983
##MINY=0.11768501
##XFACTOR=1
##YFACTOR=1.7086028e-009
##NPOINTS=1970
##FIRSTY=0.12591061
##XYDATA=(X++(Y..Y))
4398+73692147+73968794+74117666+74246252+74394452+74574171+74713109+74584288
4382+74353733+74486557+74921277+75243528+75208738+74926676+74821619+75181162
4367+75703652+75944725+76053313+76251155+76410868+76465715+76341115+76004065
4351+75712121+75685259+75737770+75519485+75140643+74997030+74957479+74694769
4336+74388077+74262020+74217036+74261636+74563688+74937228+74935929+74527120
4321+74105316+73939569+73987327+74108517+74221623+74279506+74246662+74239275
4305+74384868+74558159+74672756+74829625+75065701+75195770+75005847+74735104
4290+74829407+75125634+75086057+74898515+75138933+75596433+75803310+75803031
4274+75780103+75768713+75724444+75619998+75579322+75729467+75729807+75303120
4259+74961831+75167888+75595003+75710324+75504049+75311388+75247260+75297024
4243+75490697+75640196+75559699+75542693+75827302+76034266+75807296+75429779
4228+75333827+75491464+75749814+76118060+76449354+76542968+76482844+76375773
4212+76279194+76417496+76705280+76909287+77204545+77550404+77699128+77803504
4197+77910793+77699145+77284886+77235235+77577021+77970620+78280862+78218391
4182+77732382+77351280+77210075+77151616+77347731+77658879+77722021+77650716
4166+77625712+77515258+77407088+77633317+78034966+78251567+78321145+78270946
4151+78011776+77726155+77666545+77765034+77842854+77949925+78168043+78283312
4135+78135121+77914499+77762889+77732713+77937924+78387252+78789049+78764883
4120+78570782+78724939+79070658+79190087+79046361+78819600+78700424+78780450
4104+78951945+79132204+79255575+79332174+79560366+79740451+79657015+79642633
4089+79718787+79623150+79515242+79666922+80015755+80200654+80098476+80001539
4074+80021197+80087583+80276102+80621132+80967340+81061355+80875793+80717641
4058+80771495+80820570+80668637+80553481+80716438+80873141+80602678+80188165
4043+80279390+80704010+80907180+80923803+81007091+81098036+80993503+80664538
4027+80272386+80105558+80191096+80196852+80221943+80497744+80701969+80637467
4012+80488342+80291687+79999978+79799093+79814608+79908117+79987838+80011316
3996+79993132+80055027+80108741+80066591+80136169+80224481+80065431+79991675
3981+80269186+80486703+80329092+80066922+80027563+80053806+80076995+80227716
3966+80185950+79807203+79629473+80039520+80718147+80991279+80489092+79436977
3950+78354652+77984697+78302569+78315433+78222551+78888437+79791052+79942871
3935+78852636+77303575+77148886+78156584+78393549+77815260+77718646+77787579
3919+77238584+77104068+78378034+79898349+80545894+80237815+78642698+75598474
3904+72891841+72507343+73973826+76454744+78250869+77913732+76554472+76765186
3888+77611296+77095198+75907921+75094752+75310803+77120010+77905830+76353159
3873+74134943+72766037+73305490+74708452+74888878+75329833+77176001+78045248
3858+76551629+72722710+68877918+71453846+76579048+79452545+79328075+77001863
3842+74041058+71351881+70543534+72638057+75111714+76961022+78494210+79147859
3827+78958835+78066249+75507633+72824966+73293054+75106743+77928662+81154472
3811+82523735+81364863+78977699+77600586+76445098+75492450+76789518+78802079
3796+81017321+83337681+84545767+84614865+84023590+83303930+83211763+83175867
3780+82514996+82836261+84514396+85401086+84603353+83077325+82684965+83422626
3765+84234304+84547546+83562768+82186039+82212901+82047772+79422064+75613998
3750+75647984+77652155+78568122+80198308+82438205+82965510+80869025+77563085
3734+78056717+82890176+87139180+88576469+87885126+87136258+87855247+89833507
3719+91977663+93029533+92031577+89099962+88091995+91818570+95761554+97321246
3703+97235184+97791731+99847697+101885628+102906555+102208567+99994650+99557593
3688+104024315+109295965+112641107+114210183+114109688+112673533+112070833
3674+115764319+119806394+122899911+129005801+136062858+141340726+145253081
3661+148413053+150840283+153465137+157286023+159642751+158731066+159143459
3647+167747256+177915281+185171190+190760922+196004646+200856961+204979934
3634+208421935+210701688+212369332+217721200+226051638+232474389+236118321
3620+238418186+242069654+246738316+251044052+256086350+261697117+266679885
3607+271930063+277251214+281233531+284010309+286745574+289919239+293408910
3593+297312648+300559536+301879795+302826435+306866574+312329289+316162316
3580+318352781+320027401+321766908+323692701+325497233+326096628+324626922
3566+323927163+326832004+330482477+333147030+335656798+337811541+338605280
3553+338858719+339656714+340349880+340578167+341715872+343805066+345292634
3539+346083303+346820772+347798250+348420390+348218440+347807634+348010491
3526+348997353+350117232+350987369+351819098+352660245+353156938+353276524
3512+353137228+352637675+352480866+352551753+351854890+351367511+352150261
3499+352923592+352969815+353118948+353563453+353760170+353460612+353262151
3485+353826312+354359146+354100020+353681086+353556930+352994339+351769666
3472+350976206+350590377+349691321+348856871+348628235+348400121+348130251
3458+348073877+348324491+348718447+348424122+347167599+345513770+344404914
3445+344448486+344835605+344704019+344267363+343821567+343412470+343142077
3431+342888811+342668094+342516763+342335849+342312127+342153540+341576821
3418+341112955+341027207+341183701+341433478+341693441+342320151+343344759
3404+343971782+344311771+344944969+345317646+345311750+345595784+346080302
3391+346364615+346681685+347301906+348240801+349577770+351051557+352245672
3377+352946895+353200719+353799416+355343775+357053944+358382156+359894631
3364+361583520+363152299+364656088+366032092+367640362+369809721+372226381
3350+374350565+375983812+377643397+379637181+381927626+384696206+387330025
3337+388963342+390237483+391913115+393717054+395317649+396157192+396353490
3323+397262000+399061997+400737874+401745528+402182323+402955410+404665613
3310+406785018+408843757+410382501+410792749+410636499+411134726+412390064
3296+413513152+413739137+413295156+412797765+412180579+411577313+411218660
3283+410569170+409459652+408548874+408102381+407784055+407698168+408286992
3269+409278041+409949019+410199564+410023708+409205096+408480255+408381461
3256+408248793+407834220+407504905+407361493+407059354+406095725+404705173
3242+403963587+404121686+404130826+403398345+402445914+401818856+401238544
3229+400105583+398754660+397773519+396730666+395501667+394754465+394346868
3215+393846059+393330703+392615769+391595277+390431722+389169129+388461033
3202+388717682+388667238+387618804+386609754+386019535+385750606+385796864
3188+385197016+383782742+382725412+382076690+381400723+380828434+380092081
3175+379207293+378650876+378360842+378059296+377519765+376521041+375162723
3161+373834755+372860730+372345060+372177333+372078713+372005559+371963453
3148+371530669+370685684+369948250+369292411+368333318+367223869+366362593
3134+365741640+365335264+365139699+364713683+363812324+362845555+362291651
3121+362077875+361775422+361070849+359819593+358429983+357545509+357127900
3107+356792585+356283927+355592645+355083324+354867072+354548257+353951375
3094+353392935+353189137+353082738+352628953+351876414+351098199+350468978
3080+349960354+349581991+349656575+350311123+351168457+351383628+350342833
3067+348338759+345965984+343787205+341937218+340004343+338065922+336404802
3053+334816208+333266302+332019581+331182619+330674031+330259143+329686331
3040+329015457+328381841+327467679+326058254+324801975+324162986+323635838
3026+323001942+322571950+322375338+322338499+322384094+322324615+322271136
3013+322740061+323868870+325159721+326431349+327891532+329499382+331291705
2999+333674526+337020732+341516888+347367943+354649703+362536997+369314668
2986+373651086+375160107+374305180+371969732+368645853+364745742+361052011
2972+358096204+355696917+353785950+352671164+352011977+351373755+351207145
2959+351746432+352405585+353075865+354136649+355354206+356428141+357307977
2945+357864672+357993502+357570975+356677918+355442919+353808869+351976185
2932+350304460+348700481+346767886+344440078+341884925+339118717+335842735
2918+331697034+326974928+322387443+318238079+314568384+311450710+308726015
2905+306182862+304013747+302473887+301363845+300342552+299376132+298713282
2891+298700409+299286931+299982399+300644586+301469687+302330021+303049246
2878+303883032+305017144+306181223+307087047+307772259+308348036+308585568
2864+308222485+307385942+306121953+304138181+301282249+297628846+293210832
2851+288029290+282444984+277297542+272868034+268655301+264467163+260486206
2837+256834442+253537058+250625693+248079069+245745471+243672812+241926259
2824+240323379+238851214+237699991+236873286+236185353+235578266+235022827
2810+234407229+233832690+233386423+232879509+232324977+231942515+231586775
2797+230920593+229840291+228556452+227364361+226096710+224486522+222812285
2783+221393965+220150139+218877132+217551380+216254354+215015849+213945803
2770+213149936+212438195+211582029+210721782+210087014+209636771+209227238
2756+208765029+208227800+207683454+207134660+206542504+205970355+205420881
2743+204792811+204048400+203318971+202854983+202647975+202377965+201893657
2729+201360456+200963657+200682187+200426218+200208012+200001074+199707430
2716+199332363+198953826+198575498+198203362+197950986+197806615+197577211
2702+197254420+196927948+196571633+196168292+195644354+194989161+194371539
2689+193908109+193565678+193113585+192446531+191828369+191341130+190766277
2675+190085426+189470263+188944476+188366362+187681360+187027440+186460890
2662+185868804+185298120+184836974+184386312+183951122+183612789+183260381
2648+182836336+182530604+182412413+182315311+182168480+181983101+181749022
2635+181512920+181352397+181284929+181195554+181039182+180989889+181133650
2621+181396596+181705032+181934157+182059202+182225429+182458758+182645654
2608+182728454+182818876+183025430+183187070+183213879+183305714+183495802
2594+183577992+183520606+183487918+183477453+183324412+183059548+182870558
2581+182759694+182591966+182322410+181951477+181490838+180955667+180343906
2567+179703138+179091202+178575706+178185116+177785543+177299351+176828350
2554+176411771+175993604+175609189+175365360+175203197+174930204+174559429
2540+174273546+174156193+174172362+174221131+174255650+174273843+174216980
2527+174168699+174252284+174348863+174387812+174447029+174537730+174682660
2513+174901930+175166062+175419641+175587281+175747909+176007837+176272126
2500+176430871+176506711+176583580+176691514+176764912+176717329+176574649
2486+176435981+176283202+176068677+175836064+175634132+175438165+175142200
2473+174727452+174298681+173876153+173424689+172996004+172630305+172278541
2459+171910766+171565858+171276748+170955475+170502109+170029731+169637117
2446+169268522+168953528+168679262+168342517+167980079+167636671+167251069
2432+166811466+166449795+166277271+166195919+166077258+165908798+165746426
2419+165646515+165554122+165427019+165311619+165174189+165037301+165019317
2405+165021323+164893173+164710812+164587371+164573469+164648437+164703748
2392+164677706+164609837+164514671+164296430+163854332+163091920+161925086
2378+160463421+158914735+157367079+155850104+154352490+152787565+151280149
2365+150238988+149827519+149784663+149926261+150477514+151639342+153339446
2351+155100756+155938153+155345335+153936800+152906296+152663758+152933803
2338+153423135+153802283+153936608+154087712+154577603+155210853+155682359
2324+156155086+156858002+157812543+158867972+159712486+160151950+160277414
2311+160357981+160633869+161096200+161550630+161857723+161998641+162061033
2297+162147112+162273605+162442657+162668747+162911913+163079344+163152829
2284+163197639+163226908+163204442+163088693+162963543+162954787+162951996
2270+162861731+162806700+162849626+162883848+162829497+162756291+162695242
2257+162589837+162489438+162440006+162353840+162226475+162172002+162179502
2243+162137536+162066771+162080115+162167083+162224347+162214562+162186741
2230+162208945+162298722+162395598+162422407+162401179+162428878+162528405
2216+162595960+162606443+162689643+162804607+162833527+162880848+163028604
2203+163175539+163241507+163307893+163442096+163579334+163699582+163787527
2189+163788295+163784667+163868565+163952028+163945243+163877914+163816342
2176+163781928+163731258+163654371+163566792+163468033+163408380+163442497
2162+163562903+163687634+163727438+163685646+163626428+163642842+163785242
2149+163938928+163965720+163937428+163999855+164130709+164229904+164273982
2135+164298645+164348444+164426778+164559550+164788658+164981624+165028161
2122+165038661+165072744+165110018+165177608+165263303+165335306+165418175
2108+165537953+165683877+165826818+165932084+166040280+166233159+166482046
2095+166698002+166894649+167198201+167603356+167902250+168059791+168297777
2081+168679960+169016408+169218811+169417429+169713795+170020382+170207522
2068+170264961+170320655+170540395+170863483+171118998+171314075+171498826
2054+171663466+171795366+171919592+172065097+172165148+172132792+172066022
2041+172208667+172560901+172848528+172951910+173001690+173109258+173254903
2027+173417677+173587340+173755870+173861031+173805930+173856548+174334176
2014+174913773+175217918+175394419+175678732+176053903+176390753+176648571
2000+176906528+177244599+177460467+177269245+177092762+177537720+178376914
1987+179274959+180090902+180692547+181165849+181627744+182130368+182694563
1973+183282672+183642372+183560636+183617010+184436111+185477533+186146122
1960+186526020+186718463+186828770+187022818+187220895+187234587+186984322
1946+186393596+185607515+185541198+186473570+187257664+187483701+187563396
1933+187711535+187881495+187939020+187633916+186813089+186211444+186295011
1919+186506205+187178352+188338053+188852345+188609476+188594266+189279599
1906+190056803+190500383+190772050+190924812+190850228+190782987+190975552
1892+190863798+190497069+191021147+192096652+192793602+193246148+193642965
1879+194031183+194404314+194551563+193916569+192105617+190652674+191878638
1865+194248221+195601567+196067701+196387335+196878377+197446462+197833162
1852+197847360+197356336+196348002+195296079+195874159+198258707+199964846
1838+200553078+201085475+201412470+200468359+199164706+199669021+201098383
1825+202612009+204558471+206089766+206899099+207486318+207724391+207229163
1811+206850382+207674907+208972769+209511254+208900522+208005774+208197886
1798+208922081+208672060+207601177+208224206+211277186+213621721+214386872
1784+214585612+214788678+215486657+216617071+216610600+214805771+213426871
1771+215411009+218980741+221890605+223191816+223377928+224348586+225829072
1757+227211914+228679719+228621286+226839935+226481927+229080146+232167296
1744+234403566+236289031+238811253+240889860+240826404+241316608+245658764
1730+250633019+255064132+258357383+260519050+261934650+261425102+259147127
1717+260421477+267225748+273659575+277824306+279807275+280682662+282404430
1703+284383631+285632794+288188314+293423561+302056802+310359262+315022168
1690+318255207+320524548+321557877+327330650+338603466+347636942+354300713
1676+360619681+367951850+374014064+379836793+389144361+397136728+400764735
1663+402649154+405014115+406085922+403937388+398520233+395034626+397955793
1649+398779813+399989765+407380121+415006336+419594728+421770402+422618457
1636+427991971+439453479+448745523+455911534+463647811+472195234+482233085
1622+494817124+505368900+512941950+522548657+533650257+541828143+547744293
1609+552914219+557455899+560491001+561984254+562559683+562056362+559906572
1595+556222923+551993847+547715827+543139226+538469448+533771482+528829356
1582+523545392+517464619+509486484+501904853+499020908+496444335+492239748
1568+490388819+491161557+491772603+490721901+486695298+485619967+493655871
1555+501038658+506877922+511895574+516906633+520917224+523185797+525148498
1541+531967787+553024420+572298290+584605830+599107812+616121237+629031346
1528+639135443+648180989+654882123+661273686+668556074+673465373+676964341
1514+679937103+679923707+675649245+667894235+666247244+675764366+682970216
1501+685954280+686843569+689903125+695788438+699562090+700534545+703901786
1487+713500121+724326687+733489238+741554934+747884821+750742602+749332689
1474+746735150+750985262+760550595+767816935+771760199+775940820+781329788
1460+784405112+784036796+787169122+794952737+800645275+803991655+806578589
1447+810937682+817384503+823240442+826886695+828934515+830716791+833519384
1433+837427762+841254997+845203703+849322019+851203717+850348894+848038180
1420+843527547+841082526+845020487+849196921+849931530+849675823+849454233
1406+846559125+842152031+840054395+837879034+833431194+829199153+827379411
1393+828678459+829671845+827047724+823369796+823685994+826147900+826244950
1379+824045170+821361117+818288863+816624917+817797821+819349646+819314064
1366+817191868+813123019+810904471+812807030+814803710+814470069+813039714
1352+812294500+811936161+811085664+810095767+809240595+807796844+805640182
1339+805080417+806958278+809119335+810324682+810853609+812278592+814133219
1325+814381043+814490651+815756489+816576427+817301686+819026262+820890169
1312+823745438+828183510+831612568+833471731+835370662+837680818+840822423
1298+844220573+846714364+848637366+849627891+849170758+848305609+847085191
1285+844601308+841856904+840812167+841239299+841255207+840534692+839626355
1271+838266258+836370885+834136081+832196544+830940683+829364926+827224382
1258+825594274+824658658+823673994+822539463+821808831+821574683+821519216
1244+821636080+822259755+823265560+824186524+825046510+826420840+828927050
1231+832180357+834832805+836165343+836754202+837424134+838500825+840133723
1217+842316967+844252388+845045255+845816772+848014807+850858565+853276655
1204+855123677+856663362+857948736+858559154+858824001+859446489+860869031
1190+863218467+865650581+868024367+870903498+873478989+875390200+877602747
1177+880465272+883456872+885855776+887736636+889647219+891708296+894838808
1163+899504959+903570180+905733470+907333157+909923231+913832446+917313971
1150+919924766+922937785+925027398+926245583+929164413+933301637+936442614
1136+938134468+939079433+940252826+942233597+944294186+947058963+952162083
1123+957259273+960349249+962815550+963369803+961793559+961020297+960403391
1109+960901409+965830383+971693369+974466868+975829965+976934983+978370432
1096+981168490+984013154+985350576+986115953+987653476+989587083+989895396
1082+989757182+994342051+1003483321+1009760113+1009369262+1007705665+1008953293
1069+1010496187+1011567855+1014674785+1019666343+1022648803+1021976429
1057+1021169748+1021890891+1023763658+1025709056+1025816572+1025349880
1045+1026511552+1030155711+1033750054+1033596560+1032926558+1034607876
1034+1034579759+1031837936+1030901762+1032754575+1034474337+1034985193
1022+1034783836+1034295935+1034446638+1035534423+1035498421+1033705959
1011+1033596420+1035439256+1035771083+1034513478+1033591746+1034031157
999+1035330275+1035489840+1033850592+1031897450+1031843239+1033812986
988+1035507003+1036709699+1038611281+1040359370+1041645022+1043975412
976+1045190457+1041468713+1036411432+1035636217+1039004226+1042777948
964+1043881431+1044201885+1046335453+1047879813+1047059457+1047192717
953+1050124385+1051499552+1048413903+1044784884+1045083988+1049203211
941+1053530768+1055120269+1054804908+1055943904+1059354822+1062123576
930+1062952165+1063576188+1063524628+1060565890+1057574081+1059182978
918+1063449626+1066127260+1067506335+1067919513+1065981929+1063194337
907+1061505623+1060552634+1060233506+1062168299+1067198719+1072586082
895+1073741823+1068565932+1061603999+1059507897+1062293536+1065186621
883+1065007242+1062255093+1059435825+1059359845+1062457775+1063837128
872+1059309890+1051587323+1044772255+1040335648+1038938852+1038669051
860+1036238263+1033115984+1030531771+1025360834+1018563767+1015155082
849+1014990704+1012865159+1006724349+999913956+995229805+991300914+985798081
835+979958468+974474961+968050396+962230528+957578750+953374129+951519362
822+953032953+956188792+957201504+954726900+951996798+950131915+946641738
808+942051079+939702759+938114165+934568381+930240964+925005909+918869075
795+915454390+916582083+917614261+915358038+913497201+912690799+909131061
781+903700022+900326640+898414871+895536648+892412206+890326989+888649647
768+885464296+881287582+877630097+873377125+869075662+866406958+864512911
754+861896813+858170186+854333950+852506393+853511919+854269413+852454833
741+850072675+848470266+847317037+846731527+846408910+845780840+845635510
727+846899115+849277715+851408632+850507063+846415120+843648249+845189121
714+848625644+850193656+850239844+849880319+848987960+849126802+849762477
700+847746542+843387170+839141523+834798966+829704358+825841609+824625657
687+824612261+824763871+825563645+826001034+824930552+824255317+825497224
673+825073860+819887085+816594148+824007215+831717223+831526263+827144634
660+822322059+820240540+821074780+821098642+817625768+814543607+815070859
646+816131433+816408909+816858367+814548002+806579984+797730283+795553667
633+800670950+806394187+806599381+801963510+796798225+795261958+793504730
619+784223710+776978509+780816141+784471114+780262236+779037702+786010381
606+787991710+785681694+790584086+792454272
##END=
