##TITLE=Sample description
##JCAMP-DX=4.24
##DATA TYPE=INFRARED SPECTRUM
##DATE=25/8/2023
##SAMPLING PROCEDURE=Instrument type and / or accessory
##ORIGIN=Default
##XUNITS=1/CM
##YUNITS=ABSORBANCE
##RESOLUTION=4
##FIRSTX=4397.6552
##LASTX=599.8556
##DELTAX=-1.9287962
##MAXY=1.8647604
##MINY=0.14466454
##XFACTOR=1
##YFACTOR=1.7366935e-009
##NPOINTS=1970
##FIRSTY=0.15882136
##XYDATA=(X++(Y..Y))
4398+91450428+91189779+90676872+90516851+90807625+91161730+91304599+91258257
4382+90911609+90377852+90230470+90604970+90834396+90532519+90348242+90733870
4367+91069184+91227986+91781623+92311922+92191919+91918837+92006767+92205476
4351+92292427+92280055+92022486+91502209+91060261+91002018+91234473+91347723
4336+91153338+90934664+90849660+90801628+90885242+91098339+91179482+91035352
4321+90861681+90759027+90578654+90302106+90036524+89924338+90158740+90696898
4305+91100467+90949525+90572914+90562429+90847515+91000774+90795004+90474105
4290+90483045+90758667+90944462+91085126+91310090+91479283+91540211+91579997
4274+91676885+91738121+91569212+91309944+91340078+91653701+91763810+91449415
4259+91068343+91042028+91278335+91349027+91311729+91428771+91534368+91468154
4243+91355385+91326264+91405914+91570602+91676310+91523488+91127418+90861809
4228+90959169+91106302+91135698+91169564+91167736+91111707+91140202+91378285
4212+91661509+91764583+91799822+91921677+92091042+92208839+92248866+92248583
4197+92236382+92247244+92268720+92283332+92411460+92633035+92704697+92622156
4182+92499459+92368714+92290617+92186599+92012816+91879248+91823426+91870059
4166+92016952+92102093+92050552+92125079+92456069+92736306+92740914+92530571
4151+92213944+91961979+91952549+92109935+92207484+92226660+92398461+92714496
4135+92771708+92546676+92486597+92633576+92661075+92609285+92685495+92761275
4120+92726156+92677532+92784458+93136675+93398946+93291153+93078236+93038243
4104+93240049+93591872+93745483+93661732+93717211+93814322+93710381+93706975
4089+93980563+94314281+94471856+94332342+94029170+93847570+93981060+94346671
4074+94677978+94909411+95025639+94936233+94808431+94774788+94741609+94879827
4058+95283594+95434450+95123419+94834498+94690848+94540480+94578465+94879698
4043+95219740+95476459+95636102+95670337+95631340+95526971+95298128+95036844
4027+94843189+94751690+94677394+94506160+94455442+94630426+94749271+94705752
4012+94656133+94653456+94587500+94461877+94327237+94146229+94025437+94068613
3996+94173051+94181914+94063516+94047600+94226557+94258347+94091805+94071152
3981+94180327+94168452+93978289+93806814+93898210+94056566+94039612+94071830
3966+94174964+94024390+93773351+93862783+94213807+94366560+93953715+93024326
3950+92120343+92042641+92638389+92742313+92492578+92941630+93623799+93551673
3935+92512835+91218007+91173768+92302973+92698734+92059921+91890591+92123166
3919+91776286+91623988+92514388+93580477+94118841+93957216+92518902+89637502
3904+87036666+86605777+87959182+90253474+91901763+91599500+90326448+90502359
3888+91205189+90546822+89487932+88959349+89138212+90756239+91792417+90745745
3873+88691853+87129383+87374133+88481175+88381654+88496551+90175754+91268716
3858+90234915+86822444+83298835+85786790+90304483+92687940+92684937+90866374
3842+88125355+85385177+84711537+86969629+89247833+90570778+91560632+91867159
3827+91497421+90688155+88589526+86455032+87063822+88657807+90959812+93763544
3811+95133732+94284619+92196149+90772996+89284684+87834229+88833186+90796677
3796+92858986+95114916+96505018+96800056+96439972+95792304+95424034+95211631
3780+94683770+94904315+96177538+96868269+96180386+94777010+94106314+94321068
3765+94917648+95311136+94356950+92773047+92448046+92163733+89828368+86413547
3750+86542516+88767668+89943240+91204245+92931686+93415926+91557817+88366904
3734+88427420+92297541+95592927+96581871+96033674+95625377+96273550+97595243
3719+98932886+99565375+98640181+95837805+94149833+96690436+100000948+101388983
3703+101128317+101257062+102625671+103692584+103706732+102535365+100289019
3690+99242159+102184160+106096470+108343811+108823521+107867010+105887800
3676+104260318+105972975+108404207+109967191+113912475+118971347+122519410
3663+124657980+126001071+126732807+127516676+129186639+129973039+128155017
3649+126888117+132294753+139463262+144448507+148096255+151304268+153982815
3636+155995402+157427161+157856531+157609627+160571835+166538483+170857922
3622+172502985+172590829+174000709+177252327+180262515+182993693+185777742
3609+188437944+191990143+196117472+199178249+201082417+202714249+204219197
3595+205907504+208422787+210496739+210936577+211513269+214558705+218086622
3582+220180326+221156889+221922773+222960942+224247816+225269099+224819240
3568+222284600+221017804+223820712+227401963+229547629+230705834+231342450
3555+231306122+231239213+231559889+231446923+230939010+231379791+232914135
3541+234496614+235465489+235664670+235838196+236399872+236581189+236026874
3528+235593128+235768439+236046660+236652765+237729613+238551870+238875240
3514+238812810+238323276+237675420+237451889+237649954+237830447+238099556
3501+238803870+239586864+239975529+240126112+240042918+239577837+239243605
3487+239398014+239501148+239162676+239003977+239552543+240150067+240256342
3474+240178210+239817345+238963238+238394303+238478612+238389670+237857629
3460+237473700+237367958+237426852+237504417+237217375+236487321+235487214
3447+234713710+234750794+235397397+236005321+236101453+235750008+235360433
3433+235141467+235005831+234975337+235169799+235250710+234969846+234747018
3420+234802378+235026304+235663829+236677853+237515434+237988735+238184981
3406+238335700+238927322+240058053+241378356+242632711+243704154+244548599
3393+245259657+246104806+247475508+249377891+251339117+253145213+254752385
3379+255923959+256799430+257879453+259405629+261255398+263073008+264621509
3366+265981384+267309237+268843804+270709824+272701304+274870616+277425282
3352+279811931+281391166+282658478+284534502+287187909+290172271+292818745
3339+294671071+296251679+298172887+300043746+301561067+302885540+304030720
3325+305072905+306321082+307759088+308841496+309397836+309877331+310702505
3312+311855340+313243065+315160635+317455939+319335962+320295124+320631262
3298+321048328+321599862+321838117+321641802+321378871+321474763+321693730
3285+321591076+321175143+320430005+319628649+319500736+319868174+319991179
3271+320054089+320350381+320426710+319914678+319025977+318467200+318806221
3258+319446578+319663039+320019288+320760926+320982535+320436011+319850499
3244+319759926+319870851+319646153+319353328+319189790+318569099+317321505
3231+315896095+314596436+313666927+313313869+313020221+312324161+311883551
3217+311982052+311763326+310877884+310167033+310233100+310660428+310834537
3204+310475336+309733218+308984373+308461634+308063376+307538749+306971873
3190+306417832+305922309+305665659+305331821+304668229+303896080+303308715
3177+303132340+303033428+302663244+302244840+301880010+301661249+301727111
3163+301688775+301202655+300580763+300162496+299852991+299639001+299592840
3150+299402394+298901311+298352316+297921899+297665729+297548009+297278556
3136+296725168+296315996+296415629+296558507+296254905+295832211+295589288
3123+295215021+294529120+293896142+293518580+293128352+292564359+291839745
3109+291088429+290615112+290404554+290153841+289751292+289297709+288983606
3096+288860772+288738178+288442916+287966166+287453466+287075937+286850604
3082+286676152+286594211+286936818+287687430+288427952+289363948+290630007
3069+291129683+290005644+287861746+285508028+283165035+280856620+278630970
3055+276736173+275310162+274183429+273239848+272419032+271887524+271861303
3042+271958259+271786295+271566333+271346938+270810418+270182108+269904590
3028+269786287+269579744+269268472+268790779+268423100+268599509+269291896
3015+270230569+271274486+272536581+274234635+276169623+278107030+280262253
3001+282719243+285631908+289537714+294722655+301194178+308892359+317380811
2988+325497534+331687970+334895898+334959494+332756307+329719915+326627168
2974+323535828+320770844+318842944+317579254+316459298+315495057+314947640
2961+314918227+315458059+316275511+316896442+317459097+318434939+319879843
2947+321427950+322489628+322690542+322275226+321581741+320661430+319534473
2934+318160373+316540089+314940090+313521029+311872397+309419492+306172645
2920+302562787+298744465+294427565+289741099+285635649+282453205+279471160
2907+276499462+274003279+271927679+270066979+268585849+267558080+266965600
2893+266829416+267009651+267364253+267956750+268849879+269921579+270854881
2880+271450638+271939777+272530197+273137812+273696177+274211383+274590850
2866+274547537+273931566+272885263+271397441+269322613+266663132+263326278
2853+259256608+254757482+250092055+245365880+240804959+236738772+233285331
2839+230154729+227147372+224407322+222026233+219820610+217681980+215830649
2826+214234167+212699274+211425408+210562773+209943471+209395746+208975695
2812+208679764+208254289+207715436+207299091+206992126+206668945+206363953
2799+206115986+205730340+205022629+204056826+203065522+202171397+201212784
2785+200136657+199099123+198085099+197058530+196132814+195302903+194515808
2772+193754522+192914281+192089004+191535788+191218853+190894847+190519001
2758+190298713+190232457+190030496+189639737+189173404+188654920+188188827
2745+187768552+187263573+186748024+186289018+185936836+185745720+185517745
2731+185196760+184943902+184729260+184498555+184281511+184063282+183850923
2718+183688894+183573302+183483399+183405593+183277869+183069164+182873948
2704+182813835+182872815+182860151+182636328+182351225+182182110+181994753
2691+181642021+181239112+180886518+180529514+180168288+179868890+179575173
2677+179170446+178693181+178243579+177812630+177395668+176978550+176520848
2664+176102633+175772416+175483435+175240375+175009448+174693371+174294992
2650+173893697+173552291+173354535+173279338+173186724+173046609+172914268
2637+172839518+172829616+172800049+172720785+172689828+172747641+172829084
2623+172881835+172944419+173102878+173267360+173309918+173366204+173554900
2610+173792056+174055897+174380966+174658089+174840006+175061341+175354903
2596+175629590+175809757+175894563+175970378+176078419+176127635+176035896
2583+175908532+175870573+175933397+176032447+175963754+175616187+175168490
2569+174826861+174545328+174158791+173694516+173270037+172917803+172626592
2556+172315405+171941412+171618814+171429621+171326744+171184416+170896894
2542+170624524+170570126+170618861+170612563+170559744+170537641+170616510
2529+170789761+170936037+170895418+170733046+170733081+170937959+171128593
2515+171293625+171556882+171861067+172109378+172333303+172588993+172802691
2502+172938705+173136581+173451028+173765011+173909879+173877463+173897078
2488+174065970+174177753+174071341+173909313+173851174+173768769+173600100
2475+173484920+173446240+173351703+173158117+172950906+172781927+172599101
2461+172349983+172077854+171827244+171587239+171339872+171080819+170838274
2448+170614125+170386733+170184583+169992027+169779822+169621002+169483719
2434+169266383+169026875+168806330+168619385+168522549+168479339+168429402
2421+168353880+168270497+168210282+168160619+168134107+168183220+168275783
2407+168349778+168439596+168501699+168453719+168421303+168502437+168592066
2394+168586797+168513488+168487525+168515359+168416035+168012440+167262188
2380+166240441+164973490+163417335+161760638+160254042+158867827+157508673
2367+156168052+155068398+154470290+154315469+154538434+155248479+156630216
2353+158719166+160848220+161829159+161150295+159585113+158596727+158574075
2340+158977859+159466604+159819919+160036655+160350981+160762110+161158051
2326+161678285+162398747+163263681+164315699+165522314+166587682+167240789
2313+167565617+167833354+168205116+168670832+169117894+169497997+169803314
2299+170004554+170180225+170382185+170544299+170718975+170987964+171233992
2286+171372785+171474564+171516641+171469639+171448583+171517224+171585248
2272+171564021+171519129+171522493+171556024+171645327+171779366+171871140
2259+171887116+171844164+171811662+171842482+171850599+171811336+171866043
2245+172023078+172137418+172156517+172101467+172014944+172001834+172112998
2232+172278287+172396351+172406510+172375432+172441637+172636905+172851753
2218+172948486+172958971+173050728+173192386+173210731+173183532+173287592
2205+173497532+173709223+173854983+173961858+174106760+174267776+174386766
2191+174459355+174520669+174603416+174698965+174788697+174901355+175043889
2178+175152274+175198761+175177208+175086755+174993420+174973703+175072907
2164+175252061+175399332+175462173+175465811+175484910+175588079+175741887
2151+175901873+176080839+176224918+176279934+176312607+176397637+176519579
2137+176615522+176701890+176856368+177025535+177103890+177145521+177265832
2124+177462833+177614411+177622974+177595432+177707660+177895103+177999456
2110+178084931+178234587+178347897+178423197+178575272+178752831+178878136
2097+179034793+179272258+179512177+179721671+179959171+180230717+180508835
2083+180848045+181216341+181459469+181605075+181813350+182104768+182426113
2070+182705141+182812239+182845564+183083630+183481151+183820961+184034127
2056+184173881+184346103+184524622+184649035+184739316+184787485+184812402
2043+184901052+185156759+185490648+185677577+185776935+185994838+186271360
2029+186447872+186571203+186753910+186976823+187104600+187069712+187124712
2016+187539409+188072359+188406764+188646065+188957972+189309434+189644885
2002+189957461+190263362+190613760+190880192+190788539+190652972+191103037
1989+191957452+192758962+193416222+193967671+194468068+194944045+195425343
1975+195973531+196583840+196978717+196985238+197123088+197867454+198808289
1962+199518540+200003132+200238418+200352637+200624595+200996924+201190235
1948+201060846+200590051+199980429+200029713+200950127+201735198+202018704
1935+202133799+202277534+202495317+202722726+202621754+201960960+201473159
1921+201609721+201823848+202413221+203466972+204013736+203860425+203787459
1908+204314300+205051321+205606357+206052835+206396215+206410475+206241291
1894+206338281+206410492+206377561+207014555+207994618+208588488+208977702
1881+209374828+209773361+210133471+210347101+209922742+208409934+207156883
1867+208294891+210435013+211648596+212136294+212560327+213082208+213587290
1854+213935783+214013502+213678978+212836626+211840208+212254906+214398461
1840+216034532+216677360+217286399+217749901+217016946+215816046+216164985
1827+217399983+218748978+220486261+221865715+222576910+223060593+223320401
1813+223063012+222909839+223693021+224843230+225376386+224927676+224186914
1800+224333447+224986210+224871991+224035440+224633496+227305917+229330653
1786+230032101+230285079+230498743+231096130+231997908+231850878+230225996
1773+229098782+230847836+233869231+236224630+237121552+237106451+237862983
1759+239052472+240086814+241157725+240899478+239093434+238444377+240366580
1746+242772929+244525450+245957758+247676045+248876756+248354669+248375141
1732+251929125+256204806+259929844+262571204+264153838+265038610+264367725
1719+262326360+263317012+268912068+274110514+277289852+278492555+278588756
1705+279426371+280802205+281624221+283230725+287108594+294025497+300571771
1692+303893403+305875942+307067250+307167638+310721347+318905099+325868747
1678+331147830+335952462+341338145+345920413+350804429+358972977+365917543
1665+368986609+370805746+373238333+374176835+372083577+367221938+363909092
1651+366097452+366696178+367756827+374557555+382061309+387175549+390215133
1638+392393129+399707227+412464392+422476033+430880192+440581986+451190396
1624+462998901+477126597+488882488+497565126+508100845+519301289+527316217
1611+533086738+537716987+541409524+543940543+545420214+546156463+545729753
1597+543542902+540232218+536998722+533944517+530510039+526515239+522161547
1584+517833665+513535092+508639784+502226710+496336820+494354487+492439183
1570+489104749+487936333+489077018+490014558+489553047+486407652+485466302
1557+493062379+500503533+506562898+512259218+518424943+523501361+526553747
1543+529205129+536805805+557354023+575253056+586688392+600345790+616678767
1530+629751889+640699800+650767521+658753071+667398951+677089007+683915750
1516+689294912+693693804+695090041+693021048+688377037+688299747+695940029
1503+701741954+704813594+705888040+707577994+712144715+716161137+717921449
1489+720979291+729022911+737988044+745065122+751386320+756927614+759320251
1476+757910903+756363037+760656290+768773150+774549953+777243240+780521697
1462+785582911+789473101+790349310+792639672+800073549+807059952+811002378
1449+812542008+815258565+820227250+824843736+827912905+829809539+831265700
1435+834530085+838838645+841256200+843729079+847992405+850386690+849631701
1422+847781538+845448275+844169552+846013332+848496851+849263371+849438613
1408+849704873+847637734+843176858+839232716+835454343+831490707+828846086
1395+828162691+829819355+831115101+828379461+822615770+819906489+821413994
1381+823349891+822941680+820286145+817587366+817040087+817794801+817581463
1368+816578198+815258428+812646961+810403893+810578174+811618230+812388869
1354+812603373+812446116+812681556+813187170+812781086+810915684+808270857
1341+806763627+807937054+809260119+808934964+809419848+812021430+814812875
1327+815894185+816009229+817127742+819112169+820583431+821961822+823513395
1314+824369972+825576073+828954197+833826921+837896678+840781406+843834993
1300+847089837+850165046+852740613+853551201+852799233+852337070+852894165
1287+853521479+852970906+851667266+850825378+850020624+848720760+847631007
1273+846984953+846667760+846296272+845177965+843966236+842966747+840904000
1260+838024488+835874155+834655493+833823215+833115383+832260728+831315053
1246+830466301+829501956+828850342+829081321+829309966+828916513+829017141
1233+830397934+832613202+834710132+835786088+836275433+837355096+839059602
1219+840486042+841381745+842419880+843680344+844800230+846030149+847363580
1205+848135110+848302870+848807797+850171910+852052963+854290608+856727176
1192+858575624+859742941+860939569+862255084+863874338+866382156+869260158
1178+871342124+872801649+874601429+877111719+880282957+883973263+888191834
1165+892399559+895554736+897693812+899695810+902039369+905030767+908904826
1151+912577079+914740660+916037230+918446548+923165515+927787698+928746620
1138+928178131+930107439+932793382+934883104+938595375+941824341+942669524
1124+944953297+949829934+953351999+953476309+953218491+954684674+956128961
1111+957803745+961610261+965141456+966031942+967027862+969454340+971282401
1097+971886104+972387255+974582343+978334151+980651215+980729466+980777858
1084+981606224+983794447+989667691+997921217+1001950268+999392205+996268672
1070+998082868+1002785979+1004546360+1002497685+1001334554+1005554086
1059+1014750334+1021870177+1020607104+1014542762+1012082032+1016101062
1047+1021084506+1019532040+1015057780+1017527433+1024745570+1028199612
1036+1027608128+1026318971+1024954240+1022395216+1021850065+1027042453
1024+1031027231+1028480836+1027392662+1031010414+1033159511+1033244215
1013+1032947478+1030506036+1028566226+1029398299+1030450711+1030795291
1001+1030722325+1030744153+1032526362+1034991485+1036392047+1037838529
989+1038068685+1036122354+1035799121+1037954534+1040384032+1041783495
978+1040711452+1038316275+1037430044+1039032892+1041990449+1043895252
966+1044278409+1045055500+1046713467+1047993151+1049078923+1050554510
955+1051170910+1051387543+1053672002+1056046175+1055315074+1054539493
943+1056196912+1057971226+1058078925+1056530509+1054724894+1054451769
932+1056091341+1057874716+1058361522+1058596070+1059827499+1062695617
920+1065964669+1067535462+1067136929+1065035126+1062159801+1059576614
908+1059214462+1062655050+1066377548+1067416095+1069299481+1073091513
897+1073741823+1070979551+1068731198+1065841801+1062516188+1062902090
885+1065860815+1068224966+1069160962+1066429235+1062218627+1060544803
874+1058539304+1054396033+1050317696+1046764399+1043688298+1041859138
862+1041739221+1040625513+1035044957+1028993726+1027173009+1026329611
851+1023847670+1020838975+1017373745+1013365217+1008288421+1001925146+994608028
837+987083269+981727994+979032167+976615505+972184900+965990552+961447444
824+959235196+955672083+950414279+947929250+950908704+953763780+949369692
810+943846383+944236542+944391878+940160128+937036526+937602132+938002656
797+935243953+931265764+929095457+929196017+928559641+923121447+914464927
783+908176471+905316041+903115394+901044479+899393650+896327365+892631293
770+891146852+890268309+888255876+887275470+886733476+883681331+879581647
756+877241451+874879359+869001791+861059005+856443069+857414346+860222540
743+859847620+856736923+855176701+856600601+858935649+859954426+859795315
729+860647705+862169145+861099367+857869989+855723088+855058569+855099068
716+855785208+854977572+850741498+846580448+845485136+845454178+845386017
702+844693218+842529637+842140714+845163962+847104801+845451776+842123485
689+839495339+838662580+838106034+838109260+838224441+835319188+831294873
675+827675611+824655658+823715064+823941100+825597763+827922995+830516615
662+833846690+834342007+831994193+831563055+831559760+828125831+826641801
648+829811255+829638347+825118234+825640939+831158208+828284942+809285379
635+779288209+763562778+781588180+807038879+814302663+815511989+811243653
621+803807374+802820514+800422523+789426082+780047315+789268481+811973999
608+823034895+825867456+835523809+839011896+832692826
##END=
