##TITLE=Sample description
##JCAMP-DX=4.24
##DATA TYPE=INFRARED SPECTRUM
##DATE=25/8/2023
##SAMPLING PROCEDURE=Instrument type and / or accessory
##ORIGIN=Default
##XUNITS=1/CM
##YUNITS=ABSORBANCE
##RESOLUTION=4
##FIRSTX=4397.6552
##LASTX=599.8556
##DELTAX=-1.9287962
##MAXY=1.8212109
##MINY=0.31469485
##XFACTOR=1
##YFACTOR=1.6961348e-009
##NPOINTS=1970
##FIRSTY=0.508578
##XYDATA=(X++(Y..Y))
4398+299845275+299494177+299186127+298348179+297760824+298253297+298866093
4384+298610088+298051304+297931823+298207929+298574947+298777432+298357597
4371+297316601+296767727+297188019+297630485+297676063+297405404+296990559
4357+297314352+297962712+297670265+297180920+297486018+297960498+297753269
4344+296980508+296520893+296630113+296588014+296072523+295666429+295791497
4330+295977606+295837462+295890069+296198400+295945593+295455615+295673809
4317+296016332+295508749+294463326+294047708+294849355+295906761+295876891
4303+294960929+294566519+294961070+295162711+295121069+295154418+294912785
4290+294700390+294905019+294717223+293949400+293736952+294278394+294729118
4276+294850971+294725956+294170088+293436370+293010280+292686205+292508055
4263+292956988+293338307+292951066+292566917+292727514+293102508+293404496
4249+293541987+293648536+293858296+294044124+293963158+293481351+292841811
4236+292276895+291737210+291466094+291709729+292065923+292076993+291902621
4222+291931507+292045172+291924496+291727722+291533846+291202199+291029725
4209+291392894+291976154+291962801+291476320+291498635+291869359+291671741
4195+290983338+290543367+290579194+290775511+290910701+290894852+290751598
4182+290631150+290397723+290022641+290011220+290334521+290215690+289736220
4168+289768709+290047820+289555523+288702359+288628773+288998021+288875870
4155+288498205+288363384+288298355+288164712+288032264+288006294+288140148
4141+288232535+288202085+288029699+287749516+287693500+287744877+287556273
4128+287410067+287639435+288088736+288341140+288154293+287952229+288149935
4114+288197376+287650997+287061675+286923217+287077664+287144538+286974278
4101+286735843+286541915+286315551+286152846+286243915+286430745+286399082
4087+286142181+286004110+286075869+286019467+285930805+286060512+286198390
4074+286441217+286784531+286583188+285847766+285229311+284922386+284751018
4060+284504765+284266470+284377271+284768607+284893868+284482872+283997234
4047+283878632+284011941+284209910+284223774+283827062+283331936+283157512
4033+283335380+283783082+284032973+283444354+282581121+282307721+282437885
4020+282877645+283335239+283189332+282853907+282713605+282389882+281953636
4006+281952423+282367795+282683840+282729120+282660875+282722812+282741243
3993+282168631+281485323+281453924+281518198+281091282+280651030+280668671
3979+280855817+280817337+280796691+281015025+280993097+280683782+280662363
3966+280737864+280366630+279903782+279811887+279804771+279627517+279259692
3952+278710905+278148185+277935122+278093276+278001223+277744972+278047663
3939+278620064+278598716+277572181+276352826+276428309+277310219+277345677
3925+276826603+277021462+277145582+276246083+275613924+276528076+278118982
3912+279170819+279111096+277502724+274537910+272128700+271905446+273114822
3898+274889026+275917159+275136264+273659110+273837576+274465712+273888584
3885+273287999+272898614+272606553+273846660+274921215+274012229+272025683
3871+270438009+270679554+271718704+271329811+271307883+272919400+273557270
3858+271894130+267835398+264231852+267852582+272878056+274904453+274459017
3844+272531596+269958434+267230666+266385532+268983645+271728456+272864140
3831+273136680+272809478+272424327+272083596+270079812+267413156+267767223
3817+269405694+271587187+274150458+275083165+273519809+270874659+269520905
3804+268326517+267372110+268956112+270834018+272453231+274533869+275804830
3790+275614170+274537541+273522533+273227784+273034840+272569778+273362200
3777+275290886+276071307+274788644+272590687+271839925+272415630+272896295
3763+272834955+271739245+270482358+270443948+270077546+267176777+262644671
3750+261947078+263909658+264899610+266397286+268606805+269255253+267288860
3736+263804919+263834807+268330031+272266911+273288473+272008288+270742686
3723+271070626+272548693+274444012+275730980+275121979+272560641+272471891
3709+278346523+285908648+292744347+300158385+310781366+323322368+334787127
3696+344441328+350617087+351494218+348612970+346294407+344454576+340826783
3682+335161524+328047171+319958171+311698945+307728909+306744456+303671441
3669+301520222+302064106+301647575+299410470+296632924+293982521+291277279
3655+289330161+287379142+282796609+277525250+278704738+282685298+284467603
3642+283492708+280972978+278337562+275552901+272133374+268018924+262369320
3628+257969715+257888504+257562496+254693407+249870453+245838990+243942933
3615+242232124+240541258+239141556+237460494+236283291+235680404+234169146
3601+231694361+229543195+227797771+226050714+224771899+223430567+220588432
3588+217316604+216826715+217948570+218248257+217281603+215881989+214981085
3574+214530449+213573582+210887703+206047618+202432898+203249901+205143832
3561+205678826+205284433+204663853+203828576+202911876+202248563+201159301
3547+199371233+198361549+198577827+198621227+197966946+197351461+197223423
3534+196953203+195794835+194040573+192848435+192449597+192164055+192131953
3520+192607276+192986927+192829529+192223251+191371773+190697567+190314068
3507+189752806+189082290+189062031+189709776+190153595+190063176+189881125
3493+189845474+189499524+188720860+188030436+187737725+187821133+188158069
3480+188496833+188558577+188327223+187981765+187643159+187398171+187232426
3466+187065135+186729815+186217646+185926042+185999330+186238169+186465077
3453+186532707+186315480+185803012+185536464+185759560+185949780+186285768
3439+186956636+187320947+187214679+187151407+187471476+187946079+188182756
3426+188329560+188648767+188998987+189389795+190056710+190927620+191771964
3412+192434662+192816544+193063571+193737250+195095555+196490179+197233860
3399+197468042+198106088+199608052+201268327+202632185+203942276+205338077
3385+206918564+208862536+211065993+213191331+215405541+218054293+220850306
3372+223559255+226397156+229250045+231786309+234486789+238149548+242450528
3358+246491971+250222536+254327690+258957067+263456755+267648779+271925002
3345+276458549+281030944+285248621+289335942+293308982+296433989+299013547
3331+301945012+305203187+308217902+310539347+312333459+314001483+315503640
3318+317028392+318817409+320231220+320959632+321777057+322987786+323991566
3304+324469244+324421873+323785743+322772544+321298958+319245080+316965559
3291+314066987+310551436+307397666+304369210+301032142+298045119+295608762
3277+293158032+290657102+288757074+287476783+286291391+285127366+283861553
3264+282372662+280995328+279796021+278520509+277165068+275954181+275025955
3250+274201887+273154637+271818734+270780638+270610202+270621184+269874042
3237+268544271+267054168+265760031+265046976+264484801+263633675+262872809
3223+262469754+262305855+262093126+261583329+260815137+259924301+259174066
3210+258894920+259005229+258898082+258133018+257219252+256949506+257095607
3196+256968412+256549895+256054840+255533675+255145485+255057965+255098606
3183+254838875+254367822+254240662+254370229+254317974+254233529+254288103
3169+254264031+254041481+253814326+253820546+253976153+254062864+253968949
3156+253764759+253820792+254243228+254613689+254711874+254771087+254996713
3142+255286542+255290109+254891851+254580357+254685623+254969549+255184808
3129+255215574+255164180+255295222+255726056+256327415+256648028+256498026
3115+256278041+256264845+256492544+256995489+257458232+257364509+256858578
3102+256630229+256798960+256934571+257000391+257252215+257517884+257369253
3088+256989023+256886937+256950859+256884178+256780195+256772622+256774783
3075+256628823+256318085+255927751+255620298+255519161+255606242+255750761
3061+255620984+255227487+255013194+254969197+254799095+254534462+254285064
3047+254089730+254091821+254226676+254178409+253949392+253715526+253495892
3034+253324735+253317198+253601562+254107265+254495122+254483665+254129404
3020+253752530+253706934+253971250+254067679+253908786+253910069+254053885
3007+254162227+254446117+254896665+255337339+255816581+256236381+256614046
2993+257179033+257894003+258705982+259573466+260309890+260989298+261796444
2980+262456313+262696645+262823980+262993362+262916947+262589780+262274878
2966+262053680+261878658+261712263+261546307+261439600+261441094+261553406
2953+261682199+261613867+261421590+261462565+261697644+261785041+261793633
2939+261927821+262003129+261845168+261558572+261355876+261375924+261384077
2926+261118548+260892571+260807862+260383793+259723678+259196556+258731617
2912+258553151+258866947+259309220+259589157+259681596+259565454+259432847
2899+259622594+260014105+260243649+260282831+260306113+260439035+260655173
2885+260873928+260990088+260864774+260673183+260682794+260786057+260855901
2872+260874649+260786461+260702895+260705759+260768469+260929329+261053536
2858+261007044+260893906+260752251+260554545+260284342+259898946+259608853
2845+259678258+260055466+260610244+261085480+261253315+261361446+261726003
2831+262251280+262659659+262915102+263104444+263258258+263511980+263808064
2818+263905248+263897587+264062119+264443597+264918745+265437626+265891390
2804+266030691+265952027+266101677+266480853+266716160+266758664+266726527
2791+266713981+266911880+267337725+267689420+267854708+268106989+268391634
2777+268410734+268335180+268466029+268753451+268932742+268945675+269064277
2764+269390038+269705784+269875271+269983841+270118239+270219535+270261880
2750+270315524+270438027+270730597+271152470+271383437+271305845+271306565
2737+271682263+272083490+272209894+272393139+272819370+273186141+273327164
2723+273362885+273454745+273724473+274095198+274435174+274789822+275083341
2710+275239298+275463220+275814669+276056372+276126251+276300377+276672279
2696+276887731+276744055+276564711+276683419+276990924+277262814+277500423
2683+277685284+277756358+277834706+277970264+278097845+278229942+278319974
2669+278368241+278454372+278548393+278643785+278827135+279082877+279241278
2656+279267247+279335193+279553351+279794931+279869642+279868131+279927133
2642+280020522+280155096+280260819+280340942+280529054+280738216+280931722
2629+281253917+281520728+281539019+281618597+281887833+282066176+282109119
2615+282168596+282351208+282732212+283206833+283503936+283547599+283591104
2602+283755233+283867580+284000186+284385477+284806401+284971584+285006919
2588+285042921+285066729+285095370+285125644+285130827+285131161+285239274
2575+285426068+285536975+285672269+285843777+285772299+285513535+285384162
2561+285375412+285359739+285462036+285752286+285962134+285922213+285859292
2548+285908086+285897561+285799411+285844884+286079752+286267653+286374694
2534+286564827+286778628+286834397+286785586+286900305+287206563+287442678
2521+287527439+287598074+287690654+287700300+287711071+287944199+288335746
2507+288620620+288661120+288624345+288764665+289061944+289380519+289628635
2494+289754582+289835513+289946103+290097896+290331306+290603652+290825078
2480+290997553+291187053+291451229+291617501+291450192+291117420+290975027
2467+291079274+291189320+291199616+291206047+291184505+291153177+291258917
2453+291443849+291545566+291650252+291870185+292053184+292074990+292046631
2440+292153197+292379367+292468609+292346088+292230455+292256320+292399328
2426+292618329+292828616+293023458+293308841+293597335+293740818+293844134
2413+294018751+294221113+294455876+294732351+294955763+295087122+295152520
2399+295192581+295279908+295455053+295763490+296174504+296537269+296786246
2386+296885486+296682720+295971000+294665864+292981200+291232790+289407173
2372+287281133+285101203+283342145+281784623+280194911+279086673+278831598
2359+279340236+280627801+282805289+285822025+288896814+290411639+289561796
2345+287428428+286021610+285865266+286288703+286969393+287823893+288577167
2332+289209063+290108158+291174543+292014494+292766890+293908091+295500350
2318+297085933+298362446+299396483+300270381+301021916+301783783+302587292
2305+303283445+303854634+304399818+304880659+305239559+305576003+305964492
2291+306333372+306658430+307006893+307386807+307723849+307954552+308090304
2278+308171937+308261970+308405523+308568614+308806346+309211632+309626056
2264+309810408+309836623+309955331+310180623+310430725+310758700+311125823
2251+311409168+311603922+311812346+312089718+312334900+312460952+312515000
2237+312607140+312811277+313076630+313338258+313634536+313967150+314211734
2224+314364565+314526742+314643799+314752702+314966538+315166633+315273990
2210+315384826+315572939+315816785+316033397+316210756+316392297+316557989
2197+316737491+317040094+317348672+317456556+317519178+317766503+318102948
2183+318300548+318359586+318510343+318785781+319002991+319110805+319215034
2170+319455507+319786961+319997810+320102005+320291487+320573006+320809191
2156+320922382+320950495+321016561+321201124+321485699+321770275+321948337
2143+322064374+322211406+322412239+322673937+322951098+323174422+323314461
2129+323437386+323611898+323791963+324010543+324290163+324499079+324657778
2116+324894842+325150180+325360923+325652879+326058306+326352967+326430524
2102+326536897+326824635+327111987+327365322+327734623+328114538+328408777
2089+328786477+329282956+329810605+330361236+330850757+331252002+331695241
2075+332241163+332832489+333430983+333988221+334376815+334775811+335554370
2062+336544691+337416586+338216089+339027541+339793765+340462683+341083913
2048+341796055+342662432+343516264+344221272+344888327+345599485+346296551
2035+346854035+347259216+347645210+347974380+348217312+348465833+348619436
2021+348515944+348195911+347953927+348001438+348109955+348105773+348095231
2008+348055697+347954841+347930101+348023437+348142848+348229155+348203115
1994+347920754+347632383+347894538+348609210+349334213+349951227+350507059
1981+351018614+351449940+351874976+352440753+353119475+353592585+353695514
1967+353929064+354794739+356033229+357224876+358191758+358897011+359539678
1954+360368630+361449863+362600148+363448603+363756969+363752717+364359997
1940+365832670+367081246+367723210+368130640+368493756+368862952+369166153
1927+369105358+368525489+368078806+368130323+368136684+368427480+369240231
1913+369621305+369295403+369102477+369576570+370162659+370470674+370833474
1900+371248319+371205201+370837973+370778829+370789548+370759256+371482783
1886+372656789+373496178+374111680+374703392+375300410+375853291+376161376
1873+375649962+373878868+372371967+373495159+375791372+377139257+377601543
1859+377765829+377912721+378129543+378292389+378189495+377584886+376351210
1846+374955567+375014816+376806362+378055325+378234581+378371879+378453056
1832+377429420+375904422+375830941+376649456+377543700+378816489+379785374
1819+380057052+380104599+379977246+379329765+378838909+379416213+380355684
1805+380537506+379700999+378756326+378970935+379742677+379518158+378259953
1792+378325457+380750253+382747166+383346925+383253554+382820471+382646731
1778+383059608+382685668+380724740+379208737+380823944+383804221+386056437
1765+386720821+386220758+386379000+387117849+387577183+387881227+386980200
1751+384572940+383242836+384471487+386104686+386959572+387297281+387699405
1738+387659098+385877496+384130087+386166886+389483431+392061795+393333072
1724+393469737+392943529+390848607+386775852+384963256+388556962+392479275
1711+394045460+393244867+391144603+389626211+388674299+386594277+384520509
1697+385241049+389052070+392799309+393665651+392530336+390257562+386489660
1684+384593638+387987143+390975502+391697343+390952274+390159939+389113286
1670+387829393+389301609+391733574+391884612+391393405+392462478+392848472
1657+390423992+385260483+382562989+385776465+386266301+385875142+389980613
1643+394571668+396305618+395431790+393042804+394038642+400514404+405492016
1630+408061067+410145166+412368601+414909328+418780687+421898261+422970567
1616+425697579+430970801+434464916+436005377+437392867+439298869+440888282
1603+442042749+443424195+444732370+445391027+446008989+447195540+448532813
1589+449853535+451173940+452314772+453556038+454778926+454676875+453091679
1576+453933422+457700903+459204957+459277067+461615204+465108440+467239453
1562+466609929+462355634+461306346+469174728+475840957+480541513+483870780
1549+486799082+488557701+487718663+484911529+484508843+494424110+504551561
1535+509637830+514889123+521940713+526902405+530007539+533291684+536282187
1522+541086656+549639173+558465722+567820624+576568913+582095645+583659124
1508+583275801+592452254+608277786+617897057+623979199+629650679+638141557
1495+648615116+656130820+660648043+666993957+678012771+688905006+697202747
1481+704812277+712515003+718500788+722098851+726738086+738339967+752490236
1468+763279787+772390139+782894342+792005537+796137048+797330873+805295895
1454+818034883+827152123+833251696+838222947+844047221+850314067+855612415
1441+860687262+865847574+870934441+876282548+881212895+885169471+889227325
1427+892639701+892764594+891131219+888479374+881717174+875406402+874585216
1414+873784764+870507612+866758722+863473136+860024705+856797666+853657004
1400+848868769+843812757+841709612+840691704+839039985+837229568+833677610
1387+828805177+827432974+830476997+834535483+836745881+836081356+833744449
1373+833414471+835423719+836323832+836124861+835838248+833529805+829714287
1360+828462337+830088473+832514990+834125804+834451706+833962889+834003864
1346+835490839+836662455+835908249+834725247+835855045+839446713+842720842
1333+843618074+842598901+841368529+840937273+841849404+843484044+844247457
1319+844933770+847306521+849962161+851696110+854603363+859919703+866036354
1306+870790712+873796572+876863507+880974495+885838213+891244163+897005605
1292+902746173+906891318+909329011+911708860+913561307+914396549+915611389
1279+917599974+918778688+919190898+921112222+924501615+926760367+927198300
1265+927781648+928706993+928257885+927707148+928889237+930285125+931013959
1252+932433744+934964562+937340475+938211562+938602756+939939467+940953158
1238+941227331+941937048+943263357+944556070+945304302+945810058+945923565
1225+945586277+945759244+946807162+948146192+948428870+946219315+942061519
1211+938323804+935907196+933497265+929865185+925480515+921862070+919549411
1198+918322342+917515915+916173231+914561433+913432970+912183129+910324709
1184+909043662+908108829+906240498+904456437+903458420+902163246+900470834
1171+899882917+900983337+902427721+902582413+901476442+901503290+903528703
1157+905391902+906013977+906035272+906594513+908486670+910495355+910987055
1144+910750834+911287374+912312661+913644662+916348165+920328145+923857542
1130+926063090+927652117+929508640+931636174+932938376+933529174+935531253
1117+938842281+940297067+939761581+941832678+946938239+949550585+949971017
1103+952435136+955432843+957642116+959871068+960984279+961482444+962399144
1090+963821389+967326890+972279727+975521315+978377402+984410979+991289989
1076+995571343+998310268+1000404347+1003348498+1007543474+1010089613+1012078268
1063+1015711613+1018788880+1019262166+1018223665+1019386637+1024834546
1051+1031249197+1033610211+1032407881+1031169918+1030531679+1031813850
1040+1034907141+1036149251+1035874305+1036012129+1035663104+1034785552
1028+1036693452+1043467600+1049738522+1049853154+1046322000+1044377131
1016+1045691492+1048253023+1050718336+1053560858+1055567014+1054183214
1005+1050863963+1049403343+1048981927+1048366248+1050096192+1054218214
993+1056275325+1054047497+1050902267+1048835317+1047165465+1047346092
982+1049122071+1049738944+1049712869+1051517031+1054200292+1054015519
970+1050871342+1048252109+1047271662+1047662717+1050436291+1055378515
959+1059733314+1060691270+1058247253+1055772802+1057373987+1063006390
947+1068220327+1070445133+1069792064+1066952142+1064620999+1064299384
935+1065644740+1068336294+1070372671+1069722906+1067926334+1068739999
924+1071608666+1073039767+1073741823+1073733881+1071689632+1069372334
912+1067228425+1066352418+1069204288+1073003993+1073403973+1072139513
901+1072070706+1071337304+1069935933+1070711505+1071824084+1071042678
889+1070613671+1070649234+1068310992+1063676889+1058382617+1053925556
878+1053172545+1056036222+1056122249+1048515951+1039749915+1038081610
866+1039068874+1035037797+1029066350+1026168094+1024558194+1022635534
854+1022258045+1021485847+1016581294+1009848191+1003338869+995490517+989177425
841+986369412+982740495+977642734+974169564+971879887+967359150+959917174
827+955068848+955844630+958035770+958030780+955618882+950635683+943663688
814+938203971+937378358+938728633+937791973+934551298+931089794+928758581
800+928016323+928016182+927460596+924259490+918373507+914220771+914751337
787+916929264+916893841+914646826+910129252+904803705+901917467+899854874
773+896255476+891347339+886165872+884325443+886654479+888192198+885650136
760+880916793+876619836+872670077+869052826+867752382+868610747+868706753
746+867151674+865528912+864446203+863652780+863354429+863375232+863525146
733+863920417+864376131+864311330+862557912+859749407+858190322+858310084
719+859733242+862147460+864440510+865208281+864740056+864844075+864665627
706+862357958+858479817+854611305+852085337+849916898+846269637+842270047
692+840803103+841584227+840814278+839586154+841738568+844051508+842925084
679+840822922+839645473+839089816+838858164+836466858+830449376+828454114
665+831513670+828811924+822797113+822156203+823878275+820655452+817055140
652+818353476+819115835+815593747+814552365+819320639+820298485+811209921
638+801244366+800307003+808310189+813483854+810335883+810694888+814416790
625+810472091+800243257+788981334+783772175+788996515+794185643+791721735
611+790198423+792776189+789461366+782471239+785594471+793395663+791415442
##END=
