##TITLE=Sample description
##JCAMP-DX=4.24
##DATA TYPE=INFRARED SPECTRUM
##DATE=25/8/2023
##SAMPLING PROCEDURE=Instrument type and / or accessory
##ORIGIN=Default
##XUNITS=1/CM
##YUNITS=ABSORBANCE
##RESOLUTION=4
##FIRSTX=4397.6552
##LASTX=599.8556
##DELTAX=-1.9287962
##MAXY=1.9290262
##MINY=0.62715656
##XFACTOR=1
##YFACTOR=1.7965457e-009
##NPOINTS=1970
##FIRSTY=0.74155915
##XYDATA=(X++(Y..Y))
4398+412769434+412871388+412890797+412304420+412398577+413502123+414269780
4384+413890862+412615690+411937180+412688381+413410155+413199744+412649863
4371+412282191+412272039+412492934+413134086+414197620+414547906+413706031
4357+412747172+412336403+412034655+411929748+412604808+413297120+413178577
4344+412673783+411961001+411289723+411508263+412559487+413257141+413160562
4330+413090591+413287565+413083590+412858814+413656928+414489514+414028050
4317+413295494+413011230+412753907+413049782+413954794+413847532+412679822
4303+412293405+412619140+412805663+413262980+413668441+413378271+413082761
4290+413534305+414607360+415624279+415697800+414865878+413988337+413524783
4276+413711273+414239091+414417751+414463735+414672222+414932764+415190883
4263+414787049+413677266+412942586+412942288+413471102+414009537+413793553
4249+413320078+413991721+415504409+415894409+414955291+413990527+413488155
4236+413348213+413218456+413207839+413518977+413711439+413990361+414716878
4222+415420006+415530918+414945139+414301067+413987574+413631448+413513502
4209+414043312+414639675+414767540+414710343+415025295+415417783+415237664
4195+414927654+414917568+414858546+414643689+414252727+413911797+413925068
4182+413810373+413686224+413723648+413217627+412840433+413177947+413391741
4168+413690139+414566950+415209031+414880177+414092348+413692793+413876595
4155+414412808+415020484+415507263+415427803+414582444+413761769+413584900
4141+414046928+415009071+415449700+414514165+413513668+413588915+413919958
4128+414335173+415419608+416366755+416039229+414700555+413693058+413942718
4114+414659515+414757853+414683734+415221672+416393596+417431351+417123000
4101+415426708+413901777+413538850+413624746+413901047+414925863+415701881
4087+415388421+415430524+416257038+416355707+415844676+415966338+416185209
4074+415558887+414424951+413585530+413516687+413873908+414322167+415018892
4060+415597472+415743552+415650921+415499931+415412243+415216695+414704072
4047+413826100+413033127+413344497+414650391+415586424+415676832+415673382
4033+415769696+415456667+414745079+414014713+413845077+414505837+415119519
4020+415229369+415377937+415498869+415330527+415243403+415409622+415422528
4006+415073037+414801016+415011593+415346917+415069355+414370407+414114875
3993+414504908+415298013+415979443+416001075+415755927+415823708+415669898
3979+415112253+415284477+415951076+415937142+415752344+415704834+415696274
3966+416326777+417133584+417243534+416780842+416101834+415537487+415254883
3952+415167493+415097854+415043675+415452188+416206111+416515257+416244530
3939+416042878+416066932+415622654+414357302+413548505+414017267+414539280
3925+414840398+415681411+416232752+415750751+415049117+415288956+416355475
3912+416757120+415985514+414852474+413279171+411298549+410382787+411299478
3898+413760143+415766842+415249773+413237599+413125991+414040093+413475747
3885+412694685+412741001+412674281+413285043+413765319+412900617+412155188
3871+412350901+413000215+413707424+413614660+413417023+414116202+414689009
3858+413930409+410698868+406334353+408589219+414152764+417504739+417980535
3844+416381519+414074598+411506703+409985986+411484475+413572824+414823245
3831+415784426+415813158+415278405+414933361+412998324+409713401+409586298
3817+411503319+413838176+416484601+417953031+417040787+414317854+412966043
3804+412879715+411934758+411856924+413230334+415543791+418342102+420053225
3790+420690595+420890854+420203949+419156374+418784987+418435032+418535991
3777+419964409+421273986+421509445+420855155+419898917+419344258+419394190
3763+419655627+419425376+419285102+420211746+420853927+419265130+416091516
3750+417219015+421794472+424779970+426988819+430866556+434793229+436573593
3736+435347756+434138541+436488692+440221510+441907484+440517220+438108643
3723+436502428+434768380+432919604+431918013+431560626+431513780+433584280
3709+438974572+445280494+450574672+454947614+461125968+469661674+477686381
3696+484516339+490002282+492398019+491540285+491479670+492721399+492140530
3682+488578741+482624566+475091348+465277252+457856273+455389835+451578884
3669+448105115+448398734+448769591+447075555+444338157+442074068+439766881
3655+437663436+436134159+432470549+426906141+427369729+431910482+435145009
3642+436512845+436663537+436174038+435120325+433157685+430327059+426158490
3628+422449725+421914276+421261047+417969653+411998060+406492443+403687894
3615+401605849+400087985+399571148+399097674+399044125+399724560+399719716
3601+398464218+396869847+395156469+393257728+392110555+391252588+388858609
3588+385523356+383866511+383155454+381879154+379863928+377896743+376666394
3574+375631293+374091598+371591054+367933250+365047251+365039421+366317114
3561+366893902+366235398+365448133+365166888+364659474+363689699+362618170
3547+361311447+360231623+360330458+360649790+359870686+358627498+357993511
3534+357958111+357757056+356921385+356244965+356048920+355300505+354134852
3520+353414505+352957785+352766352+353048525+353294336+352917873+351927860
3507+351114385+351042589+351388264+351498545+351076629+350543004+350387203
3493+350165645+349577974+349427449+349977728+350365240+350260997+350228416
3480+350465535+350653817+350976964+351578569+352149684+352504284+352581123
3466+352312087+351586996+350856530+350617454+350609326+350771629+351011203
3453+351089037+351161994+350787986+349621437+349090234+350101679+351419948
3439+352014155+352285313+352582018+352514337+352235945+352609622+353465631
3426+353992653+354449970+355258569+355802711+355900949+356301333+357229968
3412+358196358+358625175+358689307+359234311+360654568+362439311+363646735
3399+364147845+364546803+365358321+366879636+368753726+370508111+371772965
3385+372336449+373240168+375268101+377634310+380023014+382859213+385548106
3372+387367088+388811696+390754861+393518768+396648023+399929364+403551635
3358+407081971+410488258+414281293+417907048+420904987+424333834+428413721
3345+432068174+435661746+439961532+444521528+448531377+451189946+453242430
3331+456305098+459656145+461834968+463070526+463968239+464944616+466154063
3318+467189695+467681682+467709684+467990265+469303789+471364336+472908311
3304+473075325+472247185+471633570+471638613+471074664+469067633+466005595
3291+462750730+460396398+459329115+458392917+456526856+454083741+451762919
3277+449850277+447876689+445713060+444394957+444066103+443680416+442322201
3264+440453884+439544327+439433780+438847038+437702818+436456344+434970795
3250+433725847+433318098+432960379+432393013+431972689+431101750+429478979
3237+427879067+426949305+426230053+425178032+424221662+423912548+423893338
3223+423760065+423827315+423641920+422608180+421594479+421086799+420791852
3210+420902963+421183013+421183478+420872108+420159127+419584926+419505466
3196+419605695+420184043+421052892+421385097+421374978+421400591+421412435
3183+421569729+421523115+420795668+419837373+419202391+419132354+419845933
3169+421152158+422280919+422567438+422160717+422117354+423023859+423901135
3156+423912216+423538506+423904619+425125147+425509242+424593613+424385989
3142+425556652+426140939+425433796+425092401+426294052+428059984+428126438
3129+426851034+426967354+429063002+431048899+431073516+429652630+429164093
3115+430885301+432090900+430473836+428986826+430431966+432990936+433261398
3102+431280377+430262297+432129419+435060705+435419154+433351308+432356153
3088+434129417+436207547+435179978+432540520+431875878+433459632+434475291
3075+433326193+432023053+432566000+434445995+435018039+433296599+431996079
3061+432657105+433914162+434079452+433365508+432839614+432506812+432477516
3047+432721668+432713142+432634213+432902219+433443209+433773125+433628903
3034+433524394+433690713+433800928+434138607+434953178+435760018+437283356
3020+443019954+453443817+460470616+458165884+451533298+446201862+443019656
3007+441477406+440721858+439997895+439620005+439991193+440869530+441767708
2993+442270411+443000114+444288225+444920818+444820490+445394193+447116861
2980+448776624+448914642+448182219+447968225+448412868+449449926+450428061
2966+450414558+449705557+449460908+450824298+452457719+451899211+450305769
2953+449798985+450485690+451600914+451741188+450811193+450322225+451031656
2939+452579579+453473344+452696530+451523445+451478755+452815338+454243159
2926+453763447+452028072+451228133+451578287+452131221+451816766+450572316
2912+449799118+450166656+451174452+451720817+451174717+450491164+450574340
2899+451431809+452358187+452328460+451836805+451994596+452716403+453810095
2885+454894862+454963804+454112871+453702865+454436151+455337813+455122160
2872+454219935+453911717+454434658+455155437+455618360+455964765+456295112
2858+456532529+456868218+457038982+456519391+455581168+454803425+454553732
2845+454899540+455574765+456428054+457246473+457554292+457360006+457322714
2831+457929329+458911711+459614142+460007957+460566034+461309870+461891768
2818+462199521+462622698+463286843+463605412+463531128+463642637+464008882
2804+464474028+465168630+465843490+465952345+465764064+465873250+466179610
2791+466394168+466671365+467136511+467459360+467589482+467878722+468359031
2777+468885224+469413242+469809180+469856425+469766713+469947994+470099416
2764+469877293+469792227+470337198+471204288+471850948+472188296+472439116
2750+472684894+472891888+473085610+473286499+473581280+473988665+474429061
2737+474905953+475200402+475244594+475365459+475593587+475892747+476385464
2723+476908007+477206902+477461373+478077244+479001466+479792082+480127339
2710+479979003+479598459+479410907+479807178+480694407+481459377+481800640
2696+482097909+482643776+483231281+483629608+483809562+483775489+483536678
2683+483293223+483388276+483942006+484702564+485274674+485521182+485641483
2669+485739025+485673234+485550079+485564843+485724393+486285423+487086689
2656+487571311+488034135+488690947+489003047+488923620+488847179+488842767
2642+489001122+489349153+489423735+489208912+489460828+490256255+490778599
2629+490841072+490970232+491268463+491469816+491557571+491875775+492502628
2615+493031110+493422205+493949492+494472898+494784467+495173837+495646481
2602+495632315+495275492+495223636+495601061+496142350+496571831+496967836
2588+497416560+497596713+497378771+497160862+497227880+497404019+497618477
2575+498045603+498701021+499374588+499808913+499832170+499575013+499596113
2561+499987009+500130601+499971250+499996531+500340348+500671558+500724442
2548+500882499+501271537+501260555+500955755+501247185+502146291+502732402
2534+502788339+503102496+503929873+504599060+504640764+504474844+504627394
2521+504918227+505080397+505079634+505159990+505742253+506524873+507000239
2507+507334865+507656122+507706352+507558979+507726756+508273387+508643414
2494+508623109+508786840+509504864+510281579+510600347+510467439+510226040
2480+510219869+510445807+510612557+510532035+510491127+510802928+511161609
2467+511165391+511101491+511437943+511937030+512026974+511631334+511336022
2453+511684152+512392489+512804286+512906041+513287581+514010847+514430242
2440+514468595+514625657+514790250+514844627+515174676+515371351+515002319
2426+514798146+515085761+515496861+515921432+516160807+516137815+516316375
2413+516883244+517465340+518017246+518786828+519291356+519017875+518688689
2399+519042294+520036188+521888712+525300340+531547339+542600177+559758214
2386+582127254+607163487+632882976+658626551+683701801+707950072+733324317
2372+760240778+785380923+807142817+826020006+840046664+847492128+850074455
2359+850152554+845547669+832273540+811829252+790420631+777610520+780835691
2345+796258652+804871561+797476925+785649328+777359102+773987619+776972453
2332+783065409+783151139+776339761+772022325+773824320+774014625+767208356
2318+756380460+745124974+739189278+741219866+743374470+736997515+721962332
2305+704574342+691744989+683987657+676705558+667291681+655736670+642846801
2291+630419490+619521855+609529100+600163131+592308722+586216762+581155489
2278+576446361+571791510+567673271+564640728+562289050+560110823+558119717
2264+556471167+555212120+554220979+553285908+552186046+550916415+549724319
2251+548779560+548026965+547298888+546522272+545706109+544981117+544811415
2237+545210406+545277424+544849536+544888486+545607572+546267702+546412588
2224+546230179+546084265+546113195+546309074+546614704+547034929+547494435
2210+547800198+548058683+548336842+548532887+548758194+549041894+549316403
2197+549657632+550186181+550754907+551038474+551300509+551849096+552274231
2183+552400803+552603981+553118429+553654874+553713432+553374724+553205420
2170+553504249+553980112+554396487+554866378+555168093+555143708+555042484
2156+554980343+554935918+554849624+554799825+554912196+555005624+555028417
2143+555263843+555644553+555905062+556171012+556600924+557247418+557907780
2129+558044537+557819927+558143804+559146822+559965706+560213010+560212213
2116+560250500+560515587+560893411+561249205+561706920+562041082+562076250
2102+562299202+563021805+563769424+563855751+563387353+563323785+564008500
2089+564784518+565301886+565684885+565927611+566101925+566406891+566775492
2075+567046551+567334663+567844533+568431573+568767527+569041771+569511761
2062+569962443+570489100+571348526+572266013+572951789+573578509+574401640
2048+575263057+575780491+576086917+576492145+576865656+577405120+578250479
2035+578735598+578805802+579092255+579442940+579525352+579701325+580151276
2021+580499174+580550201+580455048+580433881+580701490+581208241+581549901
2008+581626408+581768606+581906226+581674582+581164248+580786623+580838380
1994+581278710+581670800+581794087+581945641+582222340+582487162+582647010
1981+582701952+582960271+583690704+584628959+585310953+585473589+585152034
1967+585023173+585803040+586797299+587044271+586936710+587145927+587646308
1954+588244230+588761001+589067559+589291573+589682601+590199372+590738570
1940+591468472+592263004+592867628+593278430+593637011+594203282+594946853
1927+595268607+594782625+594281183+594490333+594840619+595388046+596399424
1913+597019377+596946917+596784348+597039814+597889221+599148235+600048669
1900+600141565+600067182+600407117+600895687+600905839+600470685+600721638
1886+601941039+602937554+603135026+603024346+603180280+603646090+604022786
1873+603836130+602681823+601206094+601597388+603744030+605682118+606708891
1859+607227387+607701624+607986087+608020459+608046005+607871559+607355385
1846+606588723+606313550+607692733+609420411+609956358+609824776+609777996
1832+608775841+606572466+605922389+607534079+609276620+610576509+611746940
1819+612429730+612445522+612147590+611464733+610806627+611576873+613398708
1805+614451691+614022177+612849689+612474586+612994342+612856723+611547876
1792+611139794+613302958+615635592+616673712+616766940+616326875+615939563
1778+615979575+615726763+614381289+612449636+612693888+615400763+618265628
1765+619528424+618843445+618185405+618851142+619675666+620225282+619826556
1751+617584629+615542430+616586322+618743382+619662461+619534529+619525306
1738+619921842+619180726+616938666+617218484+619729811+622080493+623710829
1724+624256066+623877976+622396939+619039855+616559250+618818429+622446705
1711+624862083+625221195+623397303+621551314+621146683+619671087+616443660
1697+615329431+617713689+621132085+622655059+622309085+620974028+617972804
1684+615021744+617320338+620929040+622441397+621140977+619017626+617953429
1670+616956648+617982691+620540997+620909067+619458885+619433670+620359119
1657+619550720+615333678+610856924+613005954+614252826+613306740+615667973
1643+619826556+621817198+621132483+618185007+616549496+620403643+624662024
1630+626716034+627659930+628788226+630546161+634186581+638068265+639605704
1616+640906721+645064575+649290043+651669059+652791914+653996650+655613317
1603+657394742+659490887+661878397+663679463+664318857+664742134+665834797
1589+667221544+668617714+669690603+670068494+670888306+672268617+672001473
1576+671260423+673654966+675835714+676109096+677268976+679737040+681742678
1562+682161973+678273189+673194796+678933551+686392684+691293378+694180406
1549+696280002+697188995+695882073+692786426+690180411+695800987+704786346
1535+709163833+711280416+715594933+719859683+721685898+722281697+722446190
1522+723638850+727853304+733016564+739137721+745876242+750909314+752509392
1508+750445760+753837481+765507485+773463350+777090830+778455216+781294932
1495+787023070+792008499+794530443+796713580+802171588+808551860+812985019
1481+816711035+821185998+824784282+826416940+828860253+835395662+842441538
1468+846568736+849608180+855471947+861965486+864217433+860864794+861519981
1454+872522456+882365250+886842933+888362324+890754013+895141454+900578361
1441+904874696+905791320+903939891+904462700+909363527+914309077+916478677
1427+916559895+915009783+914360834+914743966+910742975+906047317+906915170
1414+908486583+907586083+905187028+902720225+899680050+896016075+891915354
1400+886067048+879841183+874807116+870993643+871135444+873060129+871713128
1387+867885323+866508728+866871887+867011564+868471102+869904431+868123072
1373+866356510+867430329+868959009+870167992+869638348+866042984+864255321
1360+867417788+870022277+869392239+868022876+866981505+866604544+868256312
1346+870555437+871295690+870798030+869727065+869077385+870075560+872021412
1333+873985312+876153188+878892310+880889455+880484757+879253944+879598988
1319+880901731+881835806+882996947+885325334+889013330+893580990+898456868
1306+902646836+904454273+905026250+907346078+911276268+915336580+918588227
1292+919977893+920215112+921374329+924306278+928524979+932654963+935116060
1279+936025252+936333072+936813347+938888525+941751399+941838987+939259381
1265+938288545+939912710+940819580+941292424+944338968+947633679+948369022
1252+948670007+949822655+950616589+950592436+950654345+951777133+952991292
1238+952767477+951946669+952639081+955134218+957148681+957220277+956752808
1225+956495949+955075759+952478901+950698670+950515597+951086779+951903738
1211+953002771+954273730+955556035+957244895+958417184+956815248+953758021
1198+952174797+952285211+953059637+953235942+952686525+952386999+953194470
1184+955110993+956272334+956004327+955355577+954526873+954243538+955836914
1171+958487520+959486225+958811663+959213905+961173824+963296512+965823632
1157+968131183+967377659+964390701+962425673+962437882+964825059+968570319
1144+970982313+971633784+972354728+973370486+974396993+977678367+983488917
1130+988058634+988466716+985632573+983197089+983368616+986134613+990481444
1117+993490365+993130657+990469567+987977615+988072436+989767799+990457955
1103+991440934+994279323+996847583+996749842+995258453+995963804+999871102
1090+1004870797+1008443933+1009475616+1008837483+1009845942+1016210289
1078+1025700407+1031117607+1029844459+1026246573+1024547627+1025462658
1067+1029019802+1032773953+1033897272+1034977527+1038422067+1043967000
1055+1050034807+1051498592+1046781634+1040954362+1038183522+1039260127
1043+1042291676+1045924663+1049722674+1051648819+1051853789+1051270199
1032+1049355733+1048774333+1052023060+1054830130+1052507449+1049314062
1020+1050402611+1052788263+1053110614+1053343652+1053764871+1051437546
1009+1048104814+1047410544+1047285996+1046397175+1047020378+1047454670
997+1047037830+1050267380+1054742011+1054083507+1051647559+1052039980
986+1053183936+1052065925+1048533797+1046087696+1047574241+1051108493
974+1053679738+1054052984+1051825124+1048069447+1045531378+1045838933
962+1049066360+1053936133+1056277990+1055246970+1055599181+1058191926
951+1061668382+1066190788+1068766480+1066154360+1060214550+1056731856
939+1057983572+1059327520+1058701596+1060342880+1066082630+1070536160
928+1068692494+1065208539+1065590212+1066963954+1067271839+1069162219
916+1072199607+1073741823+1072646638+1070906021+1071500958+1071870155
905+1067616818+1059942629+1055287447+1056798278+1061191026+1067056585
893+1071517016+1070490110+1069317157+1069904131+1067740967+1066268291
881+1068462509+1070809674+1069965775+1063459960+1054884806+1050141771
870+1048860594+1048820516+1046541364+1039971848+1036071053+1040970221
858+1048130692+1047614585+1039754536+1030760287+1024456057+1021513424
847+1022891479+1025197438+1021149734+1013249607+1005666258+997286187+991389708
833+990097781+989852733+990062547+992029633+991417908+986159496+981858051
820+981684467+982239922+979260794+975653155+976135752+976342182+971348458
806+965744537+962952529+960597335+958465822+956229402+952748832+950132996
793+949569578+950382954+951201970+949600499+945142855+940534653+938087424
779+937585650+938582696+940405659+941133504+939840649+936445875+930971013
766+924716085+918490751+912431769+907797688+904226145+901677726+902870120
752+905915271+906262638+905306533+904821811+902329329+897834062+895132098
739+895753510+897195132+895604079+891851255+891591742+894958846+895835723
725+892492441+890397622+892998926+895427111+894018400+893735397+896812863
712+898809609+897198251+893942822+893379205+896269882+896410222+891907524
698+889314580+889931945+887314782+882608175+884397165+890015286+888732517
685+883797252+884440229+887709526+888558667+889847276+891179812+891965850
671+897714358+901519204+885833744+867526277+861484746+864805933+873780807
658+879226473+876834518+872091748+864859149+853738629+848702239+852716567
644+854486911+850730836+846376904+841856290+835327914+830820106+835357508
631+845116032+851702999+853723168+851118148+843366192+832545992+822176143
617+810176223+798163232+800597786+819767798+836451101+835822589+822113106
604+816181259+834989372+862335149
##END=
