##TITLE=Sample description
##JCAMP-DX=4.24
##DATA TYPE=INFRARED SPECTRUM
##DATE=25/8/2023
##SAMPLING PROCEDURE=Instrument type and / or accessory
##ORIGIN=Default
##XUNITS=1/CM
##YUNITS=ABSORBANCE
##RESOLUTION=4
##FIRSTX=4397.6552
##LASTX=599.8556
##DELTAX=-1.9287962
##MAXY=1.8084397
##MINY=0.64653039
##XFACTOR=1
##YFACTOR=1.6842407e-009
##NPOINTS=1970
##FIRSTY=0.72424316
##XYDATA=(X++(Y..Y))
4398+430011662+430338202+431488436+432496226+432681739+432604412+433446685
4384+434180525+433084473+432048972+432622496+432973597+432328621+431767554
4371+431453931+431442429+432030003+432669848+433214600+433499062+433252467
4357+433103831+432875355+432206775+431489604+430942551+430897429+431324334
4344+432070949+433303747+434309130+434315642+434202395+434758296+435164179
4330+435170160+435333660+435137425+433937787+432504755+432302999+433361715
4317+434466720+435560932+436497554+435957791+434328099+433434511+433927666
4303+435062717+435649902+435666252+436103384+437188076+438240953+438323269
4290+437414888+436503676+435877740+435359070+435211566+435530356+435902831
4276+435975522+436084840+436240130+435722840+435107839+434856289+434159397
4263+434300955+436262744+437629314+437589465+437650512+437463231+436675387
4249+436679067+437384913+437612575+437733749+437708198+437031159+436645518
4236+436986568+437340039+437516173+437579556+437350373+437128409+437417755
4222+437995278+437830009+436708653+436174553+436356562+436261753+436868154
4209+438153293+438643050+438757181+439125269+439065177+438591027+438539677
4195+439093984+439943654+440410478+440032163+439687256+439948113+440044833
4182+439521102+439222095+440026359+440903704+440285942+438789669+437825868
4168+437607443+437937593+438164087+437556234+437036113+437548484+438473710
4155+439270932+439962800+440403330+440304840+440008558+440136846+440123893
4141+439470636+439153404+440083054+441529994+441844430+441160066+440708317
4128+440188408+439701766+440277944+440911666+440301620+439988811+440876135
4114+441224475+440810275+441048766+441820613+442070641+441637012+441074565
4101+440573518+440253136+440380079+440812965+441208762+441499665+442002870
4087+442594301+442569741+442279829+442682138+443112299+442581030+441857879
4074+441773722+442103447+442404577+442358429+442056237+442204838+443072415
4060+443712755+443688478+443505938+443301740+443089721+442620100+441892631
4047+441788444+442457733+443232730+443890446+444205343+443973329+443694246
4033+443606267+443369652+443236340+443581778+444042834+444136369+443745915
4020+443257432+443131834+443219353+443332104+443465558+443711021+444275804
4006+444640352+444441887+444197062+443817190+443150308+443098497+443992934
3993+444943677+445648744+446397022+446867067+446569794+445644002+444859449
3979+444507323+444496741+445456614+447077211+447683364+447335661+447410298
3966+447452447+446560522+445730034+445694998+445891057+445924960+445680701
3952+445739802+446453327+447055871+447274473+446858149+445925031+446077596
3939+447278755+447961881+447487731+446080639+445035053+445163128+445235889
3925+445039830+445372670+445516245+445367397+445954758+446997549+447801106
3912+448411329+448850337+448347486+446101767+443502965+442468951+442708150
3898+444552586+446993444+447796399+446748512+446215190+446660463+446284200
3885+445767335+445839034+445484253+446197213+447633430+447618247+446250155
3871+444356563+443648770+444778549+445269438+445543106+447456198+449220513
3858+448909544+445798301+440431606+440466394+445474167+448968751+448950950
3844+446827679+445014244+443454835+442357297+443844723+446734462+449340696
3831+450937582+450944023+450417248+450241822+448757192+446199831+446132733
3817+447288204+449544221+453215470+455337963+454246547+451308182+449883997
3804+448705771+446615199+447552564+450170158+452629312+455257274+456550801
3790+456281698+455826304+455676995+455734256+455456412+454385416+454380390
3777+456053612+456782603+455767699+454214236+453674544+454099503+454931938
3763+456246698+456578688+455739600+456086524+456568991+454336366+450629763
3750+451784951+456059416+459575516+464536221+470888765+475839419+478541841
3736+479669142+481696189+485604053+489549394+491258571+489641938+486112885
3723+482600288+478931764+475234858+472222281+470224077+470003387+473925654
3709+481802747+489895186+495491524+498157778+501898391+509274544+517495836
3696+524919624+529355465+527244156+520366253+517275677+517069462+514637310
3682+509915981+504232973+498301956+491167868+485349531+482992016+479994302
3669+477979111+478817774+479540713+479223799+477976811+475611722+472517395
3655+470729441+469622276+465640838+460540874+462607204+467943428+471557947
3642+473599928+474281179+473817150+473347600+473002658+471168343+465982737
3628+461306670+461965590+462224748+458294093+450144288+442006444+438248172
3615+436318978+434922220+435269746+436675068+438253941+439736483+440149621
3601+438890529+436496598+433886649+432054422+431101203+429007163+423966973
3588+418429984+417366455+418372829+417940899+415999531+413533511+411500342
3574+410123933+408856631+406745392+402881376+399387748+399575631+401146470
3561+401506560+400760653+399785244+398569257+397106533+396171574+395544116
3547+394373534+393446573+393654098+393979187+393400107+392031696+391036221
3534+391135808+390835244+389282453+388190330+388108898+388223136+388859547
3520+389687912+389681931+389043573+388138767+386786317+385459702+385076574
3507+385571285+385906319+385888376+386134015+386190780+385783340+385559323
3493+385345818+384743840+384321748+384487195+384739487+384384140+383870531
3480+384320545+385547574+386779876+387366424+387117104+386873305+386957603
3466+386913507+386564459+386092362+385932224+386178890+386548746+387136639
3453+388132574+389036035+389382783+389510964+389721001+389917555+390091531
3439+390250536+390209308+389738378+389222291+389523174+390485559+391176895
3426+391710854+392550827+393175347+393453934+394194922+395303502+396060345
3412+396609132+397509302+398894947+400454957+401926918+403344024+404576893
3399+405551134+406670897+407872834+408538124+409223161+411066960+413576155
3385+415596549+417342921+419637230+422433258+424926280+426748739+428752287
3372+431689060+435021665+437856232+440357535+443882908+448724279+453136622
3358+456223234+459249826+463558477+468935293+474001707+478120776+482258389
3345+486924334+491178556+494675121+498059006+501634101+505119130+508165114
3331+510775984+512766650+514448400+516802589+519448706+521476603+522892541
3318+523969271+525198742+526954244+528791638+530021002+530582211+530092808
3304+528184812+526042465+524927374+525060510+525145020+523619373+521582028
3291+519990415+518050392+515828490+513379032+510567574+508131813+506355395
3277+504711972+503134267+501896409+500656852+499317142+498290029+497227102
3264+495555579+493468229+491735482+491221837+491673727+491924675+491721786
3250+491516350+490890909+489167753+487554340+487551261+488081433+487661146
3237+486523900+485410507+484482450+483357590+481924842+480980965+481297985
3223+481856221+481197443+480096083+479967477+480562978+480713313+480208126
3210+479921223+479748592+479118515+478742607+479306647+480624662+481788627
3196+481514747+480374174+480091128+480560678+480902081+481079702+480926465
3183+480336732+479879923+479730897+479699719+480105249+481111199+482057942
3169+482087280+481234779+480721630+481564080+483107811+484100773+484675111
3156+485384496+485737401+485563355+485458318+485645388+486283640+487327528
3142+488196520+488536756+488432144+488408822+488850343+489594268+490413644
3129+490935677+491147094+491667251+492519327+492995282+493113519+493423709
3115+493821559+494354810+495444456+496782255+497424753+497200878+497126383
3102+497444111+497594269+497672445+497803599+497949687+498162450+498566069
3088+499231110+499637277+499521765+499577822+500123991+500568130+500689694
3075+500921177+501484651+502234769+502774921+502631735+501903204+501509317
3061+502001021+502558089+502416920+502413593+503163039+503528932+503085536
3047+503127614+504188064+505348879+505794859+505704580+505572789+505596713
3034+505743403+505609028+505235668+505229864+505671597+506377301+507070159
3020+507580372+508420309+509598430+510215872+510337329+510575148+510416885
3007+510004773+510437199+511330256+512062397+513034160+514245052+515602916
2993+516791724+517161333+517359445+518135291+518929647+519692399+521123839
2980+522792495+523584904+523986435+525239015+526565807+526692679+526545069
2966+527306370+528401502+528609664+527854273+527418733+527691091+527949541
2953+528135832+528315966+528658254+529441816+530151095+530415880+530569435
2939+530940920+531558221+532287177+532753895+532685735+532861303+533722792
2926+534118165+533521991+532653389+531585967+530361380+529939960+530602949
2912+531313042+531210341+530753320+530872370+531505809+532108424+532745685
2899+533642882+534530525+535269071+536011545+536366892+536124615+536043290
2885+536657194+537470766+537959886+538376068+538864692+539179412+539236566
2872+539000128+538577399+538320223+538739130+540048687+541520400+542390489
2858+542839513+543297879+543622402+543247449+542323461+541836111+541951552
2845+542337653+543314371+544381191+544605030+544599403+544930261+545250856
2831+545790724+546555777+546956600+547344223+548146576+548776582+549218988
2818+550110523+551199674+551886764+552171119+552402178+552710245+552774654
2804+552522432+552475612+553007447+553905777+554819254+555642735+556347661
2791+556908551+557441590+558174155+558907853+559146910+559178406+559434061
2777+559642541+559952908+560866951+562070765+562995991+563742783+564469509
2764+564967901+565377359+565821145+565937258+565833531+566027572+566605166
2750+567194262+567538709+567924208+568478127+568908819+569223822+569792745
2737+570995922+572400465+572699861+571994157+572013232+572945182+573511274
2723+573673607+574112013+574890266+575775892+576404093+576703064+576930690
2710+577010105+577163342+578029114+579239368+579925785+580285697+580845314
2696+581544365+582349974+583245367+583972801+584422497+584518579+584284194
2683+584224032+584729254+585348006+585500995+585421758+585659258+586333253
2669+587066703+587708388+588413632+588935523+589287720+589659524+589856326
2656+589935280+590016145+590285495+590931958+591578668+591927680+592249761
2642+592692273+592824135+592583238+592805555+593864130+594896728+595221322
2629+595309866+595580102+595946596+596532366+597365083+597944553+597910225
2615+597759465+598096162+598780385+599355042+599836058+600515255+601197779
2602+601960355+603136706+603991932+604001770+604004884+604515061+604983124
2588+605085825+605347567+606134844+606787641+606648843+606229830+606337981
2575+607173884+608250294+608832949+609016550+609312832+609826973+610519052
2561+611004102+611045933+611279717+611959905+612457908+612813999+613533611
2548+614039541+613779569+613640063+614295196+615063434+615329422+615269331
2534+615269968+615726211+616666017+617479766+617948962+618421413+618595530
2521+618413062+618779840+619826381+620903075+621639604+621974956+622256091
2507+622700585+623214867+623995704+624966724+625552281+625692070+625717267
2494+625914529+626431642+626857167+627162650+627819340+628541218+628886196
2480+628769976+628360377+628374957+629103134+629850846+630256765+630583765
2467+630942899+631308120+631394258+631116237+631171021+631924607+632879136
2453+633498667+633675261+633647232+633740236+633864383+633685736+633718649
2440+634621013+635706838+636170866+636438978+636934433+637322799+637482194
2426+637628777+637885777+638289926+638620395+638978821+639961661+641227265
2413+641879637+642135787+642556004+643029446+643316031+643599077+644347993
2399+645355677+645860120+646130073+647484575+651461307+660032815+674995618
2386+696844959+724699140+756310072+789112642+822124295+855593110+889407045
2372+921573381+948580547+969241434+982700603+985760319+983755567+987980027
2359+995097092+990780903+975023673+955228983+934193038+921116997+924937731
2345+941010707+951300594+949571032+944622784+940062194+937373362+938684476
2332+941305219+940178131+934936644+929375590+925740439+921194925+911717442
2318+897428245+883240333+875012316+871947858+866673884+855159163+838662148
2305+820526453+805298935+794009858+783733066+772633323+760826708+748627480
2291+736772876+726027667+716169250+707460572+700930762+696697384+694083861
2278+692356847+690970494+689610754+688610714+688398093+688196160+687480369
2264+686777178+686016796+684908676+683931215+683397752+682991267+682448036
2251+681813217+681475529+681644479+681739465+681399441+681004989+680780265
2237+680912339+681487208+681790851+681442050+681127366+681378845+681931701
2224+682207245+682241219+682549604+683011368+683212593+683301492+683445740
2210+683709322+684445002+685340217+685666934+685843670+686424485+686907058
2197+687120599+687454252+687677560+687689310+687920404+688387759+688789290
2183+689022720+689347668+689872142+690372339+690817469+691158979+691444149
2170+691751897+691762018+691683170+692225835+693342660+694492399+695301901
2156+695711429+695959298+695986973+695707395+695500295+695660327+696330889
2143+697402204+698130523+697999085+697654461+697814422+698246459+698819205
2129+699686533+700458806+700874775+701225204+701498128+701689161+702157791
2116+702555924+702458461+702325325+702656501+703587673+704726794+705457236
2102+705619604+705579684+705888636+706513687+707028819+707359074+707688764
2089+708075573+708261156+708093834+707971244+708381835+709165432+709816742
2075+710330953+711084469+711796792+711751847+711446151+711841524+712851898
2062+713940270+714412509+714011687+713635353+713946145+714476494+714850279
2048+715464360+716345986+716981725+717509880+718124456+718371263+718338139
2035+718406653+718339979+718207339+718396248+718803441+719548747+720991016
2021+722374962+722393436+721306337+720916273+722142452+723930478+724813236
2008+724808919+725221137+726352897+726799090+725965027+725583102+726832568
1994+728059739+727824186+727445587+728236404+729311611+729477872+729079668
1981+729113146+729890019+731034520+732001860+732581259+732485140+731818825
1967+731512775+732074125+733264632+734496545+735218493+735541034+736008956
1954+736787669+737533329+738186692+738832836+739095427+738689224+738381264
1940+739095427+740335550+741435105+742149551+742344972+742251119+742276741
1927+742403507+742139076+742091017+743241392+744474578+744972156+745668695
1913+746336497+746070155+745801123+746693862+747923509+748808816+749476760
1900+749636580+749384959+749335909+749553060+749431532+749084572+749951547
1886+751734547+752744992+753037027+753273783+753347535+753093579+753227848
1873+753750340+752570025+750100750+751010122+754699348+756792220+756486241
1859+755806973+756030635+756684069+757709943+759328736+760241363+759304246
1846+757177825+756167168+758138441+760749417+761619294+761247915+761344245
1832+761451617+760576220+760653086+762205841+763592973+765057962+766371483
1819+766692325+766634357+766912661+766792549+766138194+766629332+768533647
1805+770065735+769773133+768103876+767360906+767769585+767494820+765977596
1792+765076647+767208943+770127383+771659754+772430115+772896055+772988564
1778+773236716+773043064+771233026+768451756+768413818+771308548+774408325
1765+776250638+776109291+775587578+776154095+776703412+777587587+777496919
1751+773637539+769538500+770741889+773922496+775773798+776403238+776472672
1738+776571763+775334896+772210275+772917431+777192639+780871531+782614400
1724+782614541+782293770+781635169+778620327+775592532+777515109+780610144
1711+782444529+782548929+779644078+776080130+775213580+773172094+768713639
1697+768437175+772840494+777818186+779943474+779436553+777647961+772621361
1684+766828221+770344605+776115732+778470699+777598274+775948056+774780907
1670+772921253+773672362+777456857+778580832+776202295+775788803+777623613
1657+777049381+770732121+762023868+763361666+764645106+762490586+765078771
1643+770331511+772589156+771213279+765993663+762570496+768218892+774109424
1630+775759571+775080161+775072022+776296219+779613289+783619536+784413679
1616+784477239+790075240+797038077+801384560+803512184+804955444+806223666
1603+807461878+808722740+810001792+811491199+813148637+814897238+816869643
1589+819015033+820966700+822426522+823468746+824251848+823892997+820706728
1576+818470387+822639214+826016587+824879164+824738809+827487309+829651667
1562+829736532+824045951+815645729+822186934+831616287+836933648+839298808
1549+841163770+842009936+839302347+832564233+825566360+830002449+840489881
1535+845869882+847468573+849663367+851195100+850678129+850746643+850509391
1522+848775795+851088648+856362622+861283478+865223547+866845028+865788931
1508+860967945+859635242+870062865+878160365+880692634+880455311+881518203
1495+885226328+887170350+884963170+883554380+887732338+892264050+894235676
1481+894956138+896050315+896397770+893510685+889133696+890792691+897747389
1468+902937631+905125205+907177520+909773349+908792490+900811776+898931879
1454+910440797+919201640+922418132+924080453+926390758+929174081+932185101
1441+934732234+934310036+932247883+935769645+941308121+942740339+943317969
1427+946396866+947460253+944099018+938803456+931786119+927947973+931022835
1414+934382726+933580302+929260574+925205560+921918218+918199052+915340066
1400+911731740+906800408+904349110+905245388+907238532+906966456+902146036
1387+895596195+893340814+895387679+898645931+900450023+898277596+893405082
1373+891903217+894717966+896659936+896574081+895810868+894228528+893666116
1360+894858675+895145827+895526619+897196018+897402269+896352613+897364190
1346+899991940+901453178+900302590+897528822+896994934+899968724+903556737
1333+905968256+907010622+907705462+908679314+909225022+909928992+911854046
1319+914306547+916320641+917331298+918009929+920056299+922321730+923513087
1306+926158319+931197165+936400289+941120273+945113921+947059431+947745989
1292+949294922+952393921+955895724+957996452+958561412+958752303+959859291
1279+962244976+964347261+965481994+966513672+966966730+966356259+965838368
1265+965618527+965168867+965607486+967491629+968957963+969351849+969948589
1252+970223354+969983129+971274143+973829698+976100155+977834884+978587267
1238+978673830+979321460+980674051+981557235+981811757+982234875+982470853
1225+982619914+982613261+981894640+982121558+983458507+983917935+984251305
1211+984753555+984121921+983382702+983178009+983499630+985018694+986393156
1198+987345986+989102090+990387441+990779558+990563965+988973980+988062697
1184+989118228+990157267+991063737+992252687+992571972+992545217+993577674
1171+994313566+993094889+992548473+995333141+999180984+1000565921+999622646
1157+999682667+1002015268+1003925529+1004516819+1005716386+1007188665
1146+1007742512+1007910825+1008553147+1010453145+1013036658+1015035252
1134+1016143159+1015938820+1014731467+1013761862+1014226670+1016910052
1123+1020425091+1021364827+1018396700+1014809254+1013935555+1015508906
1111+1016247417+1012742146+1009038622+1011778911+1017752113+1020370379
1099+1020424030+1020073955+1018849475+1019894813+1026180576+1031874625
1088+1031993251+1030493793+1030574977+1033145962+1037698271+1039797796
1076+1037863116+1035815755+1037757584+1043220114+1047085934+1048032961
1065+1049893322+1053088581+1054400120+1053838487+1053401496+1052536078
1053+1050711177+1049215116+1050438393+1054443154+1057700344+1059092926
1042+1059110196+1058364820+1059842124+1063668733+1065948320+1065446566
1030+1064730068+1064689228+1062670038+1057377732+1052649679+1053323568
1018+1058918667+1063196352+1060864389+1056631223+1057765673+1060470573
1007+1058995958+1056974220+1058952358+1063291409+1066016693+1066414331
995+1065872870+1064195472+1059332443+1052534945+1049676738+1051537100
984+1053547867+1054570132+1056110784+1057803894+1057549726+1056147589
972+1056677159+1058904370+1060194463+1059605580+1059110408+1060023248
961+1061623213+1063060385+1062923215+1060477863+1057070409+1055705573
949+1057628362+1060479279+1062012782+1061302654+1059453971+1058680283
937+1059161511+1060665357+1063022872+1065286180+1065846823+1063541967
926+1060658067+1059488015+1059673245+1062104229+1065977623+1067972819
914+1068973071+1070872999+1072580548+1073741823+1073621994+1070298130
903+1066431743+1066623696+1069295471+1069812442+1066726821+1063479540
891+1064293218+1067289162+1068665323+1067960220+1065445575+1061754650
880+1058422009+1057658160+1059094695+1058818019+1055832338+1051732733
868+1046948410+1043583494+1042053318+1039250884+1036260249+1035270967
856+1032138207+1023604283+1014763813+1011450495+1012487694+1013114303
845+1010924110+1007851371+1006721875+1006023921+1002139061+995536985+988929884
831+983308667+979420339+977007970+974774743+972454387+969537079+966865162
818+965948713+965948075+965022849+961217403+956622839+954983309+952300988
804+946791177+944949147+946835910+946830106+943730683+938862557+932923400
791+928776161+929430727+930924665+929060976+926786131+925996376+924436402
777+920317687+915797936+914437205+914558663+911734217+907596250+905552216
764+902570145+896860525+891456671+887455025+884838882+884481235+886990430
750+889829385+887793420+880683645+873424313+870047577+871368388+874040942
737+874585305+873538622+872776895+872427954+870881640+868570273+867471779
723+867990095+870365447+873109416+874011144+874024380+875111266+876248334
710+874578015+871996059+870859840+869447581+868264648+867966526+865462639
696+860468668+858780583+864067651+871123351+872070872+869412475+868656482
683+866223941+863574107+866349715+869560474+868734764+869488492+875268891
669+877211781+865905363+854961052+850739777+848710607+846094606+843062706
656+843593268+848074231+850920335+850065676+847645026+842152485+836116077
642+833355404+829121177+821784059+813833001+804502103+796954841+797359203
629+801552307+800209200+794335655+792143551+798029765+806154515+806183959
615+796801462+782530172+770450562+768008041+776789622+786422040+784776635
602+777787963+774714516
##END=
