##TITLE=Sample description
##JCAMP-DX=4.24
##DATA TYPE=INFRARED SPECTRUM
##DATE=25/8/2023
##SAMPLING PROCEDURE=Instrument type and / or accessory
##ORIGIN=Default
##XUNITS=1/CM
##YUNITS=ABSORBANCE
##RESOLUTION=4
##FIRSTX=4397.6552
##LASTX=599.8556
##DELTAX=-1.9287962
##MAXY=1.9225358
##MINY=1.055625
##XFACTOR=1
##YFACTOR=1.790501e-009
##NPOINTS=1970
##FIRSTY=1.1181527
##XYDATA=(X++(Y..Y))
4398+624491556+628467305+631794045+631886190+629994954+628653393+628327823
4384+628334015+627590663+625608747+623139209+621638058+622963175+626919483
4371+629572845+628973304+628469369+629256463+629655203+630031639+629308661
4357+626038513+622749590+621976012+623542210+624922653+624370116+624793491
4344+628656522+633357846+635777317+635568194+633400590+630157673+627305839
4330+625633315+624194415+623477229+625046223+626707030+626245240+626195306
4317+628226623+628961985+625878857+622698191+624063654+628729359+630403282
4303+627169819+625156744+627903050+632310296+634684893+634627769+634018840
4290+632718690+629896018+628354987+629937697+631396037+630733446+630858880
4276+633355782+635647555+634967587+631979001+629455999+628918842+630301017
4263+632085726+632661033+632718957+632459632+631000693+630163066+630988975
4249+632001637+633570698+635074845+633993673+632174010+633195727+635894163
4236+637300306+637417085+636580057+634564386+632423946+631230256+632651246
4222+636418471+638261037+637418749+636526594+634767052+632041118+631737453
4209+633801460+634296473+632925550+632234996+633236540+636202289+639053191
4195+639237281+638441931+637768621+635313996+632855443+634225900+636741178
4182+635471455+632961170+633867107+636892644+638974362+640259065+640051406
4168+637235591+635066723+635614799+636715212+637373875+637874947+638507045
4155+639718645+640185961+640348547+643309636+646564803+644573833+639064509
4141+635292291+634588155+634943019+635263130+636525463+638517498+640374113
4128+641563675+641094561+640752413+642104627+642140247+640120381+639134683
4114+639768446+640719390+641454819+641569068+641199623+640875251+640224044
4101+639241009+639012578+640019847+640417789+638359973+636504024+637659298
4087+640080767+641919938+642952641+642553501+641571864+642408226+644167703
4074+644056716+643126611+643057436+643320155+643235068+642207824+641091366
4060+641188171+641754490+641794837+641679922+642420077+644175426+645600943
4047+645580171+644794541+644129886+643222285+642244576+641723997+640947888
4033+640325710+641282846+642732665+643293857+643903319+644755460+644416907
4020+643000910+643021683+645408065+646874927+644854063+642126865+642015279
4006+644165372+646881785+648164091+647099630+645286225+644069166+644236345
3993+645782170+647028325+647755231+648781076+648880878+647530994+646910081
3979+647970480+648885538+648925352+649565307+650248139+649698864+649570034
3966+650179363+649818373+648451711+647310552+648001706+650184556+650695215
3952+648528410+646486840+646563738+647404561+647521274+648069882+650299072
3939+652241107+651591298+648035128+643254575+642169076+646707881+651244556
3925+651794696+651430910+652339377+653014885+654124020+655275765+654591003
3912+653469617+653050637+651360070+647362284+644519305+644519039+644880694
3898+647999642+653681471+656320852+653278137+650346409+651864937+652687317
3885+650221640+649172493+650171107+651414731+652154088+651216327+649869173
3871+649533483+649296596+648920359+647956632+648241589+651024047+653811166
3858+655649538+653894656+644141204+640895092+648394853+654603919+656221450
3844+655067840+653190253+649632818+644955862+645311925+650236421+654590138
3831+657523330+659264364+659356776+659988142+660806927+657671668+653660832
3817+651254809+650634895+654038000+658542784+660286747+657699631+655007453
3804+654240932+653060358+654712443+658113551+659279877+659571159+660871442
3790+662473126+663182390+662855155+661745354+660553661+659934279+660126426
3777+660989752+661187025+660332820+659136733+657715477+656821790+657611947
3763+659467363+660233884+659948061+660574700+660041671+655996014+651212665
3750+652264942+657250358+660102790+659731680+661388825+664823156+664903383
3736+659949393+657373661+660359252+663771212+665047193+663705832+661809536
3723+662316600+664431274+666319646+668810157+670672298+666786563+659913307
3709+660906662+666340219+670158243+670571564+668861955+669141852+672052808
3696+675271357+676419241+673501161+666954408+664117088+666944354+670125154
3682+670687877+668110015+663821346+658272607+654487806+654109972+654107109
3669+656730710+660873040+662524991+662290767+661938965+661033361+658137120
3655+655445807+654552587+650608929+641489307+639177626+644844476+649601726
3642+649980159+647789386+647166342+648085129+647413416+645810733+643428679
3628+638130742+635942166+638045189+639935492+637293315+631582524+628704059
3615+626120205+623001657+622727220+622192060+619502545+618489483+619041953
3601+619430107+619757741+619799952+618549404+616055697+614033102+612929626
3588+611411697+610290645+611152972+612763579+613632498+613164516+611057365
3574+608218848+606487867+605361488+602472837+599325393+599666876+601006706
3561+600947717+600510162+600576142+600220678+598994031+597795814+597017042
3547+596113835+595149775+594960625+594639449+593133704+592187021+593294026
3534+595139855+595671819+594716414+594134516+593372322+591051721+590106303
3520+592129897+593926124+593757014+593325118+593329379+593268992+593167393
3507+592245477+590371819+589924077+592220311+594749903+595135061+594161414
3493+593029508+591471167+589887591+589569611+591214838+592883768+592392816
3480+591735884+592056460+591941479+591831358+591963050+591962251+592897683
3466+594824671+596160507+596116165+595109561+594458688+595188790+596769902
3453+598636437+599891246+598609938+595271414+593331576+594260816+596057509
3439+597105925+597679500+597601337+597172903+597933831+599787250+601006107
3426+601188466+601213899+601206243+601028544+601296989+602444074+604189569
3412+605780135+606695526+607815580+609977924+611488130+610818681+609561474
3399+609739106+611925685+614973061+616710433+617011169+617462373+618774307
3385+621081460+624419318+628331618+631698771+633547995+634393678+635376180
3372+636558685+637801644+639736821+642780734+646324787+649121027+651777586
3358+656507472+662268796+666081228+668432123+671471708+675103845+678491903
3345+682292417+686763978+690938199+694251556+696432609+697385950+698852280
3331+702570636+706380670+708174368+708566716+707820569+707299257+707447461
3318+707341734+708772245+711546714+712647926+712837210+714444620+716202232
3304+716546178+716338452+715571332+714681973+714958408+714332901+712062167
3291+711530535+712965174+713353794+711945387+709123648+705351496+702753727
3277+702081482+701451780+699606617+696780682+694859819+695452304+697139542
3264+698046544+698179435+696918500+693701083+691444929+691694001+691952925
3250+692142741+693216590+693537233+692741883+692064977+691835813+691987213
3237+692348403+691717969+688553548+682818989+677259464+676600135+681491741
3223+685800251+685686868+684468210+684832263+685900119+686787680+686940146
3210+685829080+684742382+684572007+683463338+682276039+683484776+684700304
3196+684158020+683552220+683538638+684600835+686021159+686227487+686014701
3183+685624550+684831131+684931598+685847056+687371642+689580192+690968559
3169+691510510+691716837+691280547+690960569+690555171+689934191+690801113
3156+692414382+691952659+690272145+689634920+690027868+692636955+697196733
3142+698906941+696882947+695738259+697516244+699893371+700210286+699113268
3129+698790095+699463206+699755953+699899963+701394589+702276291+700552101
3115+699198356+699503686+698996889+697923972+698750880+701491394+704292029
3102+705815350+705771275+705401430+705747640+706385131+707511510+708796080
3088+708488353+707059707+706406636+706059827+705077059+704980320+706804644
3075+708420976+708097003+707144861+707428087+708557462+708396009+707608782
3061+709000011+711064817+711031794+710633054+711088319+710661283+709672057
3047+709761072+710249827+710019864+709286433+708958133+710030250+711754040
3034+712400187+712360506+713254858+715308812+716624275+715345297+713097799
3020+712675556+713952137+715659216+717379943+718225293+717737737+717678682
3007+718723702+719130964+718901267+718756991+718292139+719033027+721630263
2993+722856577+721824274+722159098+725114262+727602575+728029145+728183142
2980+729090876+730353942+731444435+731549096+730959076+730721190+731396298
2966+733043656+734288212+734491810+734392741+733728884+732849779+732739724
2953+733928288+735762465+735771054+734336482+734515113+736321993+737782863
2939+738240060+738942199+740917124+742674004+742693778+741777188+741703086
2926+742681727+742246834+740113918+739797270+741305478+740940893+738738468
2912+737164880+735915596+734261448+733409107+733833213+734258052+734526897
2899+736234375+739279021+741639303+742191175+741384440+740910999+741969534
2885+743121213+742317807+740498810+740110922+741852955+743832740+743309431
2872+741491366+741627586+742964953+743656706+744188803+745288084+746679181
2858+747282517+746707277+745973246+745404664+744546531+743955977+743972023
2845+744724029+746575384+748170744+748944123+749867769+750249132+750481292
2831+752325390+754199848+753714689+752486111+752803825+753355829+752756021
2818+752637312+753672078+754896261+755964184+756215719+756115651+757221124
2804+758562619+758082520+756793489+757377784+759021680+759131668+759023144
2791+760248593+760775963+760045527+760035740+761421510+763164408+763168736
2777+761341482+760491072+760766442+760385545+760525161+763139708+766950075
2764+768503956+767061528+765440735+765691604+767198813+768194698+767958943
2750+767745358+768579789+769374140+769299972+768563544+766901140+765212903
2737+765805920+769207494+772894824+774538386+774381460+773393632+772736167
2723+773186572+773428918+772465857+771989486+773353884+775524351+776516707
2710+775009764+772497349+771688750+772819057+775118287+777837230+779198365
2696+779030254+779284452+779931730+779772074+779113344+778269858+777392617
2683+776883090+777039883+777982171+779268606+781056445+783571589+785323343
2669+784848303+783178375+782841820+784250892+784861020+783475383+782429698
2656+783568194+785484729+786094391+785646782+785698580+786596528+787522704
2642+788030168+788264791+788352275+788456538+788196348+787759458+788824186
2629+790508694+790447175+789508349+789044628+789163804+790115014+791202445
2615+791474951+791559040+792242937+793189620+793399343+792683089+792989751
2602+794982452+796537265+796851118+796979681+797214771+796705976+795606495
2588+795169938+795658160+796364360+796535335+797021626+798809731+800273731
2575+800811154+801792591+802127549+800743577+800230854+801511363+801906774
2561+800971409+800624467+801137057+801588061+801847519+802070424+801996455
2548+801808703+801782272+802239601+803261718+803656862+803057987+802483213
2534+802833150+804150411+805011074+805478390+807062165+808452063+807477417
2521+805208014+804399082+805397497+806450373+807478548+809526244+811570344
2507+811682596+810614740+810043361+809210261+807769497+807333274+807919100
2494+808090540+808121965+809017982+810069593+810358278+810560079+811314682
2480+812252710+812830680+813181883+814083492+814873582+814777841+814985034
2467+815468729+815286503+814982704+815165330+815662939+815968402+815831983
2453+815577119+816306889+818525825+820518526+820780780+820056803+819408259
2440+818761114+818107843+817570220+816877801+816429793+816355691+816598171
2426+817619755+818820369+819710660+820918798+822598180+823562639+822682934
2413+821486381+821285180+820729248+820212996+821399762+822986400+823142061
2399+822556235+822780272+824065042+824697074+823469895+822371879+823133872
2386+823978756+823042460+821083846+818957788+816321403+813388743+810379783
2372+807204577+805460813+805864480+805199292+801132729+796563431+794306878
2359+794707882+798165315+802213302+804890966+808516644+813104052+815310538
2345+812540130+807670961+806255630+807711840+809892094+813314641+815193759
2332+812850853+810571597+812015623+815676455+819139215+821037641+821282584
2318+820651417+821040437+823353981+825384899+825567924+825455339+826847235
2305+829607988+832123599+833265757+834096127+835458994+835858067+834983222
2291+834614909+835405132+836267127+836222586+836319325+837557290+838604107
2278+838828144+838874483+838572882+838497581+839509178+840799807+841251610
2264+840646676+839738742+839372159+839436474+839611510+840116510+841139558
2251+842061008+841708474+839870634+838286726+838585998+840059585+841383037
2237+842310811+843137120+844352715+845534088+845218039+843643119+842807555
2224+843179131+843415220+843169877+843865292+845767380+847048421+846904544
2210+845977369+845085281+845172033+845960791+846401409+846773051+847764475
2197+848724807+848934597+848680399+847731386+846209063+845885690+847852160
2183+850675364+851553671+850316771+849761771+850185411+849519358+848471808
2170+849174680+850731224+851113386+850730225+851107660+852701755+854532204
2156+855111239+854288326+853572871+853742247+854162492+854892994+855764709
2143+855838279+855367101+854961171+855232213+856497142+857117456+856061517
2129+855102251+855466969+856366781+857413865+858096962+857209135+855915843
2116+855845935+855673963+854785869+854485466+854944326+855590539+856203130
2102+857220453+859055297+860693134+860615969+859034524+858246964+859426806
2089+861058784+861561320+860885346+860227615+860425354+860922631+861265178
2075+861612786+861857396+861839087+861935559+862038623+861445606+860684412
2062+860650257+861069170+861189079+861113179+862141487+864132058+865465497
2048+865724089+864843585+863238305+862370452+862371783+862148811+862023310
2035+862589429+862703612+862309066+862532837+863159476+863819738+863986051
2021+863664143+864273006+866278157+868550290+869402498+868505815+867512927
2008+867532434+868164666+868608080+868221990+867396347+867340488+867860867
1994+867491355+866262312+866058647+867644420+869600902+870440127+869952039
1981+869284320+869955700+871732820+872860331+873109202+873742233+874470138
1967+874016937+872933368+872849146+873486637+873208871+872258859+872260723
1954+873195422+873351882+872213252+871832289+873044621+873862274+873891103
1940+874844510+876327818+877242943+878076375+878985974+879235777+878467392
1927+876949663+875656505+875425609+875438526+874220335+873295023+874880063
1913+876772564+877005323+877412452+879434382+881341130+881394127+880523543
1900+880862496+881991138+881924426+881187600+881010633+881360505+882178557
1886+882368839+881754384+881773626+882519640+883178637+883715661+884366002
1873+884416002+882608789+880017944+880188120+882289145+883368785+883554806
1859+884190767+886004970+887965648+888135956+886827684+885348238+883892893
1846+882013775+880907170+882812254+885262751+886049312+886733209+888503005
1832+889636374+888715391+887336612+886492660+885727271+886376613+888160590
1819+889208406+889178912+889125050+889547958+889989242+890286782+890559821
1805+890478129+889867536+889016460+888225238+887752196+887409316+886227277
1792+885371674+887738148+891319618+893743151+894580778+893339617+891081532
1778+890440113+891057364+890508223+888524576+888359128+890275663+892448194
1765+894202011+894108668+893029426+893162584+893587955+894687437+895907825
1751+893851208+889780384+890243639+893691885+894157603+890586120+887833223
1738+888873515+888615323+883938100+884532449+891358300+896777543+898074497
1724+896805240+896495981+896459163+892215235+887461314+890569475+895629259
1711+898093671+897700124+894222584+889878322+888118978+885521409+880892589
1697+881025347+885870149+891832208+894850355+893477035+890308553+885597176
1684+879761616+880961831+885712490+888410194+886581209+883415657+884195560
1670+886624020+888477372+890442443+891249577+890071400+888897750+887453058
1657+883677245+875863764+867865128+871716908+876703122+876826493+876981887
1643+879959754+881381210+879481985+873440631+866319103+869508957+876685812
1630+879057479+876953725+874911089+874930264+878325047+883199942+884447627
1616+883286361+886991468+892828359+896744786+899124909+901267014+902535139
1603+902754183+903896274+906357957+908271230+909010986+910077178+912493919
1589+915378976+917302036+917752108+917461226+916937384+915315926+911523401
1576+909430166+913645332+917283993+917099304+917938928+920680241+922352499
1562+922548640+916866944+905572128+909735629+919642944+926065129+927466811
1549+926266197+924903929+921465937+915368123+910702485+915791098+925294347
1535+928992796+927535520+928375544+930433160+929424426+928565160+929154715
1522+927908894+925594084+924363243+927919946+934982485+938033988+935012512
1508+926658878+921492901+930581564+939647191+942347624+940408718+940685553
1495+944526081+945534282+941541822+937293899+938931536+942697362+944424082
1481+944864434+945761183+944545455+938122937+930237019+930354397+936211795
1468+937927995+933768022+931011529+933337458+933936666+927847242+922549439
1454+926490301+931897493+935037080+936703212+939116159+941516855+943079125
1441+945194265+946538822+944998856+945656454+950464171+954405499+955542398
1427+954960300+953120996+951471308+950839942+947976324+944429541+944253041
1414+943675471+942209407+942740039+943699639+942545563+941264655+940658855
1400+937083510+930097337+925049936+924657655+926357143+927012478+924221364
1387+918762640+916657487+918566100+920533701+920986104+920384565+919301528
1373+918789937+919144602+919084482+919442076+921289436+922957167+923739733
1360+924032880+922746445+921069993+922193509+924825699+925389887+924342204
1346+923351713+922483126+921157144+918957982+917026799+917300837+919522437
1333+921729588+922601370+922199568+921876994+923054971+925243547+927329925
1319+928631872+928714563+929340337+933104365+938632531+941981974+943110883
1306+945252787+949194115+952481041+954473676+956912854+960142789+963695696
1292+966451390+968190693+971084804+974083044+974359346+973978116+975577670
1279+978279901+980456893+981155437+980930268+982256716+985453560+987424957
1265+986518554+984533908+984179510+985392175+985551364+984713937+985294304
1252+988188881+992110302+994450145+994359132+993140408+991897716+991981539
1238+993784158+995626858+996515684+997017887+997079872+996677270+996772611
1225+997593460+998843609+999297277+998025956+997521489+999290885+1001337249
1211+1002515027+1003867374+1005721326+1006438046+1006248429+1007255699
1200+1008943670+1009552665+1008891405+1007724214+1006979397+1008568565
1188+1013560439+1018402577+1019398529+1017881798+1015902679+1014128089
1177+1012986197+1012540453+1012918753+1014246533+1016306612+1018497119
1165+1019653458+1018640996+1017879801+1020970120+1024994205+1025825307
1153+1024419630+1022418607+1021779850+1024524825+1030169570+1033531596
1142+1028773480+1021324252+1020846150+1026082035+1029735543+1029208572
1130+1026383503+1025212916+1028269879+1031639362+1031581971+1031535100
1119+1032294297+1029803919+1026973924+1029302115+1032815941+1032250155
1107+1030051992+1028050036+1027121529+1028604703+1027910553+1023861501
1096+1023869224+1029695929+1035252723+1037812276+1039142253+1038281523
1084+1035139872+1034141191+1036961599+1041815788+1046292343+1047128505
1072+1044714693+1044143647+1047016653+1051224495+1056443669+1060129002
1061+1060547516+1062002993+1063969995+1063223382+1063064525+1064879461
1049+1064598565+1061225620+1059544973+1063165059+1067344738+1067192406
1038+1066092592+1066434074+1066488869+1065621814+1066104643+1069092630
1026+1068993827+1064003485+1060241986+1058986244+1058683511+1060978746
1015+1065642586+1068062324+1065774013+1062546542+1061784082+1062073767
1003+1061637942+1061118894+1060529273+1059328792+1058113331+1056792808
991+1055429076+1055496986+1055688999+1053465602+1051849803+1053969470
980+1056890013+1057532364+1056220430+1055602646+1057277368+1058656413
968+1057844419+1055266424+1051601864+1049882335+1052023440+1055099777
957+1056489275+1057603404+1059526131+1061005244+1061593934+1061744668
945+1060987202+1059146766+1058251282+1059931196+1062073367+1062407393
934+1062091476+1061497062+1058168657+1054553166+1056192534+1060191053
922+1060463760+1058336236+1059383852+1065444115+1070239981+1068771587
910+1065812495+1066379613+1069886115+1073278901+1073741823+1071052708
899+1068471717+1069557083+1072086343+1069975863+1065684398+1065043910
887+1064760685+1063649086+1063789567+1061301253+1056720170+1054093040
876+1053800360+1056915579+1060497049+1058834778+1053310074+1047243819
864+1042022981+1041443613+1045661975+1047023910+1042361401+1036011720
853+1030932096+1029852056+1032625992+1033489185+1030539947+1028065282
841+1027088439+1024369363+1021123317+1020431098+1020660728+1019278820
829+1014388346+1008617501+1007301239+1008567300+1009039610+1008879022
818+1006457553+1000806550+996108888+996238783+999426306+1000251949+993439347
804+983117912+979843037+983784498+986150640+982296863+974842441+969151158
791+968591164+970925148+969428059+962476174+957237759+957299011+956771441
777+952376912+948629328+946906004+943948377+940520837+939188996+937779125
764+935531959+934591801+933173274+929800662+924478092+916394767+909262387
750+906759160+906943450+909022105+913056377+914836093+912852446+910670394
737+908100389+902828352+898037679+897013631+896327204+894124247+895158614
723+900893906+905985049+906218807+902618695+898924641+897322556+895126390
710+890022664+886816832+889465933+891922888+888749679+885528999+886735006
696+888862730+887412578+883851814+883354604+884706552+882988421+879862749
683+879011940+878617327+875889730+873213864+870820159+866498866+862507005
669+859702775+857230041+855595733+854791262+856460058+859962232+862577245
656+864487988+865117224+863644502+861984561+862163924+864203231+863156280
642+857095685+854161360+852394560+839430149+823475488+822320347+831361339
629+832752036+828104640+825443289+815460606+798455465+788708072+793338091
615+819135886+860643200+883171380+864280862+835670248+829784555+841156203
602+840548672+825263127
##END=
