##TITLE=Sample description
##JCAMP-DX=4.24
##DATA TYPE=INFRARED SPECTRUM
##DATE=25/8/2023
##SAMPLING PROCEDURE=Instrument type and / or accessory
##ORIGIN=Default
##XUNITS=1/CM
##YUNITS=ABSORBANCE
##RESOLUTION=4
##FIRSTX=4397.6552
##LASTX=599.8556
##DELTAX=-1.9287962
##MAXY=1.9254731
##MINY=1.0686198
##XFACTOR=1
##YFACTOR=1.7932366e-009
##NPOINTS=1970
##FIRSTY=1.1216784
##XYDATA=(X++(Y..Y))
4398+625504954+627462906+629430098+632282501+633993822+633346534+632659958
4384+631647245+629524895+629870177+632069508+631021628+628744253+630664446
4371+634943050+635770757+633465262+632194817+631876591+630854571+629893777
4357+630199705+631732136+632462654+630918456+628462058+626302148+626150447
4344+628601527+630537143+631760057+633708835+634912337+634600693+633018336
4330+632162975+634515003+638499047+640182980+638926295+637815595+637437473
4317+635860634+634304404+635289529+637662830+638969971+639480781+639775142
4303+640325640+641668013+641720397+639731201+638432038+638545847+639036382
4290+639744895+639927242+639361654+638444070+636588958+634515469+634006387
4276+634999954+635703748+635519341+636118100+638171846+640508186+641407423
4263+639464362+637106151+637690684+639317979+639426270+639387049+640221537
4249+640174138+637890182+634921245+633861200+635949381+638418543+637739080
4236+636847222+638585135+640670989+641741138+641809543+640748767+639308672
4222+638895782+639377277+639071681+638682657+639342841+640144822+640888103
4209+641154078+640266010+639625170+639752075+639298302+639559158+642768676
4195+646060559+644933305+641601603+640252714+639713053+639368236+640588025
4182+641894102+643037443+645045585+645924679+644842032+644343188+645688154
4168+647489020+648828934+649263960+647675754+644934901+642948430+641220622
4155+639388112+638731118+639384589+640561301+640926062+639232955+637777969
4141+639706538+643102724+643544331+641462599+641395989+644289740+646521910
4128+647006928+647556627+647498260+646158014+645197552+645038406+644751357
4114+644228714+644214155+645312491+646889928+647207888+646027453+645223611
4101+645879741+647301820+647783979+646999017+646494455+646705786+647501252
4087+648658353+648691060+647447538+646853831+647326218+647623304+647666647
4074+647626628+647076928+646809690+647743694+649191434+650591842+652122612
4060+652631295+650840134+648746901+649457808+652323306+653844237+652704819
4047+651137686+650817598+650266237+649088128+649677714+651948774+652530383
4033+650607464+649079420+649579262+651495400+653420047+653544824+651776332
4020+649848228+649136125+649393192+649789928+649785474+648216879+645929599
4006+645994414+648330688+650595831+651514146+650848111+650570370+652010598
3993+652586223+651183555+649978989+649440590+649332764+650975083+653893231
3979+655842209+655969513+654831423+654118323+654373196+654594632+654747795
3966+654161201+652072089+650525431+651778725+654690292+657039994+657839515
3952+656429468+653957249+653629716+655985799+657946211+658139061+658230600
3939+658167912+657097165+655312851+652819093+651133564+651637262+652493953
3925+652391778+652028081+651546521+651236205+652568474+654947625+657063062
3912+659189600+661018254+662110208+661782609+658548893+655000408+654222891
3898+654326064+654930142+656312003+656660875+656276836+656767571+656501529
3885+656078003+657209976+658184864+658838401+658224551+655587003+654860208
3871+656489896+656807590+656712195+655873918+654511402+655851183+658957595
3858+661921014+663343094+658750784+653998664+656467692+660161496+661527004
3844+660451137+659648226+659927630+658778771+656454663+654570700+654322009
3831+656672509+659627352+661666406+664118550+665174540+661081075+658556671
3817+660054867+661293735+663029122+665433003+666805490+665343059+662911391
3804+661777224+659863878+659408310+661083136+662350722+663953155+665997992
3790+667619370+668508768+668278625+667633730+667339103+666148563+665091310
3777+666666154+669319591+671083961+670262835+667018417+665706025+667274022
3763+668643185+667623027+665998923+667589921+670030298+667891461+659818208
3750+656888892+662343942+664406263+661082670+661776692+665610231+667975887
3736+666432487+663268972+663224831+664432521+664286671+663607606+664543073
3723+666615100+667995432+668831648+670336292+672584218+673094696+670041333
3709+667898242+668890414+671474448+673339332+673727692+675681788+678685958
3696+679548632+678257246+675527494+670251335+666918967+670284706+675759633
3682+677910302+675239249+669980772+664321571+663458232+666624806+666603533
3669+664843284+665938030+667828840+668900851+668444684+666320207+663526438
3655+662476763+662573820+658421191+648732608+646485680+652672178+657762468
3642+657948937+655371152+653646135+652420230+651106375+650635916+647143206
3628+639693575+638253081+641602733+644436189+640442108+630435499+627267064
3615+630489346+632949333+632559312+630423334+629775381+631256359+631050280
3601+627858910+624277852+621481024+619264875+618953961+620517172+621429770
3588+620206591+619785524+621075647+620674457+617100578+613110951+611538101
3574+611511975+612154544+613415815+611755348+605919052+603156792+603937567
3561+604663963+604572158+604479356+605138543+605720351+605440349+604197492
3547+601713972+599496759+599385277+601004195+602791500+603901802+604454825
3534+603850681+601935274+600113401+600016677+601129172+601452716+601281804
3520+601432374+600803434+599971672+600768401+601388300+599177203+596459085
3507+596412085+597805978+598312867+598481320+599748574+600525692+598798748
3493+596933266+597352737+597976160+596940113+595916830+596320014+597499319
3480+598652166+599405020+599651584+599853475+600020532+599648726+599021513
3466+598847609+599652249+601524113+602802868+601993375+600883074+601291243
3453+601876841+600720404+598697969+598632888+601172582+604079828+605787626
3439+606541411+606214676+604642889+603094703+602855850+604509137+606625903
3426+606962477+605781710+604456022+604374853+605983335+608060414+610404399
3412+613283126+614799404+613533945+611730885+612133204+614289125+615955775
3399+616721990+617584000+618399941+619345312+621099113+622815088+623817830
3385+625134676+627373029+629129688+629656653+631197926+634560607+636520553
3372+636942816+639532501+643399212+645110002+645718534+647767892+651284800
3358+655511618+660493350+666297206+671505958+675254606+679252343+683616636
3345+686827815+689777740+693034855+695173226+696831566+700462549+704697543
3331+706014589+705490416+705751871+706458590+707420182+709887083+714511634
3318+718955633+719677841+718804264+720543905+724257852+727151470+727593211
3304+726714781+725400993+723539234+723143030+724313360+725065350+725115673
3291+724842784+723550801+719731355+714658748+711339477+709692970+707676983
3277+705076064+704160474+704979938+704018279+702663209+705102256+707565036
3264+704212060+697443156+693677025+694833927+697232357+698402820+698421633
3250+696884149+694671058+693221855+692956545+694596404+697640260+699355571
3237+699171894+697902646+694699576+691410552+690921014+691986111+692386636
3223+691825037+690832533+690000837+688630477+686988424+687508608+689001685
3210+689034525+689170537+689967266+689773685+688848522+689667919+692131032
3196+692889735+692078980+691404702+690515304+690224998+690676445+690583642
3183+690434135+691259981+692134355+691654590+691689424+694218348+696371943
3169+695407093+693093554+692388298+693684337+694980775+695337757+695179409
3156+695176683+695602403+695570028+695851892+697302623+697547990+696241581
3142+696385039+698450484+700470792+701616127+701634741+700538333+700105433
3129+701007196+700883947+699243690+699922621+704324872+707141909+705186350
3115+702113842+700999152+702207308+703936845+704248889+704659452+705709060
3102+705893069+705862755+706907643+708786820+709582618+708220035+707160988
3088+708630798+710970927+711273465+709344430+707614761+708201621+710446755
3075+711662356+711237833+711331765+712892317+714172733+713203563+711318071
3061+711017860+711280445+711583514+713642645+715958908+717047472+718039378
3047+717885284+715716333+713606414+713162214+714480855+716773453+718920134
3034+720408624+720239174+717744685+715599001+716620888+720133409+723485254
3020+724244689+722900189+722538952+724189447+725894985+725913865+724067528
3007+721979413+721642241+722603434+723684353+724284243+723883319+723410268
2993+724165183+726154047+728153148+729938658+731754682+732275198+731816904
2980+731779610+732138055+732643947+733952882+736793651+739165889+738880901
2966+737540788+737685376+738525049+737116663+733986254+733145517+735708677
2953+738144201+738137487+736917365+736971411+740286361+745205938+747685736
2939+746033512+743162164+742880500+744528868+745197163+744051163+743187890
2926+744037336+744860988+744699980+744468174+744362741+742873919+739429537
2912+737300805+738957749+741926486+743250312+743119020+743100140+743955702
2899+743861504+742021881+741493121+743146874+744408012+743946062+743333808
2885+744429617+745745732+745335701+744944217+746043484+746871124+746820402
2872+747387585+748042784+747854388+748088255+748731887+748575067+748852942
2858+750920182+753578006+754749733+753733496+752019582+751434782+751827463
2845+751408922+750084963+749573089+749933063+750534681+751653957+752810261
2831+753396324+754459626+756148877+756785862+756526734+756294330+755752408
2818+755645113+757036946+758905021+759772880+759293646+758409766+759401339
2804+761882134+762477836+760918348+759488491+758945439+758880557+759622974
2791+761635371+763998767+765718731+766575688+766926821+767091019+766927419
2777+766517056+765707962+764845554+764909438+765671865+766459287+767622837
2764+769131935+769730030+769534521+769828084+770579741+771390763+772123009
2750+772595728+772499535+771602360+770764548+770759695+771364371+772411786
2737+773538507+774298009+775134823+776325164+777109927+777184713+777278446
2723+777729627+778136334+778120712+777593614+776959954+776865424+777361809
2710+777748506+777799827+778275670+779192989+780170004+781257504+781846159
2696+781733015+781564628+782208858+783997028+785492166+785786327+785673250
2683+785752025+785997459+786132740+786095845+786147564+786552344+786907531
2669+786756030+786279189+785575595+785404017+786474233+787891460+788524256
2656+788256286+787577355+787139536+787401523+787952885+788750611+790077096
2642+790669075+790134532+789728357+789790978+790000115+790364211+791431568
2629+793440309+795247225+795484482+794576603+793727889+793081931+793324705
2615+795303730+797328426+797779008+797905182+798210844+797516556+796196054
2602+795541985+795907609+796252227+796017429+796333395+797055936+797647184
2588+798347720+798799499+799810484+801701294+802499286+801613876+800754127
2575+800829579+801259420+801990602+803150230+803791269+803017143+801760591
2561+802137251+803494582+803324334+802432609+802949270+804499052+805769098
2548+806693663+807809415+808664910+809033925+809475466+809407992+808580418
2534+808180292+808225230+807660374+806673720+806389397+807184264+808452981
2521+810204987+812871652+814539165+813591799+812316435+812104771+812308989
2507+813531371+814932045+814476810+813470279+813816625+814407939+814035534
2494+813509899+813979560+814967345+815265761+815180869+815481080+816119726
2480+816738961+817353676+818248924+818816971+818559704+818048030+818226122
2467+819749579+821269580+820638379+818534709+817384521+817804524+818834720
2453+820093798+821374614+821927637+821444747+820113741+818476608+818146416
2440+820253011+822850074+823167104+822228579+822232368+822293395+822170212
2426+823299726+824562460+824526629+824314168+824598690+824619364+824002523
2413+823245746+823349783+824512535+825207820+824713828+824159076+823468711
2399+822726759+824049455+826742911+827787467+827384349+826950785+826476072
2386+826197399+826436850+826448616+825595448+823643745+820258395+817177976
2372+815541308+812885014+809543074+808168459+807557467+805638005+802315343
2359+799049520+798358888+800750404+805740579+812496854+817826594+819735420
2345+817673630+812646228+809920863+811259581+812753655+813758058+815505078
2332+816082632+814806536+814406942+815655583+817324692+819187847+821275230
2318+823715607+826371237+828356179+829110362+829042821+829109166+830260484
2305+832820254+835260365+835694527+834942338+835280042+837060633+838820749
2291+839883320+840585851+841410832+842596386+843148479+842407857+841353462
2278+841112948+842173990+843644665+844163054+843841038+842915942+841405115
2264+840535926+841030450+842117950+842994053+843094965+843023103+843791513
2251+844429095+844163785+843952919+844485135+845298617+845320820+844831614
2237+845294561+846692975+847636685+847208173+846313922+847081800+849408767
2224+850821141+850283274+848808412+848242226+849680393+851715458+852444048
2210+851861243+851241144+851229377+851169747+850583219+849692491+849028385
2197+848861460+849078508+850008059+851485447+852923149+854137088+854095474
2183+852863585+852519167+853208137+853569573+853630200+854072074+854596845
2170+854413766+854488620+855727355+856688017+856572613+855838173+855223990
2156+855752617+856729565+856806745+855972324+854746817+854386644+855370439
2143+856415261+857146975+857414679+856717466+856050767+855842893+856048639
2129+857495714+859243133+859806727+859987744+860542297+860614823+859896404
2116+859483581+859937221+860685954+860973335+860632573+860508260+860691405
2102+860058077+859136371+859313400+860136188+860445506+859889092+859868883
2089+861905943+863942604+864012804+863811378+864055814+864004162+864261162
2075+864713606+864008017+862458435+861845116+862552965+863431062+864287820
2062+865188120+864739997+863255562+862721152+863174527+863976441+864538971
2048+864202330+863937219+864428087+865009895+865826700+867059785+867797814
2035+867778336+867900987+868646794+869691217+870550235+870979744+871018035
2021+870127507+868148082+866991313+867977303+869179808+868961431+869060415
2008+870730322+872294463+873129815+873795916+874027257+874317430+875001546
1994+875035583+873870171+872479402+872035401+872267141+872424359+872862909
1981+874074057+875337987+875594921+874914594+874367288+874316366+874612522
1967+875809310+877578268+878305063+877594289+876623722+876149939+876109588
1954+876910239+878340296+878517856+876921141+876048296+876783001+877465988
1940+878075650+878265775+877405361+877383955+878705787+879636268+880585296
1927+882722936+884597791+884740917+883859496+882361499+881020256+881043723
1913+881125024+880467764+880249121+880689732+880912430+880984624+881913776
1900+883447072+883646570+882052514+880749295+880965944+881425634+881477553
1886+881833338+882674208+884459519+887046212+888904049+889037137+887899513
1873+886266634+883650625+880463842+880086052+882459420+884442235+885134993
1859+885735814+887161550+888331083+888393305+887952828+887419814+887283536
1846+886608327+884966806+886050716+888907307+890398323+891269108+892601576
1832+892770495+890564516+888536630+888279297+889028561+891066552+893053023
1819+893570281+893404421+893859191+894332575+893676047+892876193+892884968
1805+893254914+893621203+893487318+893330698+894208728+894564580+892771625
1792+891472129+893410005+895832499+896939810+896815630+896193338+896476131
1778+897084065+896058056+892662469+887678277+887169461+891570116+895023938
1765+896827862+897895286+898753373+899743085+899691366+898611245+896548924
1751+893219681+891012838+892129389+895197975+897655968+896587148+893337744
1738+893212368+893220545+888133180+887134959+892623514+896924786+898381766
1724+898831019+899424128+898461206+892755936+885876879+886920570+891862018
1711+895804579+896508240+893106670+890735495+893018587+893592817+889571480
1697+887110097+887145462+889557254+891922445+892121146+891150247+887619976
1684+882483153+884806330+889469371+891493535+890147704+887639321+886919706
1670+885491444+885299724+889212105+891713508+890263840+889282504+890291893
1657+890104561+884532910+873559922+872629641+873629524+870616513+873195893
1643+879547122+882347273+882197101+878200029+870440747+870646095+876572269
1630+880052880+880635819+881485131+882160473+883074002+885350512+885817714
1616+885645339+890007238+895068211+897949598+900636273+904176115+906653786
1603+907685445+908974637+911060292+912455847+912720226+914058944+917177388
1589+920344094+922698782+923409888+922003298+920627154+919670747+915972489
1576+912415960+915523303+918174878+916310459+916234143+919964576+922810663
1562+922591820+915497510+905434395+911416210+919831422+924565195+926661818
1549+927225079+927143047+925018436+919887529+914462394+916903435+924320625
1535+928959668+930735539+931628992+932309453+932387031+931532534+928617643
1522+925394697+926589491+928992774+931855812+937195392+940789746+939541770
1508+933871001+931177945+938445162+944362694+944400187+939709093+937310929
1495+941464356+944941843+942054939+937654682+940296817+944814473+947009682
1481+948245625+948578344+945772475+939419053+931869972+930869025+938695848
1468+945611069+946189287+942610090+938981168+933766366+924786830+922155530
1454+930899405+938868821+941748346+941062103+941607747+944061486+946604304
1441+949954687+951967616+949105574+947873752+952521304+955957309+954723892
1427+951929524+950372961+952429300+955225861+951473092+946411188+947254052
1414+947956317+946565149+945921916+946502129+945786369+943539175+942077342
1400+939825095+935151950+930726232+929227903+930447892+930621331+926539766
1387+920374541+918413464+920781979+923172432+923524295+922221476+920231083
1373+920316838+922985963+925025483+926366793+927734427+927386087+925756266
1360+924402658+923140323+923392205+925760255+927511330+926206051+922678573
1346+920379859+921298507+922845896+921137632+917809918+918138182+921583827
1333+924638719+926458731+927942434+929436309+930287151+929928772+929526585
1319+931012948+934244005+937265126+939279983+940852567+941885688+942595199
1306+945312586+950106454+953707523+955630175+957919051+961266641+965066875
1292+968469110+970491678+971397828+973615041+976162181+975645387+974633073
1279+976656438+979565679+980922877+981461009+982473922+983871405+984133857
1265+982962662+982871921+984930054+987063306+989180139+992115571+993576141
1252+992342923+990841004+991191671+992908976+994876434+995953630+994531817
1238+992984095+994056505+994582605+993630785+994533412+997208719+999122996
1225+999941596+1001632044+1003997434+1004299706+1003139746+1004071091
1213+1007197978+1009330964+1010125366+1011924105+1012920199+1008782594
1202+1003311789+1003221579+1005945082+1007098328+1008687864+1012223851
1190+1015002597+1014616497+1013122489+1013325777+1013844498+1013545218
1178+1014384160+1016419624+1018412078+1020349355+1021295192+1021138639
1167+1020427865+1018891245+1018682839+1021083729+1023976084+1025442836
1155+1024503115+1022036546+1019133156+1016867215+1018647274+1023309983
1144+1025792772+1026472434+1027031308+1027237121+1027338167+1026562046
1132+1026525151+1030352773+1034917428+1035426909+1033781333+1032683596
1121+1031846183+1031242238+1030551274+1030140113+1030834400+1031352523
1109+1030550476+1027650410+1023126572+1022102558+1026687687+1031606799
1097+1035785487+1040293902+1040932349+1038926467+1039668551+1043627732
1086+1047127090+1046290076+1043263371+1042244209+1043594360+1046846158
1074+1050924665+1053499725+1054913362+1055733690+1053759584+1052336241
1063+1055422510+1059112259+1060142190+1056911532+1052015422+1053990725
1051+1062423819+1067484792+1065203562+1061131569+1060789677+1062755607
1040+1063007622+1061010581+1058130059+1056662974+1058461780+1060791805
1028+1061730329+1062998182+1064439939+1067194753+1071454011+1071931384
1016+1067762800+1063577530+1061698487+1061902372+1063477349+1065653280
1005+1065822065+1063074365+1060495915+1058083857+1053961541+1050661615
993+1051746522+1056601416+1061588002+1064074846+1063270007+1060287309
982+1057724615+1057305476+1057991653+1056671550+1054084059+1053787371
970+1054680758+1054592077+1054877796+1056539725+1058510707+1058952714
959+1057843542+1057760579+1059177739+1060477833+1060892119+1059470305
947+1058649113+1062255964+1067788660+1071303374+1071498285+1067372047
935+1063050632+1064329985+1068710166+1070514356+1070026281+1068988506
924+1065916596+1061621706+1060070394+1060813543+1061766094+1064789077
912+1068625940+1069987259+1070361392+1070025417+1068642093+1069618909
901+1072192307+1070418563+1065760175+1066015846+1068478759+1063890172
889+1056828436+1056654598+1062177255+1068730043+1073603285+1073741823
878+1068302661+1061815686+1060278335+1063880733+1065545720+1059665548
866+1052492263+1051431420+1052231540+1050098886+1047308839+1044851776
854+1043785748+1046475282+1049437371+1047669876+1042366727+1035943769
843+1029000029+1022720131+1018308506+1014447446+1011291442+1010919702
831+1009929259+1004235290+997588238+996115236+997851952+997786938+998887135
818+1001289354+1001647599+1001740933+1000799085+998014689+995578832+993053963
804+988215887+980705829+974646435+972657504+971734868+970565933+971390649
791+971888629+967805070+961991043+958724687+956029637+950894009+947134659
777+947950267+948328655+945425398+942826673+943023113+944539989+941877644
764+934651510+930597466+930591616+930529659+930573202+928518526+924213331
750+921712925+918802754+913967936+911206807+911855491+913049222+910473431
737+904980755+902027906+901693060+901579052+902088533+903203156+904636071
723+904753004+901376762+897186174+897705427+903878364+908990060+906270877
710+898577142+893682362+892615403+891038299+890420327+892257623+890732039
696+886100774+885651388+887814688+885723449+880801679+878523640+879654416
683+880535837+877234381+873692345+877517109+883891073+883173917+876795100
669+868307827+865035555+870602818+874070533+874146184+876659819+880208038
656+878710175+873700455+871928506+871789104+866201166+859509574+858180429
642+856461463+851937027+849774923+851282226+855636348+855546072+847640873
629+840226143+832180943+821575175+815944758+816164333+817870336+814046436
615+802683760+796504375+800576766+812643835+825119671+821058182+814661816
602+825050602+844717473
##END=
