##TITLE=Sample description
##JCAMP-DX=4.24
##DATA TYPE=INFRARED SPECTRUM
##DATE=25/8/2023
##SAMPLING PROCEDURE=Instrument type and / or accessory
##ORIGIN=Default
##XUNITS=1/CM
##YUNITS=ABSORBANCE
##RESOLUTION=4
##FIRSTX=4397.6552
##LASTX=599.8556
##DELTAX=-1.9287962
##MAXY=2.0547426
##MINY=1.1764082
##XFACTOR=1
##YFACTOR=1.9136281e-009
##NPOINTS=1970
##FIRSTY=1.2468195
##XYDATA=(X++(Y..Y))
4398+651547428+647335170+645181511+644599490+646109705+650738590+655290853
4384+655111132+652151127+651157960+653252564+656776151+659799011+660202059
4371+658496362+658951053+660782523+658849699+655227437+655140909+657974829
4357+660125249+659401320+656908652+655564639+655653783+654680052+652353711
4344+651588916+653622969+656406742+657089992+656112834+655701190+655563082
4330+655924642+655751649+653637235+652993604+654648655+655409089+654943497
4317+655290915+656913449+657877026+657249094+656398955+657168733+658864774
4303+659179550+659033531+659385747+658603821+657143192+656905911+658011023
4290+659925968+662183536+664080665+665289996+666280609+666279800+663529479
4276+661230860+662372850+663229841+662877439+663849613+664628735+663484627
4263+660850487+658038059+656937681+658203452+661116050+663728075+664793132
4249+665001944+663713498+662347683+664316575+666514340+664915105+661999267
4236+660501137+660570907+661172365+661130876+660550038+659957302+659448789
4222+659049292+658651788+657689705+657068189+659150396+663278244+666932152
4209+667805776+664504395+661574042+662525659+664381549+666139200+667083964
4195+665020757+662748862+663591525+665533569+665245268+663665282+663315559
4182+662837196+660565363+659097383+660405265+663007012+665963777+668618600
4168+668949946+667027276+665351481+665384186+666671510+667009771+665660526
4155+665453333+666822762+667392013+667480534+668791281+671624329+674325997
4141+675046250+673503268+670574410+667452626+664608801+663823511+666087993
4128+667880093+667150745+665948764+665456572+664947810+664245061+664192920
4114+663792364+662567833+663002215+665002193+666578317+667551363+667501153
4101+666821454+667045902+667983441+668579728+668995359+669745577+670142022
4087+669442325+667987365+666907919+667116046+668215676+669470046+669438837
4074+667142210+665296599+665655729+666334868+666220308+665537680+665228386
4060+666356921+668549764+670887442+672421330+672803509+672906545+672726824
4047+671369294+670298008+670906442+671461054+672504494+675538941+676916655
4033+673655267+669550967+669261296+671667188+672840575+672039213+670827951
4020+670149933+670930426+673439042+675142621+673951978+671630060+670305670
4006+670254090+671316467+672799211+673205000+672577939+672164488+672416284
3993+673664549+675082195+675324148+675017470+674675347+674015457+673456048
3979+673051194+672273629+671502667+672299855+675241171+678181179+679172229
3966+677977787+674963398+672317048+671312979+670927560+671437382+672763890
3952+673823962+674161476+673054558+671293169+670714138+672354737+676399234
3939+680217226+680848834+678606841+675579495+674601216+676495043+677845036
3925+676924504+676194906+676138779+674504721+671995295+671926521+674536429
3912+676726469+677304939+677683319+677077563+674280521+671962092+671875315
3898+673241069+675038526+676208860+676053871+676806082+679554408+680536799
3885+678970954+677582027+676127067+676689839+678916509+679006151+677842046
3871+676300372+672755106+669921560+668250997+669170283+674213305+678302405
3858+678820138+676015995+669579872+668535187+674458809+679579389+680149076
3844+676585184+673963690+673960388+672465497+671701263+675592826+680593425
3831+682822773+682539207+682004965+682419289+680352967+674650615+674697710
3817+678383015+679701424+681517134+683199097+681153332+675698540+672851663
3804+673205498+673473117+677154746+682694882+684627020+683938413+684027868
3790+684974688+684964410+683597161+683093133+683550253+682286102+681365321
3777+683521660+685581316+685691080+683908885+681918625+681878881+682276073
3763+682430377+683068153+684793846+687266331+688005522+684833403+676555033
3750+670677945+673232098+678559559+682526997+685107003+687039827+686511815
3736+681377220+675469046+675471289+678158255+678881810+678585598+679631156
3723+681788366+685084390+688227417+689146703+688844697+687440072+684155697
3709+683720816+687542173+690929895+689875678+687273121+688643983+691692073
3696+693608077+693573566+689830016+683470515+682215024+686096059+689966815
3682+692838798+693858005+691509424+686155239+683741997+684019022+680422052
3669+678705703+682543069+685015180+685166557+685809253+686890194+686116243
3655+683450768+680679517+675198188+664089386+659941604+666817965+672823693
3642+673529868+673525569+674938916+674048473+670581076+667508255+662137001
3628+654380911+653382449+656046553+656876757+653413471+648836789+648683855
3615+648661616+646454819+646065102+646493442+646079492+646763802+646989932
3601+644856269+642061097+640043365+638660542+639087698+641633567+643411650
3588+641652317+638662722+637281021+636810882+636613843+636496978+635583547
3574+632458773+628610380+627025535+627080106+626091922+624981390+625226583
3561+626135528+627005601+626970778+624828020+622062375+621755760+622895632
3547+623113664+623177330+624951364+626718671+625495510+622836203+622261719
3534+622991255+622479315+620453672+617676752+615260332+614752753+616407181
3520+618537480+619985775+621186447+621037624+618248307+615626813+615906953
3507+617481208+617869305+617443457+618323622+619989388+620618940+620143630
3493+619803001+620623924+621360686+620035922+618724739+620156276+622509840
3480+623296375+622515571+621062854+620731943+622069103+623310641+623091736
3466+622098008+621487518+621161902+621808586+623390877+623466440+622597364
3453+622235368+620439655+618108767+618817683+620761284+620184495+619346193
3439+621217532+623256756+622612066+621119791+622123300+625266016+627089574
3426+626639058+625526782+625110777+626038223+626888611+626828870+627046529
3412+626923932+626581310+628595056+632124623+633716008+633320934+632885368
3399+632861509+633643310+635042828+635661478+636092310+637352349+638668329
3385+640153066+642635518+644955007+646288491+648204745+649855062+650108727
3372+651689771+654610157+656906472+659545533+662428791+664655647+667579707
3358+671029226+672921309+673890057+676312706+680903093+685884879+689214168
3345+691395736+693158433+694071053+694745645+697497335+703732184+710386526
3331+713448133+713985925+715345449+717803607+718923731+716917648+713563068
3318+713228793+717486339+723271978+727102866+727705694+725716742+724689125
3304+726806404+728445757+727613497+726666801+725074606+721699966+718855082
3291+718173950+717730784+715106237+712306330+712186786+712857827+712532959
3277+711381500+709214945+707946434+707609979+705510765+701784222+698294835
3264+697815289+701438859+704773567+704307415+702722009+703001651+703852413
3250+702671426+700342157+700182744+702631993+704590420+704086019+702440000
3237+701296390+700477648+698986807+697046383+695744544+694694064+694466875
3223+696080064+697508860+697919570+698239205+698255527+698367097+699215927
3210+699905034+698810512+697065507+697317988+698148193+696449784+694112915
3196+694533842+695926382+695389961+693963345+693632123+694371564+695587187
3183+697460519+699109465+698752889+697314251+697623483+699892948+702263270
3169+703424135+702835012+701532488+700907732+701312898+702854822+704490001
3156+704509686+703927665+704808577+705711542+705161602+704866511+705590378
3142+706129790+706341157+707276016+708314846+708277843+707318439+706241360
3129+706805254+709211831+710791131+710004782+708903533+708959785+708920290
3115+709397532+711431211+713274081+713521579+712668575+711906272+712092659
3102+713341609+715093467+717108956+718557313+718318225+717553306+716833986
3088+715405564+714229623+714589189+715696544+715974254+715991323+716972156
3075+718278045+719252711+719626480+718256054+716271401+717169071+719975332
3061+720190000+717555922+715653996+716229913+718066117+719649778+720371340
3047+720280390+719501330+719251340+721797831+725548795+726398248+724859066
3034+724141366+725005459+725488992+724256175+722982618+722186863+721299036
3020+723057933+727925532+729899720+726205881+722837970+723622574+725322104
3007+726161714+726456556+725427569+725423271+728508177+731258684+731901443
2993+733167773+734304033+732838296+731760469+733462989+734419091+733246888
2980+732788460+733263458+734344898+736845852+739109524+739942220+740478891
2966+740994630+740773359+739855443+739043928+738550801+738507195+739659526
2953+741776369+742601652+740595071+738781479+740404075+743041952+743337666
2939+741900523+740616563+740924175+743284840+745833574+746546166+746100010
2926+745932436+745972803+745325808+743803445+742642829+742465102+742238847
2912+741711832+742117683+744065271+745931440+745697335+744066392+742106096
2899+739825293+739386861+742424984+746190773+747568301+746976063+746226344
2885+746439828+747774123+749007126+749370243+748944644+747590478+746555448
2872+746862063+747918398+748600527+747684543+746512277+747064708+749040329
2858+752211015+755449790+757219152+757623384+755611632+752037150+750567177
2845+750878839+751409965+752764942+754031522+754046846+753359111+752974689
2831+753782404+754654097+753865506+753403776+755394285+758240290+759529110
2818+758800820+758190205+758986147+759848994+759862138+758912826+757806033
2804+757834314+758834958+759775424+760356199+761188584+762565364+764060566
2791+764853082+764838256+764841121+764876878+764877065+765298802+766064718
2777+766799112+767151390+767002505+766412697+765348264+764273178+763866393
2764+763993350+764149212+764572381+765942931+767309495+767456884+767944716
2750+769570924+770814144+771622483+772632408+772730273+771595820+771267775
2737+771792797+771346641+771142251+772741486+774713743+775649848+775095112
2723+772811755+770817009+771545860+773946643+775397305+775176469+774480448
2710+774628212+775454180+775926562+776601216+778278880+778632653+776549823
2696+775335633+776483790+777902370+778241005+778313392+779019878+779066288
2683+777659607+776617101+776835632+778243435+780241980+781248852+781713635
2669+782423548+782847215+783254126+783411482+783168719+783593384+784226362
2656+783871094+783115644+782618717+782670485+783736475+785253481+786905791
2642+788289174+788167823+787418104+787674510+788370905+788095623+786878070
2629+786386376+786982102+787176960+786736785+786760706+787627664+788629678
2615+789247083+789815835+790488994+791565948+793316186+794165328+792770607
2602+790966111+790460961+789890963+789039391+789840566+791459549+791930934
2588+792113271+793162504+794202518+794072695+793250029+793064577+793550789
2575+794023420+794959775+796038473+795742261+795032286+795787674+797492873
2561+799042583+799874968+799464818+798596925+798418762+798082868+797233975
2548+797652285+799474661+800537661+799573273+797632912+797094434+798178117
2534+799353995+800902335+802216882+801866224+801175997+800764352+799675375
2521+799175084+800912925+803178529+803904576+803870750+803845084+803816616
2507+803490377+802653881+802854533+804834016+806280940+805666650+805094720
2494+806191921+807174249+806858538+806703050+806975466+806428641+806129065
2480+807284137+808521625+808836651+808351810+807844418+808454409+809687599
2467+809729399+807983584+806102527+806338750+808799959+810993114+811582735
2453+811361775+810453764+809284240+808869169+809421662+810637846+811494339
2440+811069986+809990477+810002126+811390867+811875770+810415515+808903431
2426+808907729+810288994+811942114+812778548+812480965+810886589+808832913
2413+809015811+812116415+814757657+814669012+813279337+812241317+812207864
2399+812737994+812758115+812893233+813974237+815266980+816507770+817322276
2386+816768786+815764405+815199017+813749788+810625761+806909745+803827081
2372+801914378+801349675+800480100+797168503+793933342+793879207+795077325
2359+794456806+793167737+794355888+797328601+800530248+803467390+804426109
2345+802785635+801280715+802049683+804193811+805893216+805919816+804714659
2332+802543557+800646241+801827726+804923160+807499055+809668163+810895248
2318+811320598+812333264+814094030+816024736+817754167+819260022+820407182
2305+821008702+821489743+822326862+823383010+824430001+825161654+825491008
2291+825862534+826130776+826315917+826596431+826480313+826181173+825637401
2278+824994455+825658020+827169295+828281633+829047175+828780116+827254826
2264+826256487+826939551+828276338+828838175+828408527+827844509+828145082
2251+829328374+830587105+830984609+830369820+830097342+830918327+832161546
2237+833412054+834396999+834681375+833957322+832876630+832707624+832667817
2224+831430889+830268778+830622613+831760554+832288254+831880783+831516919
2210+832020573+833213084+834868572+836401774+836856651+836188850+834838857
2197+833765453+833891351+834488635+835312236+837178280+838754715+838385680
2183+837240014+836747884+836610026+836331817+836244542+837182641+839166858
2170+840097544+838510332+836691071+836677055+837074870+836758475+836874841
2156+838048789+839129294+839199999+838849590+839021960+839542496+839655998
2143+840101967+841746615+842808930+842072915+841323134+841481612+842043076
2129+842934703+843947868+844828967+844799314+843378679+841946581+841415704
2116+841381753+841773713+842682097+843426771+843133486+842120758+841426170
2102+841743438+843077982+844321512+844667748+844862606+845009684+844081116
2089+842462321+841711730+842308141+843162267+843803779+845104809+846258760
2075+845652942+844252739+844104539+845551214+847103603+847714654+847945394
2062+847894935+846986426+846075176+846221694+846674453+846991161+848122125
2048+849598078+849667599+848502934+847714155+847880421+848263846+848034974
2035+847647438+847895807+848110538+847662887+847688864+849159522+851290568
2021+852888495+853324186+852813430+852283861+852185559+852391880+852269720
2008+851698538+851334611+850720570+850339886+851568591+852942443+852671460
1994+851202670+849745842+850064792+852259503+853938663+854139003+854037649
1981+854338721+855238259+856426908+857146601+857671187+858008078+856902779
1967+854696729+853703998+854134082+854519064+854751487+855179515+856085283
1954+857595810+858389322+857652623+857045995+857823249+858633643+858260247
1940+857769862+858135346+858887869+859296585+859517421+859996905+860263278
1927+860022882+859588811+859057186+858642613+858253083+858175589+859261825
1913+860596992+861189479+861700857+862602950+863082247+862799989+862722681
1900+863011729+862924018+862617278+862472878+862373892+862096243+862131814
1886+863420321+865641882+867136711+867075849+866664765+866938302+867700106
1873+867706149+865539657+862447836+861833919+863637232+866052655+867810431
1859+867817844+867058531+867317989+868814438+870260738+869841681+867292324
1846+863572383+861925306+865514552+869620534+870380532+869920857+870436908
1832+869449223+865361555+863145414+865219149+867934210+869545344+870998746
1819+872882980+873963922+873150475+871248362+870381528+871977898+873655686
1805+873135835+871265867+869218732+868137043+869009670+870373991+869579170
1792+867941810+870336115+874339061+875626510+874305360+872425798+871366598
1778+872331546+873771679+871929432+867222803+867109052+871526945+875284324
1765+877067329+876509416+875563904+876779278+877874858+877330899+875724563
1751+872142979+868033322+867507864+869508341+871581017+872507031+871700000
1738+870275752+868069017+865671535+867784703+871802662+875063863+877920147
1724+879575198+879490352+876913772+869964775+863556187+865810515+870453666
1711+873029560+873384081+871094680+868297141+867091921+864393181+862704989
1697+865604506+867970964+870373305+873248091+874913109+874280816+868009961
1684+858874724+861219629+868130377+871917160+871160277+867768942+866044868
1670+866385061+868913175+871568122+870953458+868490691+869157682+871527069
1657+872362693+869712792+861240062+858231093+857958304+854218803+854662280
1643+859002990+860176376+857768491+852049632+847365179+852247107+858628223
1630+860544602+859596660+858981622+860138501+864015176+867566920+867323347
1616+866956803+872048291+877265801+878596794+877986491+878814390+881501169
1603+885434470+889782156+892086694+891918871+892447817+894931952+897221476
1589+898258126+899240953+900545346+900892204+900404995+899417185+895952654
1576+892832239+896583390+900628634+900008239+899247930+900798014+902248489
1562+903356403+899809082+888308259+888165043+894884483+900503795+904538449
1549+908346039+911047582+908407461+898431991+886851928+889794179+901954083
1535+907633572+906647381+907131226+909708055+910202552+909231997+907736358
1522+906142294+907364582+910409371+914324606+918515371+920396241+918297090
1508+911671465+908610667+916347321+922544793+924140165+923799474+925537004
1495+929138148+930701065+927501162+922264590+922534638+926149737+928779890
1481+929403337+927792827+924372276+921070023+918682695+917565124+919970082
1468+922605156+921922155+921198662+923552288+923931166+918812206+915204646
1454+917926497+920843332+921906145+921638402+923025460+926777420+929976450
1441+930219712+927967066+926087130+927504589+931281342+936055312+940936305
1427+942722798+939805154+935592274+932676748+928959735+927897981+931996612
1414+935018538+934940856+934103177+932809374+929547114+926018045+923554157
1400+919931833+916737225+916080761+916294371+917401476+917286542+912843295
1387+906860181+905974409+909326810+911647482+910982172+908541582+906138369
1373+906527837+909241653+911392633+913252074+913887108+911122398+908737874
1360+910384764+912878180+913952892+913903741+913718165+914357186+914693516
1346+912348923+908589051+906321080+905472063+905372454+906424490+907948286
1333+909195866+910409308+912328614+915001564+916758405+916842317+916481878
1319+916318292+917081903+920184750+925562420+930669481+933714332+935907424
1306+937607701+938202119+939121717+941646716+945446332+950652006+956153892
1292+959208772+959941236+960059471+960446447+962092466+965425555+969314377
1279+971852707+972531037+971505725+970116237+970561957+972234264+973929370
1265+974492267+972862383+971044618+970193919+970151247+972439152+976117541
1252+978403391+980401188+982833182+983343813+982956089+983850707+985126756
1238+986018133+986270428+985587426+985462587+986548138+986692476+985924753
1225+986238533+986903531+987085744+987592513+988306350+989817500+992621207
1211+993361208+991873855+993553450+997766019+998341312+996022696+996466921
1198+998671288+997513164+994653267+996504609+1002224839+1004152929+1002390606
1184+1001646867+1001168068+1002138934+1005726436+1006183307+1002232937
1173+1001666178+1008136065+1016738369+1019184441+1012872222+1006664036
1161+1007230235+1011405053+1014458313+1014348612+1013271533+1014444857
1150+1016916034+1018609459+1019411319+1019949111+1019289595+1017699081
1138+1018889911+1022586802+1023590435+1021385133+1020720571+1022691644
1126+1021789365+1015629582+1010408210+1010083591+1011378390+1011305443
1115+1011082365+1012519322+1015895643+1019383909+1019795056+1016540520
1103+1012894649+1014942843+1023313846+1027064684+1021639670+1017498118
1092+1021937253+1032692842+1042957424+1045900360+1040229966+1032566010
1080+1030489472+1034988285+1040621801+1043518638+1044514796+1043419340
1069+1040574457+1038305365+1037711258+1039106166+1042025866+1045368112
1057+1047251163+1047621319+1049952021+1053418483+1053070254+1050800228
1045+1050791008+1052321345+1055029803+1054032835+1044945503+1040012806
1034+1047957213+1057191810+1058134955+1057136119+1056385963+1052427869
1022+1049175701+1050020047+1052204978+1053656325+1053856541+1051837064
1011+1048982338+1048839309+1051777261+1055012361+1056191852+1054473260
999+1050347593+1046351873+1046950403+1051192561+1051031342+1045366119
988+1042244209+1044105955+1046407939+1047774689+1050128315+1052948779
976+1052381148+1045683075+1038614846+1039294421+1045584774+1051250745
964+1056071872+1058582233+1056089190+1052073411+1049358101+1048624641
953+1051553498+1054301576+1051703504+1048202655+1048468405+1050299502
941+1052507981+1055024321+1056324540+1056714507+1055922115+1052799521
930+1049215819+1048493198+1052941678+1059707154+1061274369+1058614003
918+1059125070+1061884236+1061353608+1058965471+1059526997+1060171376
907+1056709772+1054490703+1056534973+1059723351+1065801091+1073741823
895+1073676040+1065915465+1063138358+1068105131+1070624835+1066468892
883+1061513706+1059128434+1060698764+1065178765+1066751088+1063874933
872+1058215938+1050508314+1044739681+1045340578+1051460056+1055285711
860+1053491991+1051553498+1047232100+1038632600+1034143691+1033827607
849+1031189168+1027718407+1026721315+1027325762+1025145441+1016928680
837+1008533320+1007182330+1009604481+1008035272+1004797494+1007898535
826+1012654564+1008109465+998770836+996099941+1003848680+1013828138+1010863897
812+996729058+989016450+994549608+1001648237+997929107+989623576+985679997
799+982149495+974467723+967708850+964277460+960613149+959065930+961416379
785+964361807+966120455+960242992+948871680+947153773+953475834+956559121
772+956237990+950458580+940618103+938015858+944149726+947657178+942402478
758+935361409+931856511+931430227+932313693+930407718+924859235+920473051
745+920554782+922107482+919351369+913625532+912110520+914665546+914930860
731+911774875+906575804+901744710+901441084+905816056+910338417+909055515
718+904203054+903454580+906669184+910551901+916149971+920974525+917859219
704+909087473+899787777+891695357+890184394+895295941+899619456+899426965
691+897087293+892642364+886065704+884439682+888358717+893689604+900008737
677+902488262+898625167+892247913+886745404+883517344+885801449+892537709
664+895156026+894520930+895744215+895239875+892169920+893522716+897401197
650+895934588+890681819+883725347+869741261+853637529+854586218+878232182
637+890799494+867565923+850375020+864607102+883576773+884147083+879096835
623+886385464+903217673+921746172+947117144+961962269+950364951+944658862
609+940319212+926058724+916022329+899913115+889220754+909412216
##END=
