##TITLE=Sample description
##JCAMP-DX=4.24
##DATA TYPE=INFRARED SPECTRUM
##DATE=25/8/2023
##SAMPLING PROCEDURE=Instrument type and / or accessory
##ORIGIN=Default
##XUNITS=1/CM
##YUNITS=ABSORBANCE
##RESOLUTION=4
##FIRSTX=4397.6552
##LASTX=599.8556
##DELTAX=-1.9287962
##MAXY=2.0771701
##MINY=1.2904701
##XFACTOR=1
##YFACTOR=1.9345154e-009
##NPOINTS=1970
##FIRSTY=1.3617586
##XYDATA=(X++(Y..Y))
4398+703927486+706749726+711034571+714476977+715395458+715326564+714042479
4384+708763912+702693931+701215982+705200356+710550528+712863274+714729814
4371+717769765+717695695+715308262+713378067+711672793+711090586+709731875
4357+705965459+702611665+700937880+701238536+704067307+707047670+707076262
4344+705820831+707299212+710912497+712370481+711166751+712141246+715667212
4330+716171714+713358594+711929080+712807753+713200656+712707062+713191906
4317+714789834+716615887+717519578+717509904+717841555+718232117+717372486
4303+714961144+712803624+712413555+712957433+712451761+710590644+711477019
4290+715852510+717033009+714062136+712217596+711380026+710422353+711025143
4276+713094789+716454992+719769655+719104319+713773805+708544352+708992470
4263+713302949+715569849+715217616+712407516+708256946+706702154+707182869
4249+706889424+707070532+710023780+713813059+716568192+720111104+722599228
4236+720743472+717497887+716847033+718015515+717180902+714097692+712254939
4222+712610623+714777571+718372308+720095575+716815420+711409666+710023349
4209+713779228+718644802+721973392+722381516+718784992+714109400+711963281
4195+711956995+713025279+714644282+715409384+715905999+717210666+718013050
4182+718045278+718701864+720097486+720444604+718682268+716757619+716576449
4168+716952777+716695873+717334958+718610355+717082183+712950038+710973626
4155+712142971+712689499+712443503+714065957+717335143+720211672+720866594
4141+719288385+716834585+715506193+716722248+718442249+718372000+717831079
4128+717745301+716016857+713475800+713887622+716083964+716776660+716400148
4114+717067764+718879706+719791223+719343660+718238896+717541393+719411013
4101+723958801+728077882+727625574+722596393+718012927+716912845+718310747
4087+720237553+720768121+719088112+717696989+719486254+721853475+721517140
4074+721110618+721966613+722263140+722979992+724289712+724348931+723101018
4060+721412567+720210871+720348042+722741329+726802362+728396900+725173869
4047+720878918+719499503+720647958+722586965+724356819+725425165+726498317
4033+728807921+731461069+730621712+726318750+723423364+723063798+723955535
4020+725786148+727018163+726690517+726969358+728439543+726964798+723141011
4006+722383673+723835741+724085558+723530772+724238196+726525924+728383035
3993+728456859+726529745+724022333+723391691+724179901+724918876+725435271
3979+725265132+724281024+723461817+724214163+726543733+728095814+727104064
3966+725031460+724357250+724589566+724655502+726155327+728568765+728923031
3952+726586992+723350219+721840226+723000512+724431752+723342762+721986024
3939+723830934+726226193+725060484+722015726+722845471+726962888+728739952
3925+727456359+725867428+724352197+721903142+721322968+724733023+727692804
3912+727907003+727630997+727828003+726374949+722924655+722484117+725180586
3898+727460673+729765593+731327410+730013130+728186953+727603575+725401194
3885+725446301+730684875+733370251+732877889+733591352+732675275+730283837
3871+729915520+731038525+732011849+730861299+728947927+730356674+732586107
3858+731674036+726659644+720898699+723293711+728765340+732417447+734200304
3844+732122461+725830578+720187639+718880569+721860068+726541330+730064708
3831+731285569+730627443+729374538+730162995+730195594+725651812+725674057
3817+729481021+729235456+729097546+731743053+734038360+732998977+731859088
3804+732645080+730290985+729444664+732689941+734225569+735562403+738258255
3790+739497480+737946077+735452407+735167281+736501157+735931644+734472489
3777+735700252+737915450+738173709+736811672+736517733+737227376+737147883
3763+736854068+735443965+732407279+731742375+733715336+734555186+730862963
3750+726845559+729390437+731793398+730573954+733876910+738491311+736820607
3736+729958163+726071953+727625574+731724813+734664566+734819484+734935149
3723+735932753+735394112+734606764+735835020+737041769+733112916+726492648
3709+729759924+739859079+746501778+745509351+741459842+740724873+741076181
3696+740273982+738354448+735118044+733278496+736239262+740873259+744402800
3682+745864850+744423197+740573960+734296804+729599213+729885079+728926914
3669+727110288+729716788+733291991+734671344+734915738+734391826+731492681
3655+729553736+731050172+729646724+720530259+715694018+719693675+724076992
3642+724743745+722960335+721527431+720716851+720292397+720067661+715978281
3628+708603694+707016550+707239993+706148292+705074832+703224499+701224239
3615+700626441+701407689+702726221+701661265+698166479+696225007+696112731
3601+695745277+694134840+691699342+688976006+686965086+686538351+685350581
3588+681948044+681296820+683898760+685884046+686500084+685734303+683059649
3574+680756516+682304468+686658330+688768894+685931433+682860301+681414950
3561+680312835+680095185+679769696+677445611+675086894+675167435+675664357
3547+674897899+674320190+674480223+675114378+676900870+678305920+676637866
3534+673868129+672242902+670339697+669033243+669760571+670161116+669280780
3520+668878509+670465099+673428269+674499449+672609924+670216638+668636395
3507+668857866+671833792+674276808+673417854+671648124+669791998+667694745
3493+667076673+668149826+668651246+667493856+667395569+669533061+670555807
3480+670047053+670964979+672583858+672700571+671331323+670149284+670703146
3466+672319868+673526864+672844890+670195686+669863049+673455629+675659550
3453+673650294+671317890+671210236+672077508+673530377+674784452+673698236
3439+672173947+673778222+677008031+678589629+678433109+676946594+675732635
3426+677001807+678358484+677572738+676479435+676045183+676918309+679646575
3412+681809887+681827388+681318942+681124524+680570478+680131481+681804896
3399+685096328+687075328+688028255+689174553+690022230+690707161+690099504
3385+688015006+687585622+689777158+693804483+700180604+706149648+708071216
3372+708840817+711198671+713207681+714370864+715385413+716627164+718313027
3358+718829853+719898815+725875501+733544334+736618547+737378042+739833753
3345+741802770+742684154+745135920+748496369+750732950+751779050+754924930
3331+762809935+770172691+771606087+769713050+767433271+765557365+765581090
3318+767805285+769578343+768813303+769388978+775538206+781320473+779272086
3304+774428696+773152868+773562102+773353757+774550277+777113888+776369367
3291+772249300+770149212+770155560+768537604+765563096+764449335+765893145
3277+767209397+768229185+770318551+770158394+765794365+761906121+761232281
3264+759860445+757019226+756185291+756378292+756441887+756471588+755768540
3250+755958398+757141423+757174576+754840138+751368215+750139836+751768698
3237+754044471+754684850+753268646+752228832+752041438+751128935+750752485
3223+752171831+753740242+754046135+752869272+751089620+749826363+748676306
3210+749304176+753781529+757635449+756004491+751821693+749948930+750042103
3196+748531863+746110415+746553972+748559901+748035989+746615410+749555779
3183+755459627+757858891+756565131+754893318+753493691+752757428+751953318
3169+750142670+750787732+755879028+759897542+760171330+759772572+759107852
3156+759026079+760281572+760097445+757819638+756459264+757551643+758717845
3142+757725726+756121635+757024032+760643788+763012364+761221620+757244394
3129+754556121+754246962+755228482+756263367+756919952+758444057+760576496
3115+760556223+759242620+758583261+758186660+758918179+760163750+760287919
3102+760869510+762474771+763425973+763904902+765229781+766702061+767075800
3088+766758014+764753687+760399086+757581283+759148584+762334088+763788805
3075+764237231+764970967+765212588+764846429+764334101+763741418+763414758
3061+763492525+764579419+766634708+768332834+769084194+768165775+766969625
3047+768878622+771990918+771450491+767583630+764751099+765255231+766762266
3034+766629223+766525143+768154252+770145207+772175723+773693419+772683922
3020+771206343+771835507+771977608+770336113+769834507+771680157+774629154
3007+777110930+777855143+777025706+775928583+775957977+776796595+777033841
2993+777085357+776992800+775852603+776090403+779984809+784321540+785987437
2980+786123500+786275152+786764988+786434014+784627433+782730761+782427640
2966+785221965+789399464+789985615+786362779+783647824+784906151+787667631
2953+789472363+790718613+790969724+789735182+789495410+792092667+794691033
2939+794443866+793244326+792965300+791862877+789786391+790071394+792294110
2926+793001103+792541462+792321286+791967450+790803343+789475444+788744666
2912+786777004+784800037+786174338+788661476+789587042+790156864+791316657
2899+792204696+791420984+789452398+788385592+788509392+788249962+787681619
2885+788212434+789515314+790949758+792719859+793481942+791729034+789507365
2872+789395828+790578977+791787883+793147887+795103286+797606630+798393239
2858+796836043+796633306+798605466+799147496+796984491+794371952+792582318
2845+790986115+789985615+790777277+793448850+796515546+797924416+797995837
2831+798028866+797453314+796637065+797220505+798806231+799784917+799723233
2818+799444823+799422085+799152364+799084703+799860219+801003806+802683260
2804+804137978+803624048+802288446+802268111+803347487+803860246+802905655
2791+801913721+802324557+803007517+803099950+803467342+804207364+804914480
2777+805879116+807334634+808985927+810309204+810488772+809072137+807124626
2764+805649326+805346884+807195799+809160010+808276470+806227097+806039395
2750+808067200+811088172+813103776+812968207+812349950+812846195+812677411
2737+810649421+808807407+808644478+810547436+813136620+813536056+812597240
2723+812371456+812357222+812782169+813773117+813816068+813391860+814536001
2710+816966200+819519088+821058845+820564264+819547558+818755527+817157414
2696+815806530+816183289+817326814+817084761+815597815+815091773+816087034
2683+817395646+818929117+821146903+822986082+822938510+821126136+819962831
2669+820879462+822263314+822810890+822749514+822974004+823766282+824807268
2656+825807028+825416589+823967787+823417130+823769610+823866234+823459342
2642+823262643+822987993+822846569+823617033+823391619+821925378+822319575
2629+824596951+826138741+826216015+825310106+823856066+822631877+822249326
2615+822145061+822512885+825169237+828568508+829236679+827949943+827294036
2602+828108066+829704638+830747349+830464934+829635252+829106409+828547248
2588+828277527+829111400+830874907+832034577+831647713+831556265+833045923
2575+834292911+833694128+832749334+832821371+833104094+833685131+834959049
2561+836018582+836357567+836270371+836094131+835805123+835243744+835086175
2548+835811963+836128763+835388741+834416403+833039206+831399128+831099890
2534+832668548+835291624+838263236+840552751+841019478+839110050+836143737
2521+835031578+835907601+836605042+836671224+836758173+837238581+838542817
2507+840244332+840205448+838491300+837887710+838709751+839613319+840022984
2494+840036171+840131193+839592552+838506151+838920192+840449719+840853838
2480+840559345+840978684+841722404+841951577+841018739+839094706+838414272
2467+839947743+841756050+843002484+843953563+844154883+843669977+843173301
2453+843038780+843084688+843481597+844246515+844311896+843656543+843667635
2440+844520303+845096595+845348137+846061045+846993452+847393196+847226816
2426+847117313+847626560+848264844+847651887+846369342+846545705+847922285
2413+849199777+849795541+848654296+846336559+845204495+845475387+845719226
2399+846291574+848084105+850081284+850294805+848420008+847089706+847894370
2386+848549600+847618241+846691503+846027153+844544705+842649573+839961917
2372+835166408+829793806+825756436+822629474+820725222+820772671+821741435
2359+822335228+821885323+822361294+826952771+833350891+836667527+835917645
2345+833038158+831251420+832540127+834788478+834858050+835123518+838208762
2332+839388521+836394848+834497313+835605282+837343277+838864608+840038451
2318+840821424+842688827+845925969+848030617+848258681+849058292+850756664
2305+851739479+852402904+852954177+853110267+853906057+854965159+855382096
2291+856658725+859532912+861217974+859791048+857438062+856567154+857205007
2278+858085158+858295783+858053977+857951499+857777540+856912855+856221453
2264+856428381+856690276+856276359+855459863+856164144+859060393+861882817
2251+862817627+861767275+860466798+860543765+860982207+860587516+860157947
2237+860900250+862362547+862721188+861578341+860793088+861784653+863751821
2224+864587728+864206286+864646454+865041884+863838894+862648782+862237269
2210+862652233+863950184+864021604+862308935+861151176+861272078+861324889
2197+861109519+862023562+864272407+866016749+866139932+865536465+865374028
2183+865601476+864796381+863066828+862994237+864619463+865578923+865762865
2170+865755471+865043302+864402984+865322512+867126813+868116221+867735272
2156+866354994+865401081+865618423+865912854+865724721+865477246+866007937
2143+867700886+869478751+870548946+870331419+868420758+867088053+868379595
2129+870355329+871113468+871401367+871205778+870318417+869671136+869230229
2116+868562859+867999693+868044246+868807931+870010614+871312508+872017652
2102+871282929+869531685+868747480+869258452+869349098+869502106+870904137
2089+872322497+872267715+870759509+869210448+869121958+870256240+871362545
2075+871886889+871893483+871977289+872798468+874089763+875350617+876055515
2062+875981506+876162306+876629834+875636668+873817331+873130119+873080020
2048+873146696+872673744+870882631+870218712+872620071+875905957+876978863
2035+875929867+875471705+876126319+876016200+874808957+873673874+873304695
2021+873950374+875039733+876011270+877500188+879274417+880174719+879873263
2008+879335608+879307631+878984361+878079807+877091139+876904732+878620728
1994+880349665+879299128+876885690+874900035+873340251+873602392+875388761
1981+876879466+878124915+879253958+880301538+880993371+880398654+878849346
1967+878013132+879555661+882111200+882653722+881671709+881766916+882715345
1954+882781280+882047605+881636215+882145831+882390780+880955350+879663932
1940+880596585+882338216+883279928+883055253+882017410+881427993+881728956
1927+882614161+884473860+886480590+886527485+884519399+883300079+884900718
1913+886196696+884406569+882274252+883192671+885849578+887878554+888949981
1900+889230177+888381392+886629593+885883840+886813905+887406712+887518864
1886+888386013+888920895+888568046+888095156+887514243+887424890+888274231
1873+888214334+886407691+884771866+885080100+887016766+888836103+889295127
1859+889800184+891335996+892201851+891875438+891033800+889314169+887110555
1846+884913843+883342290+885004305+888630223+890980867+891566094+892002010
1832+892022345+889394154+886419769+886384090+887818657+890700362+894165261
1819+895335037+894057792+892598514+891844195+891403719+891595241+892598021
1805+893712337+894289615+893859060+893270813+893557049+893268102+891114834
1792+889029227+890003537+892669503+894622375+894809029+893502205+892758917
1778+894473865+896027548+893713138+888905551+887989536+891720519+896392414
1765+898553015+896318652+893509045+894166493+896031862+897940613+898558253
1751+895442753+891691680+892105659+893856471+894045467+892445013+891277209
1738+892412168+891245227+886002216+885955692+889612790+892547121+895779395
1724+898588941+899878696+898526887+891724648+883554086+885601795+892518405
1711+896508818+896260419+893327814+891779061+894270019+895235332+890050000
1697+885980834+887215621+892515447+897268991+898405923+896947877+892456659
1684+885960375+887256970+892015197+894594152+893459069+890042667+888017142
1670+887021573+887386377+889162454+889050302+887018984+887536858+890000579
1657+890349793+883958759+871546118+872506563+876913975+875165196+874730820
1643+879120053+881999602+881089009+876327639+870345592+870840604+874355787
1630+875867875+876661077+878833756+879573408+879190426+880669238+881208926
1616+882066585+888561452+895435666+897068472+894892281+895728187+900755334
1603+905391735+907237199+906871224+905994462+906477335+908829704+911966033
1589+914612957+916389959+917848128+918826936+918273260+916434759+913440901
1576+911203210+913690348+916113830+914443927+911955187+911480079+913111222
1562+917517956+919679851+912673395+910976502+915364379+919767293+922709141
1549+924069700+923530320+918872167+909289222+900490297+907642736+919956781
1535+923316614+922019341+924241996+927644101+927458618+926477160+927312820
1522+925681000+921872988+920547986+923767627+928967071+930272108+926597693
1508+919289843+917378874+927762355+936915423+940175920+937051793+933387300
1495+936059674+939874279+938211155+933045173+932923284+936523505+939116017
1481+938782332+936153217+931933445+926279907+920739754+919885608+925122763
1468+929173505+927866127+926913939+930376311+930260215+920339579+914833688
1454+921584658+925302331+925983935+928375188+931666435+934163371+936550742
1441+938833910+939201980+935110444+932165206+935667756+940022358+941952060
1427+943852122+944910978+942679388+938729214+934290313+933233799+936321569
1414+936965460+935050178+933924461+932268424+929002565+927070583+926066694
1400+922450143+918463057+917056959+916654935+917579578+917718967+913280190
1387+906974134+905651904+908513212+911409399+913778468+915833017+915714332
1373+914571978+915522564+917135836+917564419+916241881+912886423+910579531
1360+912428816+915134898+915458538+915087141+914934009+913310447+911323374
1346+911221882+912847417+913424325+911766438+911003739+911671971+911254727
1333+909980008+910236048+913870901+919543480+923673345+923284940+919020246
1319+916743486+920580399+926015855+928630366+930889748+934075744+936374256
1306+937530352+937853499+938703024+942143274+947630925+953854037+959631190
1292+962135520+961347001+961381879+963644157+965869831+966850981+967743642
1279+970278229+973129924+973272210+971437344+970987563+973656610+977109246
1265+977854999+976872801+976306369+975789850+975545087+976968069+980250874
1252+983273324+984233461+983962508+983930403+985239260+987950826+990263635
1238+991398039+992270241+992346222+990321128+987219062+985376185+985434110
1225+986944966+988941651+990105142+989961932+988830670+989511781+993091728
1211+994859426+994633333+996909291+1000165106+1000844984+999139895+997436963
1198+997512635+997428952+996261826+997593422+1002268213+1006334176+1007040367
1184+1005311061+1002831995+1001202086+1002099430+1004563952+1006717528
1173+1007952685+1007409978+1005892344+1006972151+1012041510+1016005672
1161+1015113505+1013887652+1014489517+1014042078+1014455502+1017579814
1150+1018507045+1016595706+1017250196+1019809001+1019197954+1016605134
1138+1017733438+1021413091+1021433364+1019000578+1020502190+1025312242
1126+1026233249+1023149484+1022077071+1023467640+1024467646+1023696690
1115+1021850917+1021079714+1022488215+1025650918+1028407715+1029284230
1103+1029000028+1027189195+1024637662+1024273968+1026045609+1027819222
1092+1028754833+1029277760+1029402483+1029251509+1030569733+1032659345
1080+1033617449+1035743172+1039884560+1042618741+1042921430+1042081888
1069+1040468000+1041768107+1048776781+1055088137+1054868638+1052753761
1057+1052504190+1051735267+1050736247+1051481384+1052558172+1051841751
1045+1048622848+1047024982+1049812528+1051492352+1051817472+1056157777
1034+1059761695+1056216071+1051119291+1049714179+1048482226+1045715139
1022+1044756912+1047239181+1052115600+1056492879+1057038729+1054588996
1011+1052554844+1052544122+1054718403+1056906364+1056234804+1052294551
999+1045677179+1040988831+1043213520+1048907174+1051687449+1049284179
988+1043930557+1040534675+1040759350+1042869174+1045166330+1047358482
976+1049430347+1049098449+1046186796+1044287103+1045739911+1050102769
964+1051884517+1047279482+1042746669+1042986010+1044604705+1044036794
953+1042110357+1042323077+1045137984+1048156614+1050476570+1053932842
941+1059816293+1062998961+1059841804+1055353359+1052924085+1051967091
930+1051856787+1050860724+1048194204+1048123338+1052597363+1055895266
918+1055688338+1056144959+1058776231+1061325792+1062001666+1060533823
907+1057479821+1056655931+1059987849+1061446326+1056969589+1050877732
895+1048468546+1053125713+1063636752+1071923349+1073741823+1072006416
883+1066746953+1058825776+1054405362+1056329333+1060539862+1063657334
872+1063215748+1056177865+1046881032+1041087304+1040041450+1042480831
860+1043444603+1042217827+1042464932+1041479591+1037053015+1035693874
849+1040809018+1043680986+1037879124+1030544160+1027391316+1025533034
837+1023608077+1023984959+1023935600+1018228265+1008634166+1001003292+999176314
824+1002590374+1006701198+1007628059+1004965791+1002276286+1001978342
812+1000802650+996350809+989644022+981834197+976552488+978025877+984413830
799+988700338+986643263+980079995+974721258+973088822+970415092+964857746
785+960534203+958495614+957893626+958558530+957429302+953463475+951747787
772+952140198+949887102+945303327+941748583+941550467+940397083+933827468
758+928530970+929474469+931461418+929100298+924803067+923608149+924494832
745+923506411+920945511+919216389+918322681+918301052+920919691+923234841
731+919500037+912648438+909431261+909973414+911578798+913244880+914542831
718+915263257+915326790+916892181+920600365+920551745+915616230+911955064
704+910706165+910234631+911226750+911254603+904857223+895989651+895411325
691+902268963+906906226+907098056+906822050+905133229+896850021+887056882
677+886174389+893084344+900111443+899245526+885709202+875784500+884850619
664+896385327+898971677+892465903+883558153+881031269+884583301+887645683
650+890224638+894723805+898339062+897303931+892826948+889911782+892317208
637+901372728+917401613+930964866+924784888+900164993+877064580+875532526
623+890747010+882724095+856424622+852002606+852164672+839763862+850023482
609+884718932+911828985+928577803+933597925+920070043+912506953
##END=
