##TITLE=Sample description
##JCAMP-DX=4.24
##DATA TYPE=INFRARED SPECTRUM
##DATE=25/8/2023
##SAMPLING PROCEDURE=Instrument type and / or accessory
##ORIGIN=Default
##XUNITS=1/CM
##YUNITS=ABSORBANCE
##RESOLUTION=4
##FIRSTX=4397.6552
##LASTX=599.8556
##DELTAX=-1.9287962
##MAXY=1.8166138
##MINY=0.30774379
##XFACTOR=1
##YFACTOR=1.6918534e-009
##NPOINTS=1970
##FIRSTY=0.49414343
##XYDATA=(X++(Y..Y))
4398+292072242+292563847+292397049+291464518+290490909+289932912+290063282
4384+290475390+290634420+290771166+290793379+290704546+290494661+289482034
4371+288227973+288135335+289010334+289845928+290481925+291016264+291318224
4357+291257645+290683830+289671203+288809997+288839802+289428255+289513037
4344+288954529+288590599+288961575+289406711+289564984+290057751+290524924
4330+290098742+289162899+288676015+288555510+288291353+288435004+289033692
4317+289022559+288174775+287113160+286527226+286609366+286988850+287355880
4303+287276330+286742801+286594957+287176329+287778962+287822436+287488100
4290+287029453+286664907+286537478+286603500+286899171+287147810+287110025
4276+286920574+286714018+286571599+286251337+285718196+285302671+285090954
4263+285374735+286153819+286455902+285854696+285189740+285154844+285343714
4249+285030182+284487546+284421031+284722233+284843126+284564542+284325803
4236+284538489+284745379+284499683+284159586+284276850+284772330+284933140
4222+284584958+284383475+284484551+284540567+284540145+284448563+284033725
4209+283257230+282527380+282406469+282876883+283500936+283905839+283857644
4195+283482352+282892983+282140779+281842079+282268401+282804590+282938378
4182+282660287+282283480+281920642+281783244+282165212+282427308+282174583
4168+281941499+281835297+281677623+281581585+281558122+281499763+281412074
4155+281276367+281009268+280542500+280183415+280499413+281248041+281476757
4141+280970919+280597865+280657210+280419123+279873317+279667712+279762376
4128+279807207+279889910+280136576+280449333+280678718+280538167+280026534
4114+279497919+278995640+278477260+278314636+278647352+278924263+278941226
4101+279063088+279238712+279113151+278695812+278245215+277984510+277986642
4087+277906968+277618079+277539321+277603881+277466007+277360615+277505764
4074+277497080+277264295+277433190+277928723+277961839+277299403+276492909
4060+276292589+276615845+276500078+275737710+275241525+275504397+275924942
4047+275830806+275757175+276365463+276796894+276431238+276021050+275945499
4033+275855380+275737463+275493881+274826247+274462599+274930018+275203477
4020+274822988+274574526+274738805+274811873+274450832+273782089+273263533
4006+273392476+273959597+274293088+274156976+273682563+273240017+273198973
3993+273427583+273668700+273852814+273830091+273515131+273106776+272813218
3979+272651951+272779697+273261824+273604510+273468785+272889633+272079880
3966+271606525+271601047+271653892+271684102+271936915+272184955+271722310
3952+270529849+269406247+269187272+269613119+269710725+269846098+270569712
3939+271058904+270679120+269373465+267725493+267354059+268403343+268872665
3925+268289162+268046477+268093281+267620859+267556141+268764419+270030106
3912+270473921+270134600+268348983+264898132+261941351+261448637+262866853
3898+265603479+267701748+267258831+265541297+265554104+266093851+265293786
3885+264415916+264002663+264265059+265873784+266206993+264196448+261908376
3871+260721658+261192195+262203025+262070946+262469455+264292574+265032271
3858+263302759+259120454+255161193+257959948+263114312+265947733+265930206
3844+263730121+260434565+257084860+256196051+258655554+260941213+262270544
3831+263709194+264585656+264413485+263193774+259860733+256544109+257398675
3817+259532069+262210776+265402983+266609694+264929680+262076812+260650334
3804+259427998+258455111+260076871+262110545+263998665+266191104+267434613
3790+267411538+266679802+265853791+265589933+265313322+264472971+264934348
3777+266860887+267616719+266148898+263584531+262500281+263225675+264268441
3763+264661172+263459922+261888981+261991942+261510607+257710200+252581501
3750+252524499+255089464+256283334+257718866+259399039+259308990+256454501
3736+252178378+252438220+257743968+262035504+263239503+262591634+262124813
3723+262717635+264155686+265916219+266867616+265867584+263138726+263191677
3709+269370012+277666644+285685907+294285943+305324538+317385801+328684819
3696+338637825+344603879+344786337+341665066+340052360+339113047+335831408
3682+330236153+323687213+316355840+307969459+303132468+301459483+298098610
3669+296231154+296956758+296452189+294229874+291462897+288447000+284985650
3655+282174970+279306935+273863665+268691369+270910742+275364074+277086629
3642+276272243+274278679+271820250+268646820+264645494+259892898+253838927
3628+250071196+250992224+250997191+247843403+242647238+238869290+237722647
3615+236476355+234819963+233460528+232040180+231385089+231238636+229709426
3601+227079584+224962202+223155888+221364458+220518224+219788339+216932053
3588+213065800+212266846+213170117+213252645+212618568+211819473+210901193
3574+209843295+208331894+205366640+200791975+198021194+199272189+201037408
3561+201418371+201093882+200441186+199061688+197602269+197053151+196337252
3547+194689368+193521851+193684950+194273280+194292991+193648487+192986684
3534+192487892+191508945+189916761+188729162+188421936+188460126+188677832
3520+188926576+188869961+188637352+188224663+187413413+186715182+186662777
3507+186662073+185983941+185225853+185263197+185524202+185562708+185722408
3493+185736394+185232353+184809782+184919261+184894776+184405743+184272589
3480+184696217+184770853+184230366+183571205+183299103+183553608+183899447
3466+183801630+183161705+182567580+182635187+183209107+183838727+184031385
3453+183636963+182960645+182202047+181897427+182359122+183015922+183649681
3439+184211359+184400440+184448424+184687480+184907758+185026907+185289356
3426+185563836+185458673+185233463+185586806+186450444+187316301+188082121
3412+188649841+188970526+189429032+190458833+191990316+193375275+194222072
3399+194873024+195662784+196672486+197979410+199507687+201121238+202621137
3385+203948512+205525142+207472484+209581973+211903180+214447730+217194924
3372+220070675+222850211+225549704+228683200+232630624+236780393+240262846
3358+243284926+246866605+251436814+256350466+260812992+264819691+269035975
3345+273670744+278325153+282878574+287226919+291110840+294714662+298201695
3331+301416502+304201711+306336179+308121901+310271060+312602889+314426343
3318+315810016+317145389+318449617+319627933+320759110+322164873+323610340
3304+324220460+323759858+322689629+321502436+320098540+318100097+315873149
3291+313610795+310698581+306903458+302789501+299056102+295980842+293294736
3277+290771219+288653750+286788054+284956550+283646949+282650898+281161974
3264+279228143+277458450+276187919+275168968+274081530+272985284+271999326
3250+271106165+270087179+268985314+268304416+267952095+267383318+266564194
3237+265709188+264939298+264062326+262872666+261697522+260809910+259877185
3223+258491416+257176900+256770711+256798913+256522443+256207941+255991979
3210+255641225+255313424+255230280+255241008+254877466+254005795+253269480
3196+252987761+252918022+252992024+252792549+252082956+251495824+251323865
3183+251224621+250977726+250726551+250697310+250843481+251067740+251215285
3169+251077411+250834163+250714115+250646349+250670940+250899163+251244209
3156+251532482+251510357+251217205+251193653+251555945+251842579+251872173
3142+251802117+251727059+251599948+251423831+251239330+251110210+251153702
3129+251237550+251313313+251555293+251872684+252235187+252600438+252680358
3115+252569717+252579405+252692389+252711695+252504136+252247535+252319581
3102+252668961+252971009+253276174+253582608+253613787+253397596+253231766
3088+253255723+253296608+253221620+253153185+253114801+253026250+252841202
3075+252626931+252551714+252376020+251829597+251245389+250869340+250654294
3061+250611947+250694668+250790089+250716951+250425578+250080955+249811301
3047+249751586+249988457+250311749+250395527+250273383+250103678+249723948
3034+249116699+248701738+248612394+248505505+248481372+248797846+249114092
3020+249236976+249364633+249460354+249269669+248882910+248840775+249311030
3007+249868973+250179741+250276131+250385380+250722306+251314088+251994352
2993+252630789+253195479+253692315+254137857+254618734+255335901+256257475
2980+257030518+257509316+257750151+257746223+257656174+257562725+257294745
2966+256961043+256742879+256527798+256270281+256035101+255888454+255956872
2953+256176375+256279635+256348017+256709886+257202636+257351185+257165556
2939+257023401+256953310+256693275+256324483+256169839+256111797+255811670
2926+255339988+254973539+254746549+254378462+253780902+253253327+253025739
2912+253203177+253586307+253777802+253769259+253734962+253885660+254366061
2899+254812765+254912731+254886837+254775755+254466908+254283111+254472457
2885+254794251+255049918+255291141+255474691+255498313+255442314+255418569
2872+255357022+255182173+255045391+255023513+254992105+254952806+254949617
2858+254970051+255014036+254943329+254655250+254297098+254031672+253948405
2845+253993606+254053321+254231481+254524898+254860520+255381260+256019987
2831+256443738+256436480+256211059+256277715+256750066+257256785+257549285
2818+257822056+258275225+258645866+258706110+258747893+258920592+258953744
2804+258921209+259101465+259444204+259879775+260297907+260464441+260496377
2791+260665624+260829427+260857999+261010106+261355805+261582847+261561480
2777+261576065+261808938+262064411+262223952+262344774+262350746+262213030
2764+262181693+262452474+262894650+263329287+263712400+263982388+264097257
2750+264149750+264286532+264524496+264759940+265035178+265385385+265584983
2737+265507476+265376173+265416353+265530482+265625850+265842640+266175339
2723+266525159+266968885+267517105+267945172+268098301+268162632+268382399
2710+268700688+268953888+269136118+269284578+269459920+269696492+269879761
2696+270019643+270181826+270242686+270240291+270315472+270411264+270546971
2683+270802638+271068945+271171254+271105566+271151260+271401519+271580701
2669+271707548+271897915+271971159+271948577+272007746+272170669+272385469
2656+272513425+272549854+272716564+272978889+273087328+273092860+273156838
2642+273293990+273462426+273530932+273520363+273603154+273792711+274080948
2629+274415725+274614988+274597303+274505792+274601196+274938632+275296432
2615+275478238+275526398+275622524+275818018+276080625+276432982+276781939
2602+276956576+276997461+277062954+277253374+277598332+277944189+278138555
2588+278190432+278113154+277973113+277931559+278089003+278341799+278505321
2575+278545413+278529190+278558343+278716686+278866996+278735886+278432341
2561+278377241+278589662+278798103+278948783+278991060+278806893+278578406
2548+278616138+278881846+279079682+279152239+279289620+279425961+279458884
2534+279580077+279764314+279855543+279930390+280019981+280064371+280059175
2521+280123752+280335398+280572640+280800052+281053129+281301733+281552450
2507+281770790+281909369+281950007+281944476+282102008+282512301+282988828
2494+283319870+283475095+283530125+283553588+283630655+283758013+283870838
2480+283963952+284040049+284125184+284246728+284374949+284403556+284340371
2467+284374967+284490417+284557760+284590683+284582879+284575111+284670057
2453+284783587+284737699+284636130+284727236+285002878+285270083+285374418
2440+285386519+285498024+285635334+285619586+285564750+285672819+285890120
2426+286104832+286347639+286600646+286813614+287020786+287212862+287357941
2413+287445770+287483009+287612199+287884970+288150942+288385752+288636610
2399+288893440+289176886+289430228+289574760+289717144+289989175+290276268
2386+290242200+289678320+288677125+287272314+285370595+283036459+280430256
2372+277838921+275542604+273382101+271217793+269476302+268607627+268682703
2359+269509824+270889622+273038376+276332980+279957447+281882488+281140272
2345+278934533+277445714+277259169+277728720+278336620+278747495+278991941
2332+279458303+280541919+282028888+283316065+284311817+285391593+286835510
2318+288661360+290435597+291626472+292374871+293224469+294350538+295489025
2305+296378346+297011013+297520092+298054150+298675790+299286931+299728932
2291+299992490+300278843+300732575+301244860+301625912+301803719+301857622
2278+301944888+302138514+302360183+302580056+302896425+303295198+303584686
2264+303660149+303701862+303901900+304152917+304361974+304653998+304974736
2251+305078877+305059394+305236427+305601590+305957241+306246588+306544813
2237+306915859+307206862+307290253+307365223+307610743+307952478+308263844
2224+308449086+308494321+308581798+308844688+309119097+309289401+309418908
2210+309509802+309640929+309881729+310100334+310295862+310587816+310905700
2197+311107148+311164538+311187226+311292776+311465018+311725864+312104308
2183+312417824+312587599+312706290+312776504+312879447+313139729+313515074
2170+313795613+313754429+313624077+313885838+314350175+314538375+314656468
2156+315023286+315400710+315614875+315824602+316029396+316140266+316274036
2143+316479992+316691022+316957435+317218879+317353600+317517562+317826075
2129+318170311+318478260+318669702+318723851+318832501+319088873+319327735
2116+319480599+319709421+320037063+320291673+320508305+320863004+321257479
2102+321519699+321758385+322035154+322249073+322444179+322714537+323107180
2089+323627955+324204289+324816981+325468708+326106025+326661925+327078947
2075+327443829+328002477+328827009+329603662+330069514+330450108+331023588
2062+331748030+332578445+333446734+334171599+334769564+335400998+336085630
2048+336723511+337243441+337605539+337932477+338523432+339286522+339866203
2035+340283718+340683019+341051106+341350423+341575299+341765120+341900581
2021+341838188+341530310+341294372+341513047+341989467+342243478+342215188
2008+342121335+342087725+342200145+342435695+342630695+342782151+342886292
1994+342707110+342516760+342898552+343586496+344275708+345089952+345898490
1981+346546130+347100198+347681852+348366131+349128059+349699355+349937900
1967+350489396+351884695+353498353+354725392+355669918+356572274+357621752
1954+358863940+360079635+361016094+361627094+361927926+361957908+362467973
1940+363907698+365250328+365870277+366109597+366284339+366362269+366412191
1927+366348494+365698740+364911094+364596311+364372704+364711479+365814824
1913+366403911+366053263+365676580+365979421+366536131+366816177+366856410
1900+366786760+366502874+366164380+366225082+366355082+366479762+367403644
1886+368603767+369305415+369889993+370529424+370980373+371178122+371209688
1873+370675912+368984784+367509899+368782279+371339371+372805166+373224901
1859+373344367+373544793+373890896+374211916+374197048+373497056+372065223
1846+370489086+370555213+372619432+374142582+374489989+374717084+374783493
1832+373563923+371799726+371723875+372643917+373678492+375098523+376028676
1819+376218356+376334511+376335427+375651253+374878545+375232716+376208844
1805+376499354+375694128+374676992+374852192+375680917+375350808+373838509
1792+374056338+377017945+379201207+379621012+379361787+378960267+379110137
1778+379899403+379495310+377046834+374950063+376525002+379810411+382369793
1765+383364699+383039910+383078910+383492268+383723344+384160553+383427056
1751+380782910+378889524+379947704+381938115+383066685+383373682+383850032
1738+384082518+382367503+380466542+382585297+386168579+389038904+390500895
1724+390566000+389729631+387058428+382257231+380415739+384482805+388562660
1711+390252556+389529734+387282035+385724148+384892147+382673760+380429585
1697+381339973+385523158+389546116+390303957+388858031+386400395+382429543
1684+380422856+384385781+388075917+389010685+387902795+386707111+385542852
1670+384552420+386936073+390011932+390121358+389300983+390339821+391117919
1657+389021747+383511856+380074709+383303081+383681138+383412964+388599546
1643+393917889+395773403+394832787+392104018+392875246+400005946+405580274
1630+408290476+410414199+412643261+414998306+418812982+421987556+422923029
1616+425557380+431040074+434736481+436181455+437195773+438785755+440307074
1603+441734644+443481049+444691741+444746313+444699598+445561403+446789358
1589+447905527+449169558+450581909+451896601+452819144+452441122+450559784
1576+451059387+454833054+456466898+456549654+458706916+461848022+463622506
1562+462775532+458331501+457008988+464834572+471639039+476502029+479965775
1549+482960816+484454795+483113152+479959821+479297666+489894648+500993558
1535+506091253+510985282+518172985+523406423+526696694+530287903+533122786
1522+536874752+544498959+553105918+562900633+572415056+578304343+579675369
1508+578753214+588193301+605242269+615517070+621687812+627235259+635938502
1495+646825325+654281272+658300213+664267183+675513073+687117046+696085997
1481+703539618+710473521+716406177+720801590+725626602+736690634+750934419
1468+761985626+771420182+783443677+794370381+799138320+799528320+805403480
1454+817358276+826443206+831807031+836255431+843030022+851468685+858582545
1441+862743676+863370495+863511487+869793558+878523154+883846183+887010082
1427+889887066+891262742+890680806+887100202+879886499+875249264+875938018
1414+875836625+872456129+867210184+861948033+857174739+852718589+848503274
1400+843475193+837653866+833640632+832419829+832156587+830938602+828254047
1387+825352332+825089302+828101218+832276864+834245467+831871855+828002080
1373+828124822+830761605+831503345+831604879+831555416+829173772+826951369
1360+827506740+828022513+827662247+828124399+829567788+830800570+831818516
1346+832915238+833258171+831772506+828624319+827768291+832160603+837869123
1333+840646687+840866595+840760058+840536416+840314817+841142872+842596336
1319+844253432+846793332+850041503+853427072+857125064+861356163+865344031
1306+867871881+870353791+875033725+880293903+884835522+889964432+895321705
1292+899914197+903353950+905866511+909218329+913564279+916327116+917021225
1279+917532066+917996473+918573053+920046740+921002118+920469152+920060903
1265+920259320+919471710+918131123+918818750+922113707+925367726+926567813
1252+927634026+929726570+931057151+931857867+933925186+936417383+936993752
1238+935822765+935267534+936156819+936897714+936696830+936713318+937463162
1225+938680865+939987771+940500866+939731646+937905867+935279512+932411054
1211+930441746+929140688+926608892+922370254+917891627+914104643+910834206
1198+908301283+906393205+904110347+901877375+901079829+901655846+901874979
1184+900652485+899523633+899524196+899388630+898011545+895703673+894418821
1171+894586869+893734506+891657111+891089197+892754678+894754425+896481137
1157+898094829+899173513+901178826+904329621+905971075+905487855+904773735
1144+905176629+906326761+907760919+910739296+916086493+920681944+921703554
1130+921684671+922813312+924716386+927443077+930706327+933275749+934102606
1117+934639658+936157735+937122836+938164317+941237745+944429970+945712779
1103+946515256+947654466+948723497+949943525+952288389+957694562+964173077
1090+966731719+967511508+971103809+975051796+976585516+977502140+980093828
1076+985957009+992874847+996751246+1000193114+1006280853+1011251367+1014060427
1063+1017206711+1018780875+1018722111+1019314827+1019957570+1022102678
1051+1025333586+1024235243+1020867289+1022436873+1026317641+1027061424
1040+1028512353+1033438547+1038023006+1039671929+1039980124+1042019400
1028+1044640611+1043702566+1040336444+1039079072+1041305984+1045369527
1016+1048048023+1047075241+1044876443+1045410747+1047989963+1048845568
1005+1048994593+1051192264+1052888536+1052205067+1050349906+1047422049
993+1044843608+1045114248+1046428130+1045514395+1043781060+1043448555
982+1044860589+1048129828+1050889846+1049666788+1046369577+1046028335
970+1047715166+1048351074+1049286300+1050148810+1049549753+1049805596
959+1052396579+1055672653+1057592709+1057900693+1059075415+1062294133
947+1062608176+1057961571+1055068733+1056190469+1057282470+1058583528
935+1062035189+1065650531+1066749226+1065008563+1062118333+1059782770
924+1060075957+1064781750+1070743013+1073511980+1073741823+1071293734
912+1065285615+1061032885+1062845418+1066812641+1068053455+1067476522
901+1066446174+1063636269+1061207980+1061955851+1063491402+1063883023
889+1064765544+1066781215+1065881643+1059235713+1053549458+1055309427
878+1058113555+1053752245+1048243622+1047261610+1046498872+1044661960
866+1042764522+1038955906+1034630743+1031674843+1028715209+1026494286
854+1023873075+1016128732+1005866967+998415036+993362929+988570328+983334459
841+978364721+974906788+973688169+971916292+965835246+958724487+954688705
827+950797721+944972377+940002920+937949341+939866578+944318994+946636590
814+944287428+938080962+931673471+928672336+927628037+925481872+923144548
800+922049024+920940253+919677596+918552197+915540422+909564080+903783479
787+902688589+904979903+904775285+900811092+896454221+893485850+891343208
773+888868133+886298076+884556216+882459303+879729160+877186654+873469919
760+869125660+866553913+864949521+862624668+861019501+861398369+861337420
746+859325272+857520420+856058852+852751987+850109215+851455721+854433393
733+856985693+859300400+860551853+861151263+861301838+860321658+860015576
719+861539431+862765590+861495605+858210653+856121633+855022374+851512582
706+847590525+846273472+845557098+843950592+843207865+843375773+842006368
692+839328789+837111106+836281431+836274526+835182807+833992442+833690941
679+832950116+832966534+834797457+834803728+829052086+820093563+819294045
665+826086674+826785011+821826757+817643995+814529699+811448168+809642259
652+810649072+815823570+821467337+820021059+811341561+801976550+796941705
638+799673469+801371151+790259347+782786067+791695267+800574028+797991712
625+788759942+780916038+778069212+775281432+771130799+769795075+773257235
611+780317122+785082031+784623332+781115160+776652387+773326921+774123620
##END=
