##TITLE=Sample description
##JCAMP-DX=4.24
##DATA TYPE=INFRARED SPECTRUM
##DATE=25/8/2023
##SAMPLING PROCEDURE=Instrument type and / or accessory
##ORIGIN=Default
##XUNITS=1/CM
##YUNITS=ABSORBANCE
##RESOLUTION=4
##FIRSTX=4397.6552
##LASTX=599.8556
##DELTAX=-1.9287962
##MAXY=1.9463273
##MINY=0.61739796
##XFACTOR=1
##YFACTOR=1.8126586e-009
##NPOINTS=1970
##FIRSTY=0.73796815
##XYDATA=(X++(Y..Y))
4398+407119220+406995647+407075519+407116030+406121994+404631301+404075522
4384+404757635+405570950+405647796+405102605+404627289+404999683+405935189
4371+406332145+406256878+406230341+405684723+404525781+404025508+404631860
4357+404883279+404415592+404588324+405251793+405170803+404002063+402861206
4344+403083952+404152171+404735374+404355089+403898253+404324343+405053413
4330+405421532+405131640+404264563+403803518+403667549+403030945+402901060
4317+404313985+405962645+406420698+405730232+404549917+403901574+404391522
4303+405232228+405258731+404603647+403997558+403648511+403970430+405390590
4290+406920906+406869543+405280729+403631576+403003686+403629800+404666617
4276+405362146+405967709+405875211+404357160+403194404+404006041+405703696
4263+406684974+406269965+405077549+404511773+404658528+404454295+404120735
4249+404900970+405922200+405515806+404537323+404183245+404149310+404139676
4236+404477378+405078404+405217200+404873316+404421445+403973554+404162825
4222+404930893+405006424+404420492+404390043+404952398+405083204+404351702
4209+403750282+404071050+404336674+403879641+403397913+403106707+402992177
4195+403201276+403312945+403554697+404332104+404629591+404041949+403728579
4182+404140859+404771019+405549214+406122651+405683539+404672733+403823610
4168+403164908+403077047+403628419+404151349+404144740+403760114+403816408
4155+404556395+405096916+404930235+404597070+404465902+404059574+403471274
4141+403706186+404362290+404072858+403626512+404266174+404695225+403831337
4128+402934271+402968107+403362039+403395513+403036798+402587098+402406146
4114+402685680+402853906+402340710+401532196+401269170+402046511+403190688
4101+403776686+404143885+404646361+404774438+404407141+403857709+403309558
4087+403019075+402896686+402926774+403602146+404482705+404624133+404039746
4074+403290322+403114269+403705858+404153914+403787538+403161522+403004409
4060+403435662+404025705+403847712+402982937+402738390+403106049+403001516
4047+402564902+402550960+402843055+403031767+403026079+402748123+402273268
4033+402035232+402476021+403120451+402998556+402414531+402111881+401831032
4020+401484648+401577015+402013332+402245745+402316048+402386647+402133386
4006+401700291+401838135+402492035+402485952+401578659+401250328+402085049
3993+403032984+403408534+403201178+402667002+402315719+402316213+402557570
3979+402938513+402979451+402454056+401880948+401654979+401794598+402173404
3966+402660689+402984252+402900862+402781302+402774791+402576313+402241438
3952+402027834+402007446+401966310+401990150+402302073+402604361+402750425
3939+402736943+402206714+401168319+400356715+400696325+401882000+402437483
3925+401930074+401582572+401987059+402448038+402592524+402831678+403321495
3912+403724502+403877504+403230509+401265586+399184127+398263254+398143463
3898+399311645+401195119+401938985+401189200+401007919+401842442+401829388
3885+400962607+400455395+400472165+401292681+401560147+400250603+398911762
3871+398412211+398436939+398908177+398607270+398116105+399296190+400798162
3858+400422940+397103424+392820618+395209988+400637334+403394362+402997504
3844+401145499+399164365+396455607+394190171+395069547+397346820+398913439
3831+399583484+399604299+399678679+399654510+397683701+394904773+395375945
3817+397009742+399014815+402017804+404116461+403836598+401370744+399542841
3804+398542886+397041277+397427119+399199319+400971058+402942163+404503816
3790+405234694+405229597+404712291+404133132+403702569+403111869+402851802
3777+403399196+403911767+403737918+402979221+402771897+403488472+404258447
3763+404611604+403933009+402487826+402034936+402342880+401480242+399754144
3750+401820444+406723677+410267188+412063292+414066754+416075477+416640397
3736+415782231+416217266+419314825+422675575+424234269+423821002+422360627
3723+420286994+418016856+416445240+415517297+414947938+415016531+417157309
3709+421884588+427384571+432345250+436733971+442720713+451106657+459679341
3696+466875105+471689259+474132490+476231146+479300131+480730681+479132562
3682+475091572+469343919+462045594+452307458+444879840+442170557+437953318
3669+434227572+434126525+433915354+432165613+429729879+427261361+424776237
3655+423240792+421815305+417532399+412426216+413935257+418252262+420671456
3642+421166435+420764053+420092133+419105462+417722032+416065415+413229764
3628+409962071+408803689+407539096+404515555+399840132+395341846+392673896
3615+390319678+388329599+387899497+387880820+387587475+387800849+387873947
3601+386685937+384716673+383411405+382802751+381625099+379660504+377120007
3588+374228456+372397562+371730344+371222836+369977282+367990788+366324371
3574+365341811+364598240+363458436+361202142+358568685+357428454+357032549
3561+356357045+355598710+355061871+354640154+354026863+353330841+352964695
3547+352851053+352498783+351722199+350922531+350341761+349838067+349363705
3534+348864879+347876564+346582048+346192884+346775364+346868125+345935776
3520+345210390+345471575+345736476+345264744+344826454+344707716+344310430
3507+343948986+344086369+344384876+344274226+343598163+342924336+342528892
3493+342007705+341476193+341458832+341876011+342129173+342184942+342524025
3480+342856960+342624416+342285792+342349058+342488282+342420347+342276914
3466+342166429+342159721+342346230+342574237+342663085+342663874+342610967
3453+342339851+341782954+341371627+341179265+340735385+340603559+341852928
3439+343916893+344859304+344343082+344092617+344789527+345417845+345475554
3426+345410413+345340242+345160047+345122462+345449774+346304947+347470795
3412+348334123+348941988+349643601+350230355+350621853+351268191+352479153
3399+353915425+354734559+355007615+355977023+357808016+359498469+360638175
3385+361622412+363084037+365158031+367572951+369921810+371765528+373421850
3372+375372568+377522159+380071634+383248308+386657099+390094992+393479417
3358+396334370+398774050+401888215+406016408+410059272+413492396+416789190
3345+420083386+423544560+427301214+430852749+433856461+436661136+439911073
3331+443321476+445664843+447088620+449118881+451902445+453978807+454811851
3318+455581169+456766449+457699949+458311234+458575148+458792139+459913858
3304+461424938+461913275+461221001+460523499+460605738+460060810+457299704
3291+453476035+450428983+448126094+446097379+444207197+441890103+439252602
3277+437065262+435487463+434242830+432830989+431113704+429569117+428662350
3264+428190421+427405320+426592565+426336148+425810226+424396675+422657194
3250+421032966+419689027+418842041+418330029+417963258+417771323+417485706
3237+416709976+415661421+414936659+414268356+413619027+413686238+413644905
3223+412448116+410928388+410103137+409995283+410255514+410268075+409707463
3210+409057936+408666470+408760185+409164738+409036957+408386739+407862692
3196+407606176+407597955+407732116+407716825+407880119+408210785+408024506
3183+407807581+407946805+408063932+408165769+408346524+408777153+409283509
3169+409530785+409682176+409591388+409003154+409047775+410315393+410964263
3156+409898806+408632799+409169374+410683578+410409108+408768866+408695045
3142+410742766+412202089+411491697+410570495+411693529+413929864+414186216
3129+412446965+411842750+413859299+415840203+414682017+412362128+413033357
3115+416795142+418550900+415932109+413427059+414629077+417591884+417583893
3102+414734761+414057415+417217813+420544924+419858372+416973102+416817042
3088+420255164+422516654+419776067+415877327+415497305+418072329+419526555
3075+417868721+415889099+416178070+418655828+419961984+417779741+415493852
3061+416112996+418382016+419098754+417622070+416304963+416134731+416404301
3047+416257382+415628703+415139478+415195839+415505131+415218429+414323566
3034+413595187+413611102+414541018+415402965+415230398+414795692+416526591
3020+425431387+442368411+454789886+451941444+441536945+433314000+428526940
3007+425552658+423350619+421971496+421743194+422017893+422005464+421864004
2993+422169186+423733897+426171604+427312362+426615846+426062599+427304437
2980+429412892+429687789+427990595+426693909+426940757+428396463+429483063
2966+429070356+428388900+428901406+431057277+432871796+431473832+428662581
2953+427849266+429691209+432498712+432908822+430779158+429335092+430078038
2939+432559841+434082068+432552409+430286118+429852070+431711276+434199754
2926+434066153+431484815+429523015+429613870+430958203+430968363+428834589
2912+427160675+427737301+429881631+431374297+430802471+429530940+429161473
2899+430171063+432018661+432683709+431687535+430902730+431225438+432199877
2885+432861636+432473491+431651693+431425166+431957697+432576249+432736222
2872+432675127+432614656+432625638+432925362+433308081+433402815+433405215
2858+433618064+433882800+433890001+433375358+432392535+431677539+431713151
2845+431976506+432135131+432696533+433746502+434506185+434674280+434774671
2831+434961574+435028523+435287966+436079249+437007290+437480633+437433775
2818+437217047+437270021+437727679+438320812+438887475+439328330+439506586
2804+439588595+439840573+440297770+440671381+440747997+440850820+441261456
2791+441732399+441920223+441886584+442099169+442736168+443213358+443100966
2777+442895122+443137926+443734315+444273324+444413041+444261058+444169152
2764+444238567+444496694+445037084+445756716+446248046+446299902+446417621
2750+446974978+447412150+447420831+447584224+448067728+448349793+448332037
2737+448474779+448904125+449286680+449537770+449716388+449828286+450133962
2723+450703058+451147530+451304347+451475138+451760558+451922043+452067285
2710+452425276+452811152+453120378+453434734+453689639+453906597+454159562
2696+454500389+455001780+455397027+455559039+455865536+456226322+456331645
2683+456525092+456959108+457302236+457414398+457352809+457390624+457542080
2669+457548197+457671933+457926871+457891160+457797215+458087765+458622039
2656+459074830+459376362+459535710+459694335+459955093+460009382+459852960
2642+459896990+460105530+460282734+460620798+461213471+461674516+461714402
2629+461674779+461865694+462006464+462086927+462442518+462769041+462714094
2615+462702849+463191251+464006276+464667739+464978906+465118952+465291355
2602+465590190+465921481+466167146+466494885+466833245+467007687+467374852
2588+467826558+467719855+467236154+467057504+467380968+467961277+468552372
2575+469087403+469426618+469327412+468936373+468707446+468799451+469075795
2561+469269999+469257964+469284599+469482452+469746597+470026690+470408159
2548+470904914+471096520+470843555+470789299+471235054+471659500+471757720
2534+471907171+472139814+472095817+472061653+472337602+472653010+473031159
2521+473777853+474622241+474909798+474555293+474161197+474275036+474745485
2507+475148558+475474719+475692072+475783649+476011919+476353897+476679334
2494+476941769+476910399+476661479+476725600+477255007+477848042+478313690
2480+478784962+479179617+479218714+479039505+479166661+479532708+479608437
2467+479493085+479543231+479600117+479558817+479606562+479622181+479522219
2453+479546026+479760452+480201570+480754160+480969901+480824561+480866059
2440+481443376+482123089+482288158+482064459+481890412+481957230+482193260
2426+482452702+482705766+482793430+482786591+483058561+483498068+483831069
2413+484169462+484649052+485142881+485429353+485499688+485522476+485650356
2399+486019001+486671882+487959032+491146196+497620519+508328226+524125610
2386+544581417+567546385+591184390+614702177+637766779+660784950+684331937
2372+707921868+730831462+753007711+773448425+788559092+796054579+797774528
2359+794641818+785242766+769851940+751581402+734009813+723704126+727280947
2345+740848572+747067103+740255044+730767801+723965739+721498964+723821056
2332+727707038+728400331+725577899+723309734+723354454+721864222+715366651
2318+704834799+694088816+689740113+693717113+697316885+691809997+677850215
2305+661495079+648680002+640172130+632555437+624294184+615111367+603871950
2291+591475992+580394674+571186077+562988746+555537848+548990920+543351252
2278+538667181+534921246+531688540+528579406+525819221+523768112+522112777
2264+520347450+518680672+517474577+516586060+515723685+514739514+513644134
2251+512587522+511817744+511419538+511169270+510852546+510391863+509886131
2237+509668350+509825002+509961004+509834637+509686008+509753648+509994774
2224+510250501+510294597+510132289+510150736+510418432+510770833+511385340
2210+512219634+512836048+513154087+513565150+514096202+514261864+514164827
2197+514419436+515011123+515571538+515990296+516269501+516570244+516964373
2183+517260183+517412890+517555632+517930558+518491894+518734369+518627501
2170+518552365+518604747+518878033+519322768+519495335+519154705+518634637
2156+518505507+518779944+518843703+518562394+518435895+518567063+518669328
2143+518817069+519251511+519992024+520716720+520906879+520826515+521179278
2129+521761494+522124681+522576913+523344685+523916248+524008812+524007628
2116+524203213+524449897+524532169+524601880+524895191+525301125+525612522
2102+525874693+526201512+526495152+526723652+526973723+527093711+527016405
2089+527151387+527602107+527949411+528225854+528731553+529357372+529854127
2075+530241022+530552484+530843033+531420482+532058467+532403009+532881153
2062+533751518+534749533+535564163+536026786+536435515+537193061+538034818
2048+538719431+539614031+540563215+541026463+541171343+541517036+542156468
2035+542878698+543601060+544154176+544361960+544250982+543927714+543812100
2021+544222900+544678552+544580792+544275972+544275676+544296425+544111823
2008+543952310+543917323+543951587+544136682+544399150+544456859+544313162
1994+544161180+544262556+544725377+545154723+545433270+545763936+545979645
1981+545977803+546111404+546633874+547282085+547733956+547982514+547956175
1967+547745892+547976661+548770969+549378900+549362525+549252631+549606282
1954+550152624+550636950+551217851+551700598+551743937+551520040+551869351
1940+553221871+554648838+555384484+555512331+555547449+555997347+556695967
1927+557007298+556683209+556221079+556090010+556245609+557061883+558383889
1913+559241134+559398312+559230415+559317882+559934757+560678886+561145357
1900+561382373+561400459+561164626+561146475+561490359+561815698+562302556
1886+562970727+563361962+563577013+563936419+564462340+565031798+565315245
1873+565024433+563980810+562753769+563374194+565565941+567123188+567433072
1859+567170736+567170538+567760647+568584549+569104355+569084297+568511287
1846+567443857+566980018+567942684+568824986+569102251+569609890+570310943
1832+569875251+568206335+567739405+568868259+570142322+571445651+572428376
1819+572740233+572779757+572854269+572735958+572326243+572256400+572847758
1805+573636082+574086769+573778726+573313439+573512049+573476471+572614359
1792+572544845+574344764+576268387+577279917+577345156+576977333+577096170
1778+577562772+576940439+574653465+572560300+573871454+576961220+578915424
1765+579161188+578354187+578287041+579316787+580082093+580571976+580331408
1751+578479271+576778657+577454194+578966195+579804565+579947604+580058812
1738+580396186+579612335+577725211+578643749+581518333+583714617+584730816
1724+584898122+584765803+583550731+579935043+577142732+579688885+583500223
1711+585425951+585038333+583020863+581250275+580427162+578756733+576943004
1697+577585527+580167785+583060388+584631051+584657883+583242688+579812260
1684+577019028+579949248+583572302+584712599+583643525+582023999+580657470
1670+579375844+580447154+582871906+583232100+582338421+583045130+583962485
1657+582765235+578508931+574192650+576177237+577257360+576185129+578447967
1643+582645609+584870303+584557920+581867150+580349296+584637561+589332911
1630+591564643+592563743+593873516+595828641+599108599+602286621+603487488
1616+605089521+609399949+613101592+614992792+616346957+618012913+619835916
1603+621740665+623300279+624165942+624784856+625889245+627849697+630151928
1589+632284420+634302021+635977777+637057044+637839844+637876080+636286017
1576+635735038+638604887+640642151+640940395+642316920+644615468+646234863
1562+646724088+644515900+642142840+647072050+652947091+657648294+661523556
1549+664937674+667114558+666695306+662809128+658442734+664638904+674522907
1535+679437517+682750883+687739084+691891216+694069678+695504142+696474569
1522+699094379+705845605+713451775+720589370+727178222+732145707+733911034
1508+731786105+734080642+744799003+752962465+757546935+760601977+765328829
1495+771734263+776216929+778097082+781021712+789013330+798409817+805570232
1481+811033124+815774247+818684738+819431630+820829199+826584876+834139947
1468+839612177+843829482+849769959+856118836+859056487+856824230+857344627
1454+866897504+876480960+882258406+884147042+884971010+888027170+893416274
1441+898964726+901912046+902704710+905379828+909028596+911267759+914061714
1427+917509701+919114167+919683100+918031743+911161483+905644598+905787768
1414+905369503+902418041+898811691+896431463+895002326+893408382+891033547
1400+886074611+879723104+875905057+874505844+874274614+872999959+868355051
1387+863109051+862528084+865172754+867561663+868581348+866956034+863015731
1373+862436671+866887179+869905327+868627383+865631332+863062490+862744780
1360+863969782+864421192+865124877+866777285+867251253+865836847+864981641
1346+866246168+867945467+867606844+865680853+865532816+868091334+871313879
1333+872949386+872249056+872439577+875148367+877204966+877483152+877729836
1319+878012559+878739064+881732681+886196013+889206532+890934505+894737622
1306+900362164+904231113+906646920+909706237+913027101+915729643+918031809
1292+920417496+922556433+924306568+926227232+928376363+930518983+932841404
1279+935098126+936918038+938837847+940121183+940517153+942100180+943701226
1265+942871799+941114824+940140715+940009119+940663875+942232038+944304685
1252+946286970+948653125+950792588+951297926+950949043+950691968+950281266
1238+949984403+950320725+951235909+952188119+952669452+952636504+952324779
1225+952670768+954167642+955538774+955750340+954931238+953977121+953446267
1211+952655444+951386774+949984272+949777310+951916773+954187964+954593996
1198+954020526+953252655+952140637+950763454+949785793+949338461+949373316
1184+950305007+952146161+954270038+955068424+953963048+953482701+955086444
1171+955797757+953215367+950811923+952497083+955693980+956855453+957387952
1157+958188508+958963218+960998049+963075825+963725780+965763176+969575501
1144+971874839+972743198+972620547+969658036+966196435+967147329+972363077
1130+977597041+980258283+980538639+980008640+979632596+979354740+979436485
1117+979946098+981810006+984348202+984807570+984674988+985660277+986347257
1103+986701730+988113768+990882272+992224994+992019676+995719938+1004417278
1090+1012598562+1016484938+1017831408+1018717656+1018253224+1018465316
1078+1021813867+1023109370+1020607213+1021459986+1026285485+1029212548
1067+1029926361+1031262111+1033759401+1036762621+1038477046+1039384601
1055+1042191907+1043365350+1038973571+1035349662+1038820536+1045772082
1043+1049427426+1048470810+1045638710+1044284414+1045608919+1047573711
1032+1047786066+1046499836+1045998050+1047494530+1051182033+1052930721
1020+1049050922+1047142030+1050929430+1053079087+1051221492+1049497663
1009+1050155180+1050655519+1048476202+1046188636+1045746368+1046276761
997+1046739615+1046381788+1046688515+1048469034+1048219982+1045029793
986+1043006339+1042258856+1040126889+1040717721+1046913892+1050737265
974+1049000940+1049467016+1052391778+1052013038+1050765544+1053529248
962+1058334819+1060616401+1059334183+1057148487+1056758764+1058230648
951+1059273613+1057926354+1057294090+1059783554+1060477045+1058085373
939+1057001239+1056191476+1054913927+1058087544+1064487651+1068070259
928+1068984720+1067840279+1065942568+1067310938+1069815856+1070605627
916+1071664047+1071811755+1068979459+1066299474+1066704388+1068750136
905+1068599929+1066036217+1067515006+1073001836+1072678602+1066826645
893+1063753320+1064063599+1065442623+1066966790+1069510576+1073741823
881+1073126527+1066011095+1060346633+1056507739+1052957159+1052130823
870+1050715365+1048567484+1050386738+1051617002+1050194244+1050426197
858+1046721464+1038407861+1034633022+1033373625+1029525787+1026723282
847+1026024793+1023166651+1017347839+1010834616+1005092092+1001851987+999146814
833+993439409+989512192+991381362+993022130+990412316+987366744+987969677
820+992352512+995243142+989856735+979061626+974286174+976481932+975767660
806+971388704+969070558+967161337+962135387+958005484+958746917+960943596
793+961727513+960756561+957171454+951629775+945179160+938523885+932244062
779+928277387+929007114+930948493+928887027+926000212+925817583+924381014
766+920290964+916389134+913085763+911297156+912232332+913633387+912491380
752+908764089+904773607+902225481+900580307+900236751+904082681+909006696
739+905654133+895093410+888171722+888778666+892515493+894976086+895725871
725+896034966+896141966+897374137+900902291+904353962+906022285+907085769
712+908201800+907159229+902200227+895586055+891037427+890237923+888186913
698+882212765+880395287+884190841+888598602+894473708+898937368+898417628
685+896429161+893870578+890211880+887377742+885410846+883095264+884222080
671+891916374+895546070+884244571+876215073+876613345+875595634+871057067
658+869042557+874506501+884065165+890712548+893037403+892619138+887496448
644+877787051+869033021+862668098+856980421+854183178+856219522+858644273
631+855829273+850789118+855820723+873399547+872565385+840297908+811500713
617+802602855+815666721+846843619+868604694+862567149+843511443+829524304
604+825982470+825917823+823650447
##END=
