##TITLE=Sample description
##JCAMP-DX=4.24
##DATA TYPE=INFRARED SPECTRUM
##DATE=25/8/2023
##SAMPLING PROCEDURE=Instrument type and / or accessory
##ORIGIN=Default
##XUNITS=1/CM
##YUNITS=ABSORBANCE
##RESOLUTION=4
##FIRSTX=4397.6552
##LASTX=599.8556
##DELTAX=-1.9287962
##MAXY=1.8262192
##MINY=0.77824026
##XFACTOR=1
##YFACTOR=1.7007992e-009
##NPOINTS=1970
##FIRSTY=0.84615207
##XYDATA=(X++(Y..Y))
4398+497502634+496454716+495838378+496781021+497662720+497262365+496672311
4384+496101602+495130958+494812399+495629545+496574290+496794023+496525157
4371+497142196+498281441+497305050+494980229+494625678+495975580+497140338
4357+498367126+499645150+499111238+496440628+494416845+494859534+496569349
4344+497978687+498181668+496830855+495148341+494556149+495057259+496240521
4330+497598342+498706713+499790097+500453465+500223499+499891833+499827735
4317+499685662+499175721+497870572+496397137+496333776+498008335+499837968
4303+500113002+498958827+498042153+498386401+499032808+499012832+499093015
4290+500162065+501768777+502375898+501360537+500503299+501326017+502470485
4276+501995343+500398760+499468453+499998685+501227961+501696514+501217903
4263+501042257+501519747+501359170+500382218+500744585+502936059+504235040
4249+503418174+502096974+501527842+501739690+501499701+500321065+500312899
4236+501680183+501642965+500078553+499084990+498756197+498668829+499725859
4222+501827583+503403875+504130780+504792957+505171900+505021626+504859648
4209+504664867+504706676+505533215+505683032+503439902+500393538+499591006
4195+501374940+503681608+505449527+507137754+508230214+507457820+505617323
4182+504665849+504876995+505331635+505473042+505049137+504169400+503782608
4168+504510214+505504793+505747445+505444340+505439889+506175591+507379284
4155+508056495+507617731+506548996+505744641+506340653+507906993+508371305
4141+507780270+507819486+508352136+508270866+508083971+508582031+508888396
4128+508396993+507921677+508123572+508639155+508423382+507495564+507462026
4114+508365418+508753227+508891690+509292746+509262852+508773693+508965635
4101+510198135+511439047+512289030+512610919+512064706+511241287+510846399
4087+511256111+511968963+512029031+511899048+512182808+511697154+509839169
4074+508490003+508866457+510137192+511058177+510988787+510841878+511485096
4060+511977164+511892565+512573841+514003681+514637050+514684081+515053491
4047+514983506+513668860+512278587+512064216+512900672+514184513+514535244
4033+513560536+512994943+513637460+514477595+515039859+515477467+514735632
4020+512910519+512360522+513190354+513665250+514183357+515169000+515091375
4006+514309835+514670519+515364797+515154386+514769626+514677072+514725014
3993+515081142+515515981+515686861+515719453+515888195+516542872+517396605
3979+517751717+517395519+516631746+516300500+516650531+516971368+516858103
3966+516598313+516753563+517318455+517381676+516556855+515812918+516190984
3952+517348033+517722419+517097390+516616607+515957058+515549484+516544379
3939+517825172+518575592+518710165+517892633+517370462+517941837+517693402
3925+516152260+515667306+516705061+517680295+518343243+519391862+520901254
3912+522124502+522371920+521606150+519510490+515961334+513183380+513427364
3898+516043024+518506308+519046738+517973728+518440248+520804109+521199522
3885+519285255+518680272+519751074+521956846+523536188+522163262+518582496
3871+515343209+515054963+517259123+517646967+517090907+519210013+521424897
3858+520842203+517555990+513768423+515160168+519805885+523721121+525304528
3844+523975023+521125752+518876279+518525302+520290067+522370974+523732195
3831+525107750+526450397+526822681+526409394+524967815+523044225+522960327
3817+522346232+521921977+524830718+527964625+527573942+523569306+521195562
3804+521651989+522166766+523836945+525998000+528145738+531050554+532666798
3790+532127560+531003173+529817318+529177255+529859933+530365388+530243116
3777+530628682+530906134+530567633+529999412+529710010+529638167+529736714
3763+530170537+529864769+528829748+529324900+530467019+528188843+521304482
3750+518873090+523019518+525768069+525702465+526838381+528333054+527401941
3736+524256259+523384969+526010231+528821827+530523056+531216738+531779983
3723+533454997+535415104+536475463+537003978+536155536+532250112+529098613
3709+532263745+537182708+540380887+542595000+545653875+550169468+554597274
3696+557624994+558440843+556361128+553359447+553127554+553284275+552101539
3682+550713999+549446383+547278775+541944738+536941562+536217181+535202871
3669+535160782+537990882+540103540+540310166+539624018+538206164+535263849
3655+532453724+530521549+526293991+521223738+522694125+526136253+527003548
3642+526122235+524864046+523238340+520687023+518160027+516470644+512528073
3628+506666537+506029768+507735237+507224140+502892778+498317573+497905863
3615+498015939+496322386+494843343+493701995+492651309+492439356+491980721
3601+490454192+488801571+487312436+484985092+482865776+482237452+480667853
3588+477806983+477988692+479663531+479619795+478223844+476339996+474499358
3574+473405356+472663101+470743998+466999466+464197576+465645043+468726207
3561+470048458+469400194+468290807+467226943+466371248+466193394+465932238
3547+464318867+462205123+461414191+462053694+463090537+463169249+462626505
3534+462612277+462262212+461267002+460651505+460145454+459224364+458846648
3520+459703886+460628025+460864544+461189377+461516453+460820107+459469364
3507+458945510+459198816+459393106+459674203+459849253+459764058+460114404
3493+460376857+459533637+458268965+457573285+457610188+458106636+458576906
3480+458825201+458611846+458156085+458578588+459751617+460547141+461113504
3466+461715368+461848575+461916808+462265857+461878538+460737926+460328284
3453+461053122+461787526+461869251+462002177+462806918+463692577+464211980
3439+464679026+465265715+465765318+465779091+465627416+466213720+467254559
3426+467865500+467943405+467898547+468124308+468709981+469744091+471136888
3412+472477362+474155356+476441662+477848021+477906441+478596444+480498516
3399+482298361+483673635+484668775+485283080+486527426+488010569+488427185
3385+489241878+491818778+494932919+497847232+501055119+504707132+507896725
3372+510020387+512160415+515249253+518517522+521236950+524344363+528031386
3358+530874558+533428749+537716444+543166235+548030247+552427108+556663742
3345+560980000+565749600+569975196+573507004+577348681+581709586+585511557
3331+587118163+587481546+588725120+591447843+594947445+597256915+598409899
3318+599491810+599143602+598160448+599316024+601383263+602556292+603634489
3304+604046269+603207360+602486693+602143321+601532415+600183250+597234837
3291+593429081+591081201+590557908+590178510+588762969+586734630+584787245
3277+582355992+579412100+577334242+576576498+576181995+575695359+575631717
3264+575346976+573559572+571037798+569600494+569789807+569911624+568380505
3250+566617316+566177290+566668237+566904231+565978199+565075228+565359443
3237+565673062+565243304+564681847+564572962+564769354+564794061+564340998
3223+563333803+562814855+563146977+562528537+560801200+560210655+561089481
3210+561324318+560525991+560435224+561023070+561124350+561123720+561577483
3196+562382679+563316175+563665224+563226635+562877656+563211600+564218516
3183+565444498+565937722+565658658+565473235+565331232+565017894+564859630
3169+564964626+565926087+568126638+569975476+570164965+569712463+569238163
3156+568321839+567810286+568683294+570546010+572676786+573857280+573301290
3142+572675384+573318567+574386215+574945324+574892091+574934671+575450289
3129+576461445+577953769+578533135+577810190+577830271+579346601+580682379
3115+580743463+580106203+579523228+579861799+581107967+581875034+581885092
3102+581870478+581943231+581994537+582401551+583379204+584644927+586083457
3088+587015551+586997959+587021123+587575852+588335139+589099682+589769394
3075+590114588+589641339+588979337+589401841+590175636+590012466+589634680
3061+589502911+588956698+588567908+589251427+590767408+592195495+592774650
3047+592882869+593156150+593960715+595319063+595717735+594379294+593273481
3034+593671734+594397798+594743693+595441791+596580265+597766401+598979451
3020+599403637+598657808+598242313+598816211+599449896+599569610+599350368
3007+599494754+600266657+601088114+601926532+603368497+605222662+606745792
2993+607573486+607877187+608515989+609769131+610954776+612091919+613380176
2980+614422136+615027926+615457999+615857092+616193385+616747307+617412253
2966+618095912+619373446+620776651+621234339+620484865+618894029+617730532
2953+617692754+618273661+619652895+621567057+622526381+622833937+624289850
2939+626262187+626308306+624430100+622813681+622883140+624392041+625828679
2926+626446104+626758636+626436641+625093083+623956291+623762141+623657006
2912+623533577+624119811+625226535+626076098+626420170+626799078+627172378
2899+627125558+627723146+628969700+629017782+628538996+629192587+630143920
2885+630368980+630220879+630682073+632060396+633189198+633216953+632758984
2872+632760807+633165367+633533971+634346386+635640111+636320266+636130321
2858+636276249+637266272+637778982+637302509+636929279+636549180+635386244
2845+634597099+635515560+637396079+639042357+639877902+639919115+640111723
2831+640643987+640939768+641501821+642622983+643360332+643313932+643501003
2818+644824235+646794820+648077960+647861382+647173026+647877292+649833859
2804+651314303+651734985+651529691+651156320+651163890+651669100+652469740
2791+653069922+652980837+653090458+654366169+656010414+657012283+657795260
2777+658625899+658688139+658046954+657491069+657524923+658530156+659801802
2764+660678349+661788017+662859695+662819113+662120805+661922099+662260915
2750+662908127+664283857+665884016+666445017+666466044+667063353+667821798
2737+668149890+668353012+668830676+669337288+669575244+670041133+670901840
2723+671763599+672927446+673864692+673580546+673666967+675107180+676223296
2710+676819973+677560195+677589563+676646009+676226660+677770256+680442794
2696+681804015+681476343+681393707+681740653+681629911+682036434+683087155
2683+683271072+682708178+682563091+682761446+682832167+683148484+683768151
2669+684151685+684527718+685302355+686055263+686572038+687352702+688264715
2656+688422629+687920783+687937885+688894966+689841744+690186938+690624791
2642+691529515+692459542+693118039+693342958+693451317+694038112+694665840
2629+694818706+695187451+696171727+696987436+697095305+697051639+697628901
2615+698698127+699460357+699705953+699886716+700251255+700904775+701820854
2602+702620653+703055071+703033203+702747305+702719340+702971033+703477645
2588+704367720+705241394+705923301+706618876+707338421+708351154+709670391
2575+710376690+710229570+709966802+709915496+710283119+711059999+711623383
2561+711432458+710750971+710532220+710965938+711392226+711802113+712442808
2548+712932317+713276390+713876221+714556727+715180459+715764871+716214219
2534+716395963+716273726+716466053+717304752+718004041+717853698+717423134
2521+717997944+719621232+720808138+720944954+720963598+721211788+721400400
2507+721466776+721446730+721806853+722856033+724111908+724632538+724220758
2494+723818090+724241926+725620879+727046583+727707183+728088334+728704987
2480+729503174+730053381+730161040+730345167+730732134+730630293+730001304
2467+729716598+729934719+730155012+730199379+730228607+730471119+731045858
2453+731945185+732953642+734139778+735640128+736648795+736559360+736384135
2440+737055739+737764491+737766874+737562911+737239866+736550669+736229656
2426+736843856+738034758+739450229+740481536+740717109+740913572+741747644
2413+742996090+743834859+743324393+742296871+742726454+743975530+744577815
2399+745285305+746020341+745832920+745249279+744765587+744430696+744615734
2386+745224397+745356797+744687506+743516159+741515576+738894134+736078332
2372+732446470+729132046+727926846+727283698+724858298+721216133+719216251
2359+720245945+723238164+727100273+731074174+735003359+737686270+736658959
2345+732360960+729514738+730410491+732590435+733831031+734261735+735222250
2332+736979200+738822361+740412076+741743369+742986839+744311052+746205940
2318+748970576+751162856+751701219+751832147+752852730+755043468+757972886
2305+760286843+761414173+761934312+761936485+761895552+762727032+764120214
2291+765371954+766490243+767520989+768251889+768677056+768755136+768384780
2278+768206120+768693527+769057645+768761234+768878705+770250930+771410011
2264+771286653+771400549+772307376+772793101+772550308+772051967+771978302
2251+772748944+774113739+775743546+776762236+776405968+775685231+775674858
2237+775758265+775760578+776499468+777480590+778010822+778601753+779187776
2224+779436807+779726560+780318681+781179599+781661118+781440685+781742002
2210+782714503+782807583+782249946+782782421+784264477+785258145+785659692
2197+785914540+786108479+786387158+786657565+787042641+787637356+787967200
2183+788098970+788731674+789510656+789557125+789397180+789444561+789444350
2170+789761859+790282348+790821412+791524977+791938859+792296529+792952503
2156+793292020+793689501+794655904+795059834+794416266+793925144+794360544
2143+794868207+794713869+794586024+794785291+795195388+795841129+796272113
2129+796846502+798013573+798992803+799522895+799765757+799217442+798200644
2116+798017849+798750782+799368697+799749917+800650576+802038571+802894372
2102+802874747+802433249+801643823+800856010+800837576+801606395+802766317
2089+803953575+804536164+804595180+805154009+806217136+806897992+807102655
2075+807014692+806667185+806507660+807035439+807652793+807468526+807503081
2062+808926121+810727719+811407874+810943036+810331008+809978315+809914953
2048+810287412+811105925+812122723+812433433+811903481+811669660+812137022
2035+813014971+814005485+814436399+814427288+815175500+816337104+816832151
2021+817004503+816871962+816263720+815881939+815828040+815901073+816678443
2008+818371682+819774046+819693091+819122347+819626786+820420838+820461280
1994+820019571+819237435+818841496+819603656+821305586+823164026+823945181
1981+823426654+822942121+823496184+824444924+824930439+825211781+825844274
1967+827165824+828573795+828829624+828296449+828279977+828523541+828391351
1954+828339484+828287827+828321401+828933568+829185753+828558446+828498238
1940+829554006+830716171+831692878+832167879+831955085+831887168+832231380
1927+832694817+833197363+833831609+834483938+834226146+833644678+834663018
1913+836263597+836721076+837093745+838423005+838849083+837583045+836818010
1900+837731986+839224977+840161521+840187104+839768456+839723879+840105870
1886+839986226+839666405+840426042+842077997+843379291+843430667+843007322
1873+843052811+841676170+838490712+838253667+841564096+844630891+846059959
1859+846390014+846416508+846585075+847274061+848106802+847905083+846964122
1846+845800696+844870669+846235885+848704952+850583368+852026314+852213385
1832+850522670+848419124+848074841+848359267+848385551+850276303+853334056
1819+854986852+854731654+853664672+852674298+852516525+853884124+855636098
1805+856338751+855659788+854292890+854187194+855042784+854873867+853869966
1792+854240042+856936691+859406458+860177029+859762726+858823167+858029607
1778+858463254+859056287+857006360+852611216+851888166+855174344+858544629
1765+860864333+861017130+859717097+859872277+861074043+861980168+861486033
1751+858688664+855847069+856013183+857999187+859392510+858547152+857160909
1738+858585702+859853913+856392861+854917253+858997271+863448627+865725927
1724+865763776+864977084+862941385+857491524+852726234+855728056+861713826
1711+865394961+865197307+862349473+860596659+860870361+857908981+851791582
1697+849863892+852388890+857848634+861897953+862076262+860116050+856086918
1684+851757588+854661985+859176211+860877019+859503322+857382184+856924425
1670+855880993+855296230+857477717+858779361+857940662+858424494+859960941
1657+859039816+852455406+842666193+843578557+845505546+842606477+843027508
1643+848552225+852427090+852247659+847621848+841365390+842493211+847087901
1630+849759178+851607595+853414450+853402885+853960732+857432368+860442390
1616+861502784+864094578+867676887+870203847+872360031+875494603+878755478
1603+880362014+881633520+884575064+887138752+887633308+888345074+890577305
1589+892621064+893696317+894979948+897127791+899123609+899500484+897448524
1576+894481537+894222274+894542516+893711176+894239796+896214026+898077864
1562+899339837+895830002+887607094+891339045+898423058+903085175+906334485
1549+908575407+909639096+908115265+901649097+891649895+892598004+902636037
1535+907842895+908382519+910405041+912172014+909844880+906716826+904522794
1522+901641738+903276801+909239512+915759018+921604538+924675748+923016224
1508+915159887+911546529+921859736+929047272+929452253+927307914+928217054
1495+932739551+935256489+931914520+926758337+928031455+932285437+934616776
1481+934923771+934594978+932934753+929174626+925023886+925058371+929053229
1468+930174882+926967627+925630096+927760837+926642268+918697478+915278200
1454+923477207+931271022+934279222+933842070+935775717+941506429+946348888
1441+948193661+946642005+942224573+941207494+944401713+947246603+950016776
1427+953642470+956280664+956430517+953428765+946374962+940163081+940881014
1414+943619787+943017082+939597243+936691445+935762330+937385618+937915640
1400+933126589+927217218+925326115+925188248+925697523+925929802+922595683
1387+916277054+913216427+914928099+917913940+918821397+915941182+911198251
1373+909664258+912002536+915026436+917503282+917179746+913398732+911954454
1360+915293269+918187712+919283081+920065568+919112342+916374199+914888568
1346+915278130+915878522+915153089+913070430+912948333+916204021+918788665
1333+918651219+918205655+918929827+920044681+921016832+921289833+921876417
1319+924586243+928711540+933098413+937651750+941231886+942213569+941877767
1306+943577523+947286624+949972760+951275035+953325873+956297416+959941193
1292+965189124+970047844+972353810+974226549+976642066+978165686+979382382
1279+981188184+982548144+982514781+981752901+981968989+983120150+982972960
1265+981119005+979777900+979742715+979527749+979656925+981708604+984656456
1252+986802266+987796495+988384411+989204326+990841212+993485223+994733599
1238+993491812+992325371+992292218+993791727+997723155+1000990127+1000668273
1225+999771960+1000669535+1001054680+999524191+997977091+997958938+999406860
1211+1000896417+1001406673+1003398916+1006859127+1007199345+1004787682
1200+1004107878+1006570846+1009966154+1010394124+1007586242+1005944520
1188+1006211634+1006152618+1007797704+1012556125+1017153830+1018042994
1177+1014776441+1010924426+1009542178+1009629581+1010076826+1011735510
1165+1013414660+1013477531+1014634929+1018095841+1020939680+1022408559
1153+1022601307+1020324849+1018127592+1018991734+1019936690+1018668688
1142+1017486548+1018976104+1024454982+1030345149+1030681862+1026775317
1130+1024284943+1023938417+1023776299+1024927039+1026922926+1027216324
1119+1026757584+1026835804+1027581494+1028243285+1027249897+1026221184
1107+1025935706+1025047454+1026047080+1028281063+1026165742+1022790621
1096+1025370780+1032461872+1038131395+1039285359+1038318886+1040518946
1084+1045031911+1046000557+1043190433+1041299891+1042729870+1045754611
1072+1046275381+1045934462+1050606673+1056225731+1056833833+1057126950
1061+1059877779+1062918500+1065729676+1067225541+1066623256+1065079590
1049+1063360979+1061637673+1060371704+1061314837+1064883057+1067571365
1038+1068500691+1069183439+1068213111+1066397916+1066183230+1067635288
1026+1069872776+1070105826+1066576155+1063844041+1066590173+1070990644
1015+1069689070+1064273553+1062382521+1063560947+1063284651+1062693230
1003+1061338247+1058538215+1057352991+1057660196+1058939622+1062412169
991+1065328761+1064126995+1060928921+1058262831+1055962052+1055051440
980+1054628096+1053953408+1055070505+1055329278+1051624592+1048092398
968+1048575249+1052287365+1057513497+1060996067+1059387848+1055900793
957+1056299466+1060048168+1063084333+1063844111+1062592160+1062357709
945+1066370441+1070954337+1070579425+1066846072+1063128280+1059196222
934+1056839580+1057890933+1059574779+1061519501+1064301379+1065039849
922+1063687880+1061946209+1061179703+1063248555+1065256077+1063813131
910+1062269816+1062717692+1063862194+1065862357+1067223718+1067838759
899+1070768949+1073741823+1071775444+1065686851+1058807642+1054666225
887+1057118049+1064085782+1068047278+1066559754+1064199818+1063555690
876+1061001674+1053472449+1044541631+1039634829+1039234053+1040318348
864+1041016236+1039975537+1037115928+1035125999+1033650461+1028858887
853+1022249174+1018761488+1018132989+1018066754+1017009584+1013026781
841+1008886064+1008246071+1007287798+1001511808+993873172+988699747+985505458
827+983625079+984578936+985744606+982496908+977306521+976185289+979800820
814+981799020+976799489+968765684+965237206+966733000+966917547+961842949
800+954328723+949838958+949921454+949816108+946193288+942812629+943282373
787+943937436+940130068+934339009+931012810+930140188+928572131+925138694
773+921617364+918975175+916850182+915103955+914017418+912621502+909081458
760+904339649+900616739+897590527+894934180+893409859+891389720+888816640
746+888787062+889645596+887387502+884306619+884659593+886397408+885148191
733+881935819+880267042+880745127+881119619+880047660+878650342+877331105
719+874220574+870138523+871607543+880085298+886237532+882474882+872773002
706+866019464+864402555+863408746+861724269+861478323+862490705+862838493
692+861999093+860600934+859295996+859144741+858964539+855098576+848784153
679+844797986+844915667+849725675+853815996+846544983+830897705+827237667
665+838243154+845401672+845572552+844201308+841986529+835348430+827008261
652+824558540+828575267+830937166+827973263+825187179+825072161+825502935
638+828068025+828649913+817314442+803991563+804188797+809577329+805927243
625+800514320+805302810+812906051+809991772+801274028+797216508+797994439
611+798195948+792575068+786073294+787567196+791832532+790494581+787619202
##END=
