##TITLE=Sample description
##JCAMP-DX=4.24
##DATA TYPE=INFRARED SPECTRUM
##DATE=25/8/2023
##SAMPLING PROCEDURE=Instrument type and / or accessory
##ORIGIN=Default
##XUNITS=1/CM
##YUNITS=ABSORBANCE
##RESOLUTION=4
##FIRSTX=4397.6552
##LASTX=599.8556
##DELTAX=-1.9287962
##MAXY=1.9546227
##MINY=0.6145317
##XFACTOR=1
##YFACTOR=1.8203843e-009
##NPOINTS=1970
##FIRSTY=0.73494607
##XYDATA=(X++(Y..Y))
4398+403731276+404299856+404835596+404567300+403801477+403354897+403433283
4384+403582230+403552565+403531675+403548505+403448247+403580757+404334007
4371+404705475+403965617+403217180+403356403+403938801+403907760+403267833
4357+403299463+404057592+404001339+402752886+401984541+402441697+402734713
4344+402341701+402052450+401992792+402173238+402492351+402446412+402336756
4330+402708257+403289869+403385904+402818175+402143410+402021311+402824986
4317+403616250+403080609+401837002+400918956+400401357+400413570+400857596
4303+401421756+402413538+403532952+403215084+401137221+399304961+399437406
4290+400955825+402298021+402749219+402520182+402266032+402304079+402243472
4276+401761169+401164921+400970723+401336690+401824428+402137614+402899672
4263+403901408+403856092+402997606+402808942+403631639+403877604+402729638
4249+401921937+402423820+403145244+403242752+402602203+401226903+400169406
4236+400788280+401800526+401316521+400393138+400612614+401648337+402549258
4222+403349789+404357386+404654069+403670440+402371758+401343173+400696960
4209+400742538+401245632+401693555+401856451+402009065+402222156+401951602
4195+401315145+400872101+401055985+401651710+401495133+400793355+400730325
4182+400879337+400593001+400314261+400462717+401209026+402015811+401728099
4168+400830027+400768503+401336526+401488224+401203885+400990434+400808154
4155+400698990+400858808+400938897+400780028+400570343+400295761+400103331
4141+400318485+400877504+401315735+401278703+401124484+401323691+401254866
4128+400841912+401069083+401484524+401298708+400545589+399220288+398686448
4114+400035095+401593820+401821187+401261905+400909264+400685794+400098812
4101+399856842+400260923+400006281+398916467+398549583+399536224+400786184
4087+401258926+401226281+401181554+400899278+400288230+399776721+399665722
4074+399739263+399921215+400528792+400985588+400521785+399691491+399302833
4060+399717751+400534620+400672370+400179851+399907103+399928713+400040465
4047+400005724+399728556+399758221+400130933+400284497+400271728+400176642
4033+399936997+400099893+400578201+400373165+399758810+399489500+399238133
4020+399056672+399319073+399872264+400346611+400383217+400154213+399789032
4006+399305027+399208599+399350965+399159222+398775181+398543394+398746793
3993+399249495+399354010+399089480+399022226+398952124+398622730+398769648
3979+399948490+400995673+400700561+399886933+399555837+399454432+399243503
3966+398898949+398761789+399166917+399608651+399830746+400228081+400419365
3952+399788246+398592541+398077496+398912668+399344318+398265964+397595356
3939+398236528+398993904+399136106+398649972+398253914+398582358+398494902
3925+397205454+396461667+397339143+398248643+398393988+399094719+400410296
3912+401402307+402001567+401554365+398957886+395418806+394080833+395391596
3898+397767682+399558129+399486684+397469100+396098843+396616017+397089086
3885+397155259+397377616+397110696+397082799+397364323+396654326+395359574
3871+394597188+395216618+396245138+395435079+394422177+395488548+396374603
3858+395367825+392219530+388596759+390828547+395924552+399075466+399261937
3844+397126675+394369756+391719743+390193531+391785949+394434587+395853598
3831+396780451+397595356+397687299+396889551+394460421+391959617+392820166
3817+394242943+395485863+397654359+399130409+398856940+396932771+394984929
3804+393745415+393021502+394057585+395933327+398279552+400791554+401668703
3790+401027368+400322676+399730324+399381383+399489795+399311673+399293370
3777+400213249+400973080+400322053+398462683+397753668+398748856+399496605
3763+399651872+399258794+398153295+397692537+398202148+397626953+395518016
3750+396435931+400010636+402456857+404451194+407924560+411443995+412845489
3736+412002327+412308407+415350091+418851059+420227865+418607223+415932816
3723+414022301+412730529+412177436+412232870+412046464+411279233+412159198
3709+416634234+422309265+427201282+431690922+438168907+446687428+454970987
3696+462154744+467554113+470005540+470230124+472330613+475046144+474443184
3682+470292859+464022595+456557740+447413109+440744954+438196050+434128401
3669+430890588+431180166+431180526+429705557+427388703+424338637+420547370
3655+417649952+415695823+411793853+406643756+407067777+411111917+414337845
3642+415822833+415566423+414546155+413700013+412655187+410629188+406402081
3628+402417140+402790278+402996526+399421395+392784280+387978900+387161670
3615+386653337+385073362+383473609+382575603+383066943+384368964+384576488
3601+383160424+381559296+380659751+379750677+378165201+375896741+372655817
3588+369196563+367933702+368241093+368014839+366217680+363706693+362106941
3574+361184738+360206445+359306343+357822239+355364328+354033297+353850363
3561+353494316+353089909+352853669+352136141+351000225+350458101+350442450
3547+350001305+348840929+347671583+346993281+346707435+346763295+346670862
3534+345761821+344091508+342473583+342222674+343163017+343654521+343275260
3520+342549907+341723509+341066752+340635921+340132074+339577180+339345098
3507+339430262+339616700+339906933+339996944+339744856+339621055+339813780
3493+339748327+338778908+337612213+337583498+338317790+338926022+339583925
3480+340023826+339709788+338929787+338102047+337815514+338527017+339679829
3466+340328269+340105388+339468670+339186557+339463857+339608220+339028245
3453+338357736+338200800+338111411+338176865+338880346+339399058+339478460
3439+340114261+341006341+341156730+340676621+340093601+339775503+340242941
3426+341377515+342141636+342335375+342318938+342074382+342318185+343422669
3412+344375585+344827142+345463206+346344710+347186071+347885295+348315079
3399+348835494+349808187+351103365+352690217+354298842+355654889+357133230
3385+358868473+360485186+361848567+363251338+365163752+367570354+369984717
3372+372213362+374234679+376314016+379184585+382812301+386298208+389513723
3358+392888107+396233023+399345071+402451553+405802067+409286926+412482370
3345+415708789+419497437+423436406+427149057+430588895+433302265+435298305
3331+437773765+441228501+444438286+446249165+447134860+448237051+449441334
3318+450498504+452163382+454561832+456716903+457635570+457552993+457443566
3304+457678464+458188860+458684293+459011623+458733210+456742082+453291735
3291+449922328+447140786+444717485+442512382+440428395+438318018+436024935
3277+434249681+433321551+431852999+429674156+428512242+427986391+426203312
3264+423822511+422364175+421578116+420854728+420185987+420032292+420550710
3250+420726605+419469638+417153700+414962546+413753973+413469110+413110346
3237+412260013+411356604+411028881+411423465+411352577+410161783+408973904
3223+408693101+408740578+408639992+408776792+408509479+407078647+405621982
3210+405166037+405196193+405543431+406299596+406464718+405570150+404463898
3196+404096850+404720766+405438130+405294094+404923412+405064829+405122161
3183+404894500+404725023+404588780+404356665+404135356+404163122+404369500
3169+404925278+405426245+404805374+403775152+404047278+405400574+406097965
3156+405861168+406025865+407304213+408543859+408048524+406522608+406737008
3142+409441080+411150913+409673194+408070102+408892996+410463869+410214598
3129+408694280+408603418+411025868+413110510+411662488+408835467+409228382
3115+413203303+415321605+412500412+409482630+410789890+414075410+413720707
3102+410041748+408781998+412298355+416265517+415107008+411230348+410843392
3088+414811994+417691110+415136476+411220525+410963952+413650211+415087951
3075+413299797+411415574+412199243+414631712+415130615+412614619+410500378
3061+411121510+413473334+414177732+412060413+410173997+410361384+411448022
3047+411591796+410772078+410390853+410829182+411445403+411543664+410775582
3034+409844865+409951378+410885958+411351267+411142269+411199930+413234802
3020+421648972+437551114+449409639+446567294+435854213+427248268+422545669
3007+419901418+418077967+416859113+416373863+416456899+416609579+416780595
2993+417373471+418847523+420375208+420308314+419369183+419705190+422095389
2980+424844580+425045261+423309397+422610532+423358937+424405301+424654966
2966+423667407+422476483+422716652+425348559+427745797+426109569+422704308
2953+421812163+423884329+426812591+427283794+425055215+423348263+423877093
2939+426229899+427636959+426213560+424445444+424376324+426085437+428284548
2926+428173386+425972376+424398163+424632373+425932037+425893728+423828372
2912+422038973+421922670+423049353+424183992+424498095+424474422+424603527
2899+425146600+425987994+425982297+424848378+423896411+424109633+425381956
2885+426555069+426400064+425410901+424981707+425620128+426617706+426806894
2872+426046702+425144407+424913733+425632210+426633848+427269584+427496132
2858+427400719+427486800+428077220+428166477+426960065+425432413+424928926
2845+425584962+426453435+426761643+426694946+427008296+427910592+428819632
2831+429456613+429760237+429823988+430046541+430251283+430319453+430695538
2818+431311989+431619870+431630544+431802510+432101682+432234520+432384580
2804+432873039+433486935+433903981+434131282+434172735+434156593+434345126
2791+434776285+435127714+435133117+435165270+435525147+435881979+436134165
2777+436448923+436546496+436357210+436347616+436594203+436961349+437470926
2764+437905785+438120480+438242382+438179810+438033973+438358226+439088425
2750+439660476+439988691+440256528+440499251+440583957+440521516+440564442
2737+440759098+441011841+441383243+441894589+442404560+442637100+442583434
2723+442739683+443218646+443670564+444070354+444395851+444504623+444599447
2710+444836047+444953921+444989513+445281776+445644403+445809624+445940039
2696+446191734+446552167+447016691+447572076+447937486+447950452+448013090
2683+448315732+448552201+448609862+448533112+448379319+448312163+448430300
2669+448829173+449509341+450165967+450376340+450103723+449943774+450233058
2656+450583439+450808710+451128641+451546211+451936539+452220158+452314523
2642+452421822+452744929+453127464+453437965+453634356+453712252+453742473
2629+453795222+453964634+454137516+454223859+454508919+455006218+455393108
2615+455484002+455255555+455158865+455612944+456261711+456702955+457049866
2602+457535868+458066107+458354604+458346582+458198323+458170262+458433777
2588+458837005+459138174+459226613+459036966+458746504+458816738+459333355
2575+459830523+460004977+460075178+460304607+460662553+460940572+461020694
2561+461095643+461200289+461064210+460784684+460848205+461372091+461763172
2548+461732426+461834977+462345373+462833635+462857145+462470549+462234015
2534+462524772+462994272+463214141+463290333+463550803+464095154+464679123
2521+465033761+465035628+464829347+464721427+464682856+464725520+465005963
2507+465323045+465457782+465551033+465899156+466514198+467069616+467244463
2494+467130387+467275929+467758134+468035433+467985762+467945226+468136314
2480+468583385+469160544+469476480+469125673+468561284+468618518+469076297
2467+469418755+469911928+470470784+470423077+470010648+470078589+470621696
2453+471116899+471260149+471110776+471005344+470947717+470883082+471183498
2440+471801324+472106946+472064479+472206910+472587219+472948930+473149218
2426+473289423+473673628+474028004+473923784+473708008+473804305+474046766
2413+474084911+473898965+473833053+474266471+475068770+475756862+476261528
2399+476719634+477293256+478721894+482125485+488540669+499140394+514823387
2386+535136750+558213514+581774709+604849279+628069163+651527872+674177244
2372+695823634+718061951+740786697+761347923+778558699+789719703+792362447
2359+789774908+781822052+765765266+745513329+726657288+715736748+718710588
2345+731845595+738574652+732287362+722288469+714573131+711367209+713289020
2332+716592647+715562163+710907499+709398051+713013718+714529976+708361477
2318+697134529+686294864+682345220+686175811+688567941+681610338+666617630
2305+649489758+636404455+628603723+622244530+614896239+605843157+594165012
2291+581501568+570426023+560896466+552154507+544584711+538372239+533126860
2278+528719634+525098827+521984323+519155337+516506241+514026262+511845094
2264+510133427+508871614+507631313+506178609+504907072+503946395+503014533
2251+502141869+501424374+500776884+500267732+500019639+499940728+499870135
2237+499715097+499444117+499221236+499158010+499123957+499187478+499450404
2224+499721318+499864143+499912471+499963747+500157061+500560126+501081262
2210+501608488+502110076+502540154+502923737+503433609+504059424+504367076
2197+504325820+504586519+505107851+505394548+505789755+506475325+506900623
2183+506969612+506841718+506574897+506648306+507252118+507762907+507777150
2170+507704690+507859171+508117611+508394288+508434529+508172651+507913622
2156+507726660+507629250+507769816+508111029+508282406+508039060+507672864
2143+507623553+507913688+508325724+508875641+509473265+510006646+510656429
2129+511320455+511621493+511670443+512015095+512669233+513182543+513418063
2116+513471073+513412398+513395274+513729611+514395012+514863039+514822078
2102+514783998+515250388+515637998+515542618+515503490+515713961+515994044
2089+516364956+516645267+516745526+517101572+517767661+518350026+518736228
2075+518937008+519160151+519811145+520759936+521441839+521843201+522344855
2062+523126428+524163854+525103182+525698939+526258384+527052890+527780601
2048+528220469+528640036+529217523+530034130+530945332+531621146+531966485
2035+532061439+532178135+532343912+532418337+532664891+533186092+533557331
2021+533621998+533566237+533264904+532858172+532845239+533137862+533264544
2008+533247354+533410806+533490372+533275185+532979746+532733454+532826542
1994+533147619+533234617+533249089+533418436+533605136+533775857+534076764
1981+534548524+534854506+534888133+535103909+535514766+535803657+536076765
1967+536398235+536821142+537445746+538047069+538468503+538740367+538935711
1954+539200601+539583300+539973988+540182888+540064620+539835911+540137113
1940+541115602+542214944+543150572+543894818+544474204+544869214+545136691
1927+545306102+545122971+544948255+545182302+545182629+545255842+546194155
1913+547039446+547109548+547177260+547633696+548099071+548561302+549103328
1900+549720008+550219468+550254699+550057849+549890860+549842270+550400798
1886+551228407+551649546+552038597+552762412+553323298+553496573+553787854
1873+553880778+552843745+551540382+552212069+554196943+555599976+555938734
1859+555691198+555752624+556201922+556417894+556499293+556527844+555899115
1846+554653576+554319205+555515041+556664513+557286366+557772271+557947576
1832+556994038+555422510+555709730+557379159+558451751+559140793+559868471
1819+560445138+560688876+560630725+560283126+559947446+560496872+561542680
1805+562046593+562010969+561533185+561030581+561213483+561175501+560076060
1792+559770766+561785436+563914837+564981338+565270982+565059463+564892867
1778+565126259+564877216+563204906+561222062+562079663+564846372+566935303
1765+567604175+567127635+566926987+567412433+567702404+568221771+568611084
1751+567405753+565347208+565189321+566635771+567928133+568329234+568460664
1738+568418229+566684624+564350056+565890543+568998695+571125804+572382083
1724+572903677+572752274+571285982+567786553+565495205+567877054+571090769
1711+572785148+572600085+570969096+569816023+569743072+568091324+564993060
1697+564918145+568167549+571692845+573066737+572526283+570824176+567322586
1684+564343834+566932094+570343642+571561219+570648806+569226061+568040245
1670+566733542+567945094+570707677+571293710+570502903+571256710+572221709
1657+570916184+566175144+561265413+563299074+564583185+563770310+566404017
1643+570850436+573047812+572210510+568916576+568181498+573925780+578863277
1630+580458052+580874607+582356419+584637551+587802741+590499183+590814170
1616+591778186+596405281+600575677+602662644+604067641+605944594+607690707
1603+608836971+610222912+612203398+613953899+615209457+616511904+617889070
1589+619092437+620467245+622356576+624195417+625265389+625220335+623945261
1576+623969229+626835476+628457690+628392728+630084291+633315360+635412869
1562+635153873+631032394+626853877+632167394+639212289+645013347+649484192
1549+653293828+655638480+654302178+648944720+645065081+653106145+663423496
1535+668553128+672363156+677193191+680487454+682271548+684585554+686612863
1522+688752676+693357571+699331511+707056214+715379195+721355821+723156352
1508+720178845+722216762+734458609+743991047+749132663+751339599+754953367
1495+762081756+767889756+770415084+773387615+781294433+790289561+796978933
1481+802498075+807615396+811057656+812231030+813061456+818506336+827605979
1468+834613678+838303343+842820029+848873469+850771640+847696689+851349159
1454+862519920+871320424+877796705+881900699+883423440+884754832+887511718
1441+891303672+893278461+892654316+895519450+901895408+906401288+908142424
1427+908204112+906554328+906006933+907601643+904823408+899226207+899692925
1414+901048742+898126308+893002177+888635192+885863964+885187300+884753588
1400+880877157+873998137+868207426+865203004+865118462+866229297+865786416
1387+862550240+859308694+858723316+860394383+862671454+862692344+859853667
1373+858449913+859946984+861004317+860978188+860187579+857537042+854941643
1360+855624136+858648401+861991581+864012014+863563502+861669260+860886770
1346+861544640+862259287+862309973+861460950+861343534+863651842+866939687
1333+868866933+869475493+871150291+873225667+873158151+872698637+874417443
1319+876994898+878232251+878507423+879121679+880824572+884662890+890952341
1306+897587033+901438710+901763585+901925597+905098056+909995606+914299659
1292+916691397+916677972+916594674+918304311+920469533+921926199+923123541
1279+924559513+926716942+930063528+932945426+933914812+935440696+938648256
1265+940437655+939796156+939167885+939217523+938769797+938445970+939746059
1252+942740004+946033087+947665910+947889085+947481567+944834501+941932564
1238+943426360+947505535+948941704+948085543+947858700+947803692+947378755
1225+948030011+949466703+949375023+947340118+945091860+943353802+942825790
1211+944243623+946258948+947563752+947962298+947158067+945443650+943851363
1198+943120869+943373382+943434546+942023851+940120376+939072341+939274823
1184+940211991+940968024+942470006+945108428+946669936+946065437+945077388
1171+944730575+943842260+942739480+943617579+947225780+950913022+951264681
1157+950070679+950969733+952917346+954561759+957010796+959311639+960039317
1144+959895380+958711397+956689982+956638772+959455708+962339440+964676366
1130+968019218+971193052+972682395+972496874+971187355+970412855+971275630
1117+972864839+973172098+972149996+971928654+972704464+973998791+976359357
1103+978452544+979555128+981775817+985034455+986570555+986131603+985454088
1090+985222595+986338604+990097357+996769310+1005565623+1013982707+1017794045
1076+1015871448+1013815194+1016008182+1020353033+1022556105+1020473854
1065+1017649387+1018836513+1022467634+1024743723+1026385648+1031095189
1053+1038381923+1041690658+1038022079+1032335294+1028802008+1028248392
1042+1030813077+1035017722+1039967727+1045186289+1046583625+1042480941
1030+1039032983+1039613253+1040925850+1043325445+1046706345+1046295880
1018+1043393157+1042539157+1043345680+1043564403+1043343716+1043700744
1007+1043929748+1043599307+1042109243+1038472556+1033770153+1029944146
995+1028516097+1029932620+1031949713+1032447340+1034410538+1039954630
984+1044235174+1044084556+1042258354+1041949982+1043467942+1044656444
972+1045126370+1045185634+1043338411+1039823069+1037372984+1038527760
961+1043119558+1047522102+1048352330+1045807553+1043066645+1044028042
949+1048619578+1052813615+1054011874+1052492276+1050827103+1051008761
937+1052228106+1053113933+1053585037+1055083155+1056970587+1057645942
926+1058044226+1057591523+1056454755+1057857395+1061390484+1063495001
914+1062527252+1059600561+1057780253+1058385931+1059812604+1059997929
903+1058560712+1060617293+1068852065+1073741823+1068786710+1060886833
891+1055415496+1052925857+1054569812+1058483963+1060325489+1060647155
880+1061963485+1060814930+1053488184+1045995170+1044053385+1044356519
868+1044855520+1046718067+1047045431+1043591252+1037872117+1030415382
856+1024321013+1023922990+1025637997+1024983794+1023311680+1020613142
845+1016184666+1012451518+1010590543+1007696137+1002515229+995720425+987718913
831+983307398+983647793+981742419+975952231+971819293+972004159+973105237
818+970221374+965383023+963830682+964304799+963061159+960843352+959633502
804+957861981+951831984+944705036+944312448+947317787+944589715+938363523
791+933822346+931445671+932006753+933840158+932631749+929100167+926463971
777+923427395+920484202+920648768+920413150+916663696+913274938+913073045
764+913378012+910521523+906705601+904653538+901751929+897533924+893781261
750+889094640+884519738+883441907+884798576+886889799+888411558+887746157
737+887347938+888065596+888549471+890254131+891849496+890381436+887083899
723+885907382+889998475+895051292+893636668+890071426+890137305+889764560
710+887505889+885643998+883533064+882871592+885058555+886194537+882607160
696+876570615+873711702+876701390+883233924+888214642+889015861+886191655
683+879984782+875820476+879247674+885190247+886174105+884516791+886593149
669+886194799+870546120+857673776+858275132+863211843+867007137+869331293
656+866504992+858548469+854213769+856884934+860993185+862653904+862202314
642+857411636+850895015+852254696+856411341+850193924+834262936+817772568
629+810027106+815448543+828063462+832457755+826568226+827904332+839376983
615+845426625+839105675+834468037+838482840+836205965+830544522+833472588
602+833990646+828752242
##END=
