##TITLE=Sample description
##JCAMP-DX=4.24
##DATA TYPE=INFRARED SPECTRUM
##DATE=25/8/2023
##SAMPLING PROCEDURE=Instrument type and / or accessory
##ORIGIN=Default
##XUNITS=1/CM
##YUNITS=ABSORBANCE
##RESOLUTION=4
##FIRSTX=4397.6552
##LASTX=599.8556
##DELTAX=-1.9287962
##MAXY=1.8348202
##MINY=0.83071488
##XFACTOR=1
##YFACTOR=1.7088094e-009
##NPOINTS=1970
##FIRSTY=0.89367515
##XYDATA=(X++(Y..Y))
4398+522981167+522496044+522206429+521617153+521216512+522689528+525721995
4384+527540157+526652162+524861033+523958771+524093446+525205411+526221488
4371+525792420+525129161+525373466+525106035+523832816+523372669+524091318
4357+524151871+523225681+522440549+522793787+525198818+527979551+528150746
4344+526667684+526133554+525983811+524924585+523781890+523806690+525144858
4330+526646685+526910349+525940558+524694756+523577663+523054451+523962433
4317+525788897+527356928+527890640+527272447+527213673+528557595+529502830
4303+529459090+529415454+529017603+528069125+527423830+527092637+526993366
4290+527250368+527408761+527558400+528095843+528161140+527103833+526816869
4276+528376878+529064658+527731478+527492022+529469659+530411719+528598231
4263+526673265+526613653+527372032+528022210+528686061+529574406+530798408
4249+531704262+531362500+530357410+530268464+530889935+531088302+531821357
4236+533522041+533754870+531763350+530574892+531539834+532625848+533352345
4222+534566930+535378920+535296776+535413382+536098337+536092651+534669863
4209+533260574+533702723+535905725+537061779+534861603+531569797+530280428
4195+530790909+531882085+532619953+532637428+532686820+532861607+532494173
4182+531780547+531838379+533451023+535406581+535587821+534092132+532968517
4168+533228170+533506553+532279377+530740959+531218547+533376239+534772308
4155+534774785+534718626+534970570+535006323+534851278+534668014+534278535
4141+534041555+534832373+535999903+536128195+535840044+536290983+537131646
4128+537853853+538500019+538687608+537961251+537184908+537313828+537673205
4114+537342326+536988669+537982249+539374725+538837770+537116856+536505989
4101+536940568+537393321+537588549+537023968+536172109+537039979+539103283
4087+540001917+539869963+539704314+539724963+539986604+540108478+540178867
4074+540517351+540604657+540372072+540387873+540348074+539929225+539544734
4060+539172940+538645542+538325999+539001850+541139694+543256680+543623277
4047+543126888+543102088+543089949+542245241+540687220+539574976+540083224
4033+541610724+542335722+542389717+543257447+544088133+543586792+542610582
4020+541735319+541235546+541495339+541924059+542276424+542392368+542007005
4006+541793744+541878783+541973554+542547867+543414062+543603395+543509042
3993+543964934+544518772+544835071+544379283+543277817+543307082+543860536
3979+543539981+543867477+544913971+544696210+544162569+545357829+547202605
3966+547526648+546301599+545309101+545926526+547097788+546996704+546097407
3952+545550860+544919692+545019590+547101800+548437211+546874377+545502968
3939+546434983+547475513+546685323+545093398+544900158+545802281+545805943
3925+545407604+546750480+548368531+547460409+545494423+546149554+548672482
3912+550093282+550434905+550171345+547695297+544476147+544442348+545844277
3898+546933221+548521100+549536619+548672692+548066952+549034859+549339229
3885+548783752+548349172+548123354+549566861+550913365+549955154+548160467
3871+546091198+545066644+546958335+547987179+547310910+548243972+549865894
3858+549920727+547096114+541828485+542937799+549490367+554639437+556353305
3844+554893543+551809522+548405016+546314854+547566063+549764286+551018112
3831+552610664+554316719+555354633+556227734+554878928+550044205+548280631
3817+550357574+552977611+555153510+556296275+556527081+556309809+555845929
3804+553873663+550414534+550744332+554004676+556270951+558398297+560793143
3790+561714903+560834407+559431675+558530634+558106135+557503709+557580063
3777+559114923+560873473+561464459+560051158+558722130+559717698+561019310
3763+560878182+559521493+558227032+558682645+559649366+558329581+553922078
3750+551720018+553074858+553070986+553076288+556667686+559565757+558010980
3736+553331790+551750539+554967874+558828656+560709673+560970791+561514164
3723+563030084+564821073+565987452+566071620+564669028+561529651+559771414
3709+561794640+564845978+568002377+570970733+573664996+576297450+578503312
3696+580229319+581370375+580959863+578670705+578098207+579356880+579133434
3682+577046341+574001770+570528863+565822745+563382240+565179369+565380840
3669+564301977+565523014+566719914+566348015+564643042+561784420+558498858
3655+557347547+557794091+555247862+548317605+545634330+548469790+551238035
3642+552148599+551759817+550845801+549472090+547665125+545409802+540873170
3628+535429427+535093316+536846111+536795290+533412619+528352078+525491224
3615+523799366+522369636+522254006+522229974+521791871+521856086+521227185
3601+519091469+516754280+514445381+511882304+510732842+510735214+509795770
3588+508435069+508476333+508835641+508178800+506439783+504494481+502964260
3574+502065451+502353915+502495950+499356887+494848299+494290102+495255253
3561+495148344+494656141+494262023+493678781+493234295+493403153+493700546
3547+493840907+493613833+492589349+491572224+491261367+491022398+490592737
3534+490898432+491304514+490008344+487846955+486836353+486875594+487302675
3520+488370027+490079745+490932894+489779037+487828956+486750721+486767359
3507+486991329+486699481+486666553+487759683+488404699+487335672+486136644
3493+486227613+486899836+487651029+488356179+488124257+486961540+486140237
3480+486189768+486916544+488110933+488968582+488997184+488844267+489379582
3466+490317946+490301447+489631352+490053514+491468245+492119330+491529286
3453+491098299+491040327+490168586+489202318+489786955+491254914+492271829
3439+493212669+494461715+494975649+494369107+493730962+493600752+493937701
3426+495296971+497322081+498684560+499158067+498814316+498161627+498860952
3412+500731226+502399156+503676700+504187634+504601495+505916641+507153967
3399+508038614+509343400+511495790+514124338+515937233+517018851+518448895
3385+520190981+521720574+523154419+524962815+527241229+529819025+532809530
3372+536477909+540126825+542663043+544224273+545840196+548298107+551887027
3358+556550067+561301984+565603903+570219889+574624741+578231626+582659883
3345+588342943+592812917+595159419+597360049+600424327+603706681+606767192
3331+609859026+612792920+615333220+617906795+619914813+620803087+621791121
3318+623744586+626050486+628204724+629471316+628562880+626607602+625954424
3304+625889336+624539310+623236233+624268635+626280559+626493960+624470595
3291+621000513+617750250+616743939+616924342+616364784+615650007+614198268
3277+611075111+608560414+608099429+607719159+606026952+603971007+602416091
3264+600974537+598872201+596749774+596149545+596981522+597971649+598516278
3250+598758629+598293180+596598880+594937577+595020454+595545898+593803253
3237+590773576+589436456+589879651+589948366+589185384+589210847+589643508
3223+588922452+587369629+585823014+585024139+585711186+587309773+588137216
3210+588202373+588660637+588733817+587836752+587370396+588016947+589035675
3196+589756383+590185905+590780692+591414895+591758750+592110348+592334004
3183+591862834+590503529+589357765+590004455+591866322+593722121+594930112
3169+594378019+592876889+593180073+594653438+594424480+593847064+594852468
3156+595913333+596904017+598380173+598915105+598719563+598929406+598918035
3142+599221009+600622241+601379991+600833340+600352054+601069692+602948930
3129+604002330+603653662+604086393+605518180+606329229+606474333+606606880
3115+607632724+609759825+611111945+611439406+611529398+610219275+608674753
3102+609700249+612468041+614381811+614667485+613850088+612792502+612648932
3088+613740771+615012107+615616173+615678679+615269318+614639650+614838679
3075+615587361+615534831+615173535+615548225+616338066+616732079+616413129
3061+615884615+615576757+615502531+616021557+617070842+617813524+618138892
3047+618668801+619584980+620538621+620931100+620318384+619352186+619025004
3034+619048653+619371928+620504926+621755264+622724531+623744865+624624489
3020+624914348+624743293+625192139+625978143+625700213+625268528+625749046
3007+626432640+627702231+630013015+631549933+631548258+631519238+631857651
2993+632262547+633360246+635229299+636915019+638048784+639492780+641458871
2980+642757832+642836454+642532572+642693651+643076503+643137405+643476446
2966+644829752+646126969+645761209+644281147+643558486+644184876+645104822
2953+645368521+645289551+645500719+646171616+647344448+648948128+650525787
2939+651889487+653083247+653483470+653264418+653330901+653298741+652983698
2926+653141359+653749750+654086350+653643642+652513853+651149525+649873655
2912+649515430+650559133+651237774+650257135+649557426+651096367+653705870
2899+654984042+654556543+654112719+655174421+657086029+658127221+658017625
2885+657420466+657295314+658145359+659204759+659745202+659566472+658918457
2872+658458170+658503096+658975452+659804011+660977680+662286477+663735984
2858+665255113+665723771+664752201+663963686+664501129+665213326+664850147
2845+664468621+664867378+664987368+664699950+664846728+665652475+666909230
2831+667887428+668327344+668930712+669638653+670114846+670943404+671797496
2818+671591350+671119832+671787590+673196565+674260150+674672930+674850682
2804+675347245+675936173+676173781+676559772+677501693+678635389+679577240
2791+680318527+680976798+681446502+681760360+682063544+682313011+682653169
2777+683527003+684633492+684895377+684609703+684796315+685416147+686263751
2764+687077450+687527552+687761044+688060949+688399781+688645203+689159346
2750+690107545+691122856+691726922+691497127+691474524+692880918+694487946
2737+694944885+694495132+693997871+694801525+696523450+697067800+696424738
2723+695948685+695841670+695810975+696164108+697450582+699156881+700137241
2710+700355944+700199817+699646189+699532827+700678870+702349312+703735615
2696+704472855+704221086+703698501+703867255+704420883+705234931+706838960
2683+708421920+709133768+709795735+710754679+711315701+710994379+710083014
2669+709367120+708953852+708981478+710050296+711733992+712930403+713181057
2656+713182452+713860186+714756134+715411126+716288588+716678555+715974870
2642+715641479+716609491+717768650+718124992+718204590+718666551+719396049
2629+719899448+719862196+719968512+720556324+720638433+719887310+719597869
2615+720650153+721866377+722515578+723239285+723570583+723310651+723861698
2602+725372525+726230454+726244685+726715436+727848016+729030196+730008254
2588+730717032+730974731+730590903+729953840+730019625+730899877+731409067
2575+731045400+731014705+732322804+733917973+734341356+733946576+733522146
2561+733030466+732659055+733184500+734678375+736469295+738064324+738444943
2548+737221046+736302076+737134193+738841608+740094596+740204052+739666888
2534+739589801+739640867+739220553+738956645+739581360+740953850+742088941
2521+742473258+742453794+742371475+742334432+742649475+743575770+744504576
2507+744962491+745432405+746401882+747245230+747143378+746971835+747655359
2494+748506381+748623371+748171734+747923732+748364346+749533202+750620994
2480+750828814+750690128+750956059+751464831+751700555+751605191+751847404
2467+752910640+753745408+753478290+753075626+753583561+755262862+756940629
2453+756665838+755296766+755343995+756575496+757206909+757076524+756678953
2440+756119604+755855696+756216085+756945791+757857924+758726386+759285665
2426+759789902+760029812+759672842+759618986+760312137+761286358+762276624
2413+762719680+762607503+762699100+763107485+763646602+763899698+763927253
2399+764710606+765809980+766471389+767216932+767684823+767665429+767748724
2386+767159867+765572790+764313872+763880653+763333164+761155834+757046178
2372+753062441+750552698+748769521+747485908+747218512+747159633+746338330
2359+745951920+747623548+750502470+752952148+756033937+759556549+760838558
2345+759484625+757569599+755679060+754625032+755985592+758007563+758542983
2332+758997131+760692059+763256635+765079924+764757626+765078041+768366115
2318+771489063+772045830+771474064+771534408+773178479+775670643+777554346
2305+779454164+781589497+782360642+781732159+781627238+783033004+784994630
2291+786121280+785808330+785252400+786150441+787769608+788531544+788361884
2278+787868460+787574973+787968289+789131912+790045929+790026744+790121969
2264+790543399+790168709+789638521+790240633+791638586+793059142+793853796
2251+793889793+793868237+793940719+793859935+794141493+795208357+796600032
2237+797583252+797655595+797065342+796614612+796645935+797179402+798442715
2224+800189406+801135303+800593116+799716004+799499533+799334198+798853750
2210+798827520+799414703+800186127+801076773+801670026+801534549+801593288
2197+802914224+804296341+804137285+803427251+803495129+803800476+803818893
2183+803879446+803907002+803794616+804156888+805471615+806918471+807175752
2170+806955723+807577648+808166576+808055306+808177458+808630490+808584308
2156+808166227+808392464+809453468+810407109+810928228+811167092+810751522
2143+810375158+810940506+811801992+812691523+813614538+813873145+813621166
2129+813688486+814146052+814344594+814217697+814334478+814425378+814166702
2116+814232347+815054418+816456557+817863160+818379605+818105512+818365583
2102+819720074+820977667+821108958+820547447+819864481+819211582+818675394
2089+818570054+819232441+820043349+820481243+821276316+822707336+823772107
2075+823763457+823000683+822048647+821721325+822465542+823428671+824034481
2062+824352594+824193537+823997158+824208117+824610084+825129250+825507706
2048+825554447+825775800+826810225+828486178+829515859+829419588+829175702
2035+828847194+828103745+827761215+828175599+828798291+829601666+830770452
2021+831586454+831348915+830888210+831460464+832986290+834383475+834528091
2008+833593286+833110814+833750110+834859459+835615954+835633324+835232195
1994+834557112+833978858+834567437+835746129+836512041+837323508+838022659
1981+838050215+837918226+837951293+837815398+837831722+838761923+840319211
1967+841199742+841037965+841009084+841679005+842610462+843382443+843619633
1954+843529013+843944303+844639408+844923198+844710704+843410278+842087947
1940+843620470+846897033+848624400+848198715+847166801+846356171+845777429
1927+845760128+846136004+846514809+847280094+848430044+849362408+850181828
1913+851406284+852272583+851730257+850923324+851118587+851893080+852660667
1900+853000476+853111397+853103374+852462823+851588710+851269342+852151826
1886+853836429+855040375+855523963+855762896+856178954+856892685+857859232
1873+858354679+856700771+853660770+853369585+855681554+857249516+857458382
1859+857615764+858113444+858509829+859288578+860567657+860882561+860247800
1846+859856298+859757376+860792429+862410340+862745335+862182080+862210822
1832+861907289+860285401+859925292+861373403+862529563+863821129+865442528
1819+866434608+867169477+868530177+869020810+867409526+866164840+866658543
1805+867924228+869350783+869532093+867988129+866878083+866678564+865147855
1792+862620462+863728346+867275654+869610087+870380882+870627978+871025340
1778+872217845+873265316+871541716+866499765+864256093+867005188+870551729
1765+872139852+871491836+871874409+874077341+874565602+874374246+874876599
1751+873123979+869251930+868376283+869767399+869805907+868557872+868836151
1738+870686229+870203339+866826808+867269515+870670323+873218715+874921177
1724+875738644+875603446+873554059+868170695+864992705+869409592+874648270
1711+877695945+878208065+875464620+872120597+871389496+869032391+863734206
1697+863090934+867761264+873645935+876201721+874943222+872623579+867800540
1684+861120727+862756427+867670226+870674439+871583712+871937194+871665473
1670+868599171+867574792+871360963+873174207+870241150+867288699+866608942
1657+865182945+858860521+850173038+853957675+858008871+854580507+852680689
1643+856721769+860114695+860738085+857179126+850895699+853101212+859439402
1630+862192265+862469079+862795912+862013955+862438593+866002505+869122592
1616+871023736+874671919+878881892+881962355+884328530+886594038+888583360
1603+890318889+891833553+892739547+893533085+895312285+897840167+900383117
1589+902389391+903049266+903571431+905524408+907587886+908150374+905865402
1576+902122064+903596267+906609410+905602261+904143756+906276298+908904915
1562+908830759+901645383+890922885+896580621+905911933+911430425+914386434
1549+916875039+917809636+914597253+907561028+899875531+902503590+912200523
1535+916511233+917129739+920884239+924683456+925141929+924871742+923045244
1522+917834750+915030891+916098941+920171554+926353130+929993081+928870617
1508+923773416+923618405+933047035+939119016+939659389+936863972+934953480
1495+937184736+939449128+937115811+933379938+936041552+941511978+943510648
1481+941769538+939872790+938857410+937553356+934043929+930188902+931543673
1468+934208566+933808413+933142888+934639065+932745107+923690818+919868998
1454+928371612+935882356+938616732+938821134+939221635+941093269+945253642
1441+950726300+954493636+954403644+953941264+956113640+957737551+958546576
1427+960295360+961284510+960448696+956976452+949165664+944508658+947777268
1414+950834222+950669584+949931227+948934404+945067030+940687536+939101087
1400+936371664+931158379+927994063+928194837+928245902+925230945+920096491
1387+916061549+915933746+918602686+920829127+921634037+922200989+922169527
1373+921972520+922563540+922238800+921788419+922205942+920982603+919492913
1360+920653677+921922082+921828881+921769304+922335908+922547774+922683879
1346+923439467+923165443+920744088+918392145+918915427+920905586+922086859
1333+922821309+923572433+924595556+925873449+927423273+928767021+928931659
1319+929762101+932730387+935478855+937172248+939271166+941903899+944655925
1306+947877585+951685243+955528620+958813135+961598019+964330720+967452343
1292+970401864+971980848+973598131+976079761+977091304+977301635+979508823
1279+983182190+986217448+987668001+987435276+986628901+985646867+983028226
1265+980580012+981377876+983123172+982917863+982655141+984618721+988362547
1252+992271499+994725364+995458000+995982468+997152300+998102942+997540803
1238+995892685+995855502+999131786+1003514140+1005315664+1004155668+1002683279
1225+1002163346+1001567303+1001162337+1001927343+1002929608+1003569182
1213+1004503987+1005780695+1005964865+1004944462+1005275551+1007322705
1202+1009425320+1010764952+1010681866+1010510741+1011812074+1012868404
1190+1012579172+1012108421+1011744754+1011207659+1011082646+1013174867
1178+1018227351+1022841523+1023658780+1021411480+1018204678+1016903276
1167+1019148065+1021831933+1022509318+1022857429+1023711032+1025001970
1155+1026286770+1025810996+1023871832+1022973373+1024458109+1027193671
1144+1029422693+1031074439+1032014756+1031435386+1031549795+1034906723
1132+1037651842+1035732421+1032730300+1031438943+1029622142+1027535503
1121+1027869730+1030054455+1031439292+1032050753+1033760261+1034331818
1109+1030741258+1026625393+1026610464+1030551227+1035532833+1039938418
1097+1043475820+1044159902+1043055227+1043635993+1045018947+1045274274
1086+1045131472+1045469677+1047252993+1052358217+1058376969+1060291995
1074+1060283344+1062191324+1063403711+1062323871+1061954414+1062037360
1063+1061063349+1062669749+1066883141+1066753733+1061820890+1059882145
1051+1064067702+1069943792+1072515274+1070291205+1066211406+1065393870
1040+1067930402+1068495332+1065659313+1064188041+1066391461+1068746822
1028+1069202784+1069123395+1068410781+1068172475+1069295218+1068594393
1016+1066559726+1067537296+1070447401+1071037584+1068935109+1066407297
1005+1065624153+1066662764+1066477059+1064021520+1062535458+1063608392
993+1063798841+1061721759+1061984900+1064722973+1064699393+1061943391
982+1059462459+1057526575+1055955962+1055116451+1055126287+1055812951
970+1056733106+1057715071+1058344181+1058438499+1059728600+1062565107
959+1064533221+1065067595+1065241302+1065123125+1064972301+1065219675
947+1065862250+1066448596+1066228010+1066069093+1066581213+1065056712
935+1060738748+1058065972+1059318681+1063094737+1069034101+1073741823
924+1072604848+1068678735+1066979272+1068435686+1070864854+1071039049
912+1069300171+1068480124+1069405023+1070845391+1072266016+1073517749
901+1072035454+1068229540+1066815542+1067292363+1067472696+1069577334
889+1072658425+1072212021+1067761509+1063455265+1061519659+1060177307
878+1059201132+1058042811+1056481407+1058016790+1060400683+1057265457
866+1050920221+1046301863+1041582978+1035889385+1034334748+1037207879
854+1037618008+1034451319+1033265023+1034556729+1032901495+1024761432
843+1014811334+1011335393+1013722286+1014960485+1012362353+1007102956
831+1001943457+997904958+993743539+991887880+993745213+995184046+994588422
818+993573321+991885718+989975715+989411552+989260379+985772368+977782711
804+970474834+966954943+964360509+962467039+962277706+958984958+950633657
791+943967936+943599664+945924539+946560068+945833570+944283258+942385882
777+941339807+938587921+932619885+927721434+926648431+927329095+927368510
764+925525827+920513386+913635310+908536435+905851938+902883721+898578663
750+895450274+895309216+895561125+893830270+892671180+892942344+891551158
737+888443348+886688216+888187184+891109427+893236668+896215000+898985094
723+898019803+895497921+894174752+892575677+891880712+893648471+892655275
710+887695922+884736426+883157790+879151172+874082852+870601190+870051887
696+870849541+869631085+867071950+866151376+866509392+866101078+865340118
683+865213640+864712682+863712022+863234225+861267296+856520368+851038640
669+846038896+845568005+848683698+848430533+845829541+843135836+840518311
656+838318797+835698900+833278521+831343125+828991043+827553256+826477044
642+823929489+821440186+819923987+819545321+825537495+837257374+841518204
629+833039030+820931345+811802202+803346049+797697172+800359694+801439952
615+794836389+794746257+805593140+816178836+818513826+811917727+801673305
602+795737011+793974484
##END=
