##TITLE=Sample description
##JCAMP-DX=4.24
##DATA TYPE=INFRARED SPECTRUM
##DATE=25/8/2023
##SAMPLING PROCEDURE=Instrument type and / or accessory
##ORIGIN=Default
##XUNITS=1/CM
##YUNITS=ABSORBANCE
##RESOLUTION=4
##FIRSTX=4397.6552
##LASTX=599.8556
##DELTAX=-1.9287962
##MAXY=1.9541973
##MINY=0.61493224
##XFACTOR=1
##YFACTOR=1.8199881e-009
##NPOINTS=1970
##FIRSTY=0.73383087
##XYDATA=(X++(Y..Y))
4398+403206422+403409537+404272042+404590012+403639377+402378043+401707781
4384+401866815+402736360+403239532+402796817+402727714+403906224+405463586
4371+406001243+405461588+405100683+405020347+404269225+402738915+401731655
4357+402520702+404174250+404816936+404223637+403585241+403837678+404486423
4344+404648339+404464808+403692301+402153869+401487242+402195952+402791250
4330+402989944+403376787+403807384+403939858+403782789+403499894+403477985
4317+403991832+404475157+404738238+405406011+406043850+405577457+404311473
4303+403209598+402584368+402736360+403545843+403822187+403122909+402288831
4290+401694648+401329714+401560995+402190090+402576213+402768128+402937871
4276+402819546+402525352+402901519+404332400+405610273+405164021+403406819
4263+402189533+402172176+402799306+403804699+404725760+404693240+404049964
4249+404084843+404692028+404659180+404016133+403576202+403250536+402864970
4236+402938985+403238156+402772353+401900285+401599247+401487995+401024058
4222+400870526+401641626+402392453+402020904+401286583+401223866+401546880
4209+401663437+401815070+402595208+403250536+402859206+402527939+402812897
4195+402173846+400626866+399889958+399858125+400202229+401821980+403628078
4182+403506706+402197655+401738664+402309366+402761251+402457854+401864424
4168+401477482+400778433+399928570+400155855+401059658+401365772+401130529
4155+400988132+401276070+401643951+401515996+401286353+401739286+402632183
4141+402963777+402305436+401311735+400803880+400583472+400255677+400085607
4128+399894117+399510615+399558037+400143672+400847732+401615786+402097178
4114+401942304+401742954+401948592+402163694+401599149+400231442+399401262
4101+399616888+400265928+401029855+401473520+401545635+401657771+401611889
4087+401086349+400497504+400566868+401187874+401390367+400877895+400577807
4074+400690467+400429613+400080891+400352388+400917457+401001330+400437309
4060+400042377+400332378+400576464+400237927+400125725+400815572+401359550
4047+400894663+399957063+399612369+400001210+400419100+400605906+400445922
4033+399647117+398956091+399145288+399532492+399754438+400132898+400158115
4020+399632445+399330686+399523060+399805692+399862972+399642794+399361078
4006+399297445+399408565+399669747+400278340+400923057+400960753+400591431
3993+400509949+400433674+399906562+399511368+399470037+399495386+399759580
3979+400262522+400896104+401343862+400767200+399495615+398845527+398995424
3966+399410334+400029539+400468160+400056525+399543823+399933679+400406590
3952+400055542+399677050+400132636+400709822+400517121+399802253+399302357
3939+399264793+399515855+399732823+399312837+398403729+398324769+398651680
3925+398039254+397468585+398039123+398661865+398610939+398452298+398789590
3912+399635982+400085934+399173977+396849086+394059603+392637335+393411578
3898+396070159+398833377+399363141+397465278+396464404+397371056+397617107
3885+397042704+396804644+396363436+396489163+397057736+396569008+395407397
3871+394765235+395171695+395508857+394492263+393966265+395302040+396568910
3858+396430442+394095399+390238167+390639748+394219161+397200199+398246791
3844+396891563+394097266+391086785+389359844+390200865+392169043+394613537
3831+397142199+398207884+397723413+396498857+393974584+391523900+392229466
3817+393628580+395382769+398145888+399575460+398112352+394523343+392542655
3804+392380182+391921747+392913745+395549303+398433794+400680445+401571115
3790+401287827+400558353+400039200+399881541+399362224+398258680+398219511
3777+399694440+400705434+400002684+398075738+397132636+397828344+399136446
3763+400190865+399793968+398555329+398482100+398809142+397552524+395052485
3750+395836947+399561050+403091829+406523442+409715684+411847842+412126086
3736+410666156+410257959+412957314+417081491+419959923+419677815+416913124
3723+414316178+412700980+411649278+410829873+409935503+408956113+410452069
3709+416114056+422417976+427650545+432772255+439468259+447249434+454788292
3696+461928681+467493237+470003100+470631180+472629062+474664214+473762901
3682+469793664+464222590+457609510+448058589+439290230+435133008+430805616
3669+427988624+428171794+427997630+426921497+425355784+422927501+419528999
3655+417055783+415378654+411438925+406282664+406695347+410673230+413606190
3642+414600710+414520800+414240100+413841237+413267850+412255088+409150321
3628+404767484+403432200+402862710+400009528+394359822+388887098+386091916
3615+383959464+382493639+382933766+383820735+383922129+383930415+383621844
3601+382315380+380686886+379589039+378659168+377328207+375559805+372878069
3588+369553615+367763924+367219914+366259814+364836826+363722441+362626887
3574+361215591+360137394+359065716+357034428+354841814+354080213+354054045
3561+353734733+352957870+352289343+351860220+351104251+350288972+349948798
3547+349489249+348344276+347229433+346669407+346317967+346163026+346140331
3534+345714908+344650663+343446150+343038216+343056949+342472034+341812186
3520+341656820+341524870+341482132+341697758+341458322+340724853+340242642
3507+340093793+340190111+340423094+340174096+339477306+339277007+339655270
3493+339545885+338776325+338096402+337877075+338157775+338715213+339207152
3480+339395235+339164183+338794894+338518943+338412440+338670804+339148267
3466+339388914+339123868+338771642+338778519+338768858+338699133+338995357
3453+339450189+339530951+339228668+339087385+339169915+339279627+340023184
3439+341367212+342200209+342197752+341865602+341637727+341728576+342031415
3426+342320467+342596287+342932859+343300118+343803191+344492546+345006427
3412+345043402+345158551+346191355+347582249+348176334+348346372+348908755
3399+349824118+351041469+352227380+352787144+353303317+354689723+356729198
3385+358755114+360486379+362118574+363711240+365308655+367334080+369608569
3372+371841335+374227927+376430497+378488082+381207054+384696569+388407113
3358+391744242+394702060+398167864+402267839+405829633+408709768+412157886
3345+416644639+421204817+424679136+427274771+429880952+432595012+435710161
3331+439534840+443092278+445566804+447098424+447907546+448529207+449831086
3318+452036505+454127495+455186041+455511282+455951376+457220898+458570101
3304+458740368+458439428+458527722+458297457+457173738+455266115+452602949
3291+449559260+446980753+444887372+442552492+440257894+438683012+437437987
3277+435829109+433443008+430800671+429205156+428596169+427668558+426069112
3264+424406852+422868846+421820485+421471894+420883507+419919575+419142843
3250+418450606+418036482+417823803+416773870+414853442+413464252+413183781
3237+413354015+413273810+412792844+412105486+411326036+410706831+410293788
3223+409849992+409572796+409430563+408432080+406786752+406645206+408115813
3210+408597140+407208736+406056819+406358644+406740935+406411961+406066481
3196+406275983+407162624+408066524+408051885+407227862+406453651+406032028
3183+405562032+404792505+404361580+404684790+405063217+405193922+405398708
3169+406035073+406972608+407276135+406825102+406626277+406793204+406479197
3156+405644955+405398741+406680151+408155474+407756709+406405705+406576235
3142+408743271+410195833+409026755+407588538+408259651+409740509+409391001
3129+407583069+407356406+410103052+412649431+411347814+408473378+408587708
3115+411941671+413960513+412189326+410348513+411673350+414417539+414531247
3102+411776774+410366165+412686799+415764744+415286561+412753544+412653361
3088+416173923+418890996+416121818+411715139+411234630+413847263+414925132
3075+412742834+410894030+412294356+415567163+416447910+413684692+410950065
3061+410748063+412312499+412779744+411361045+410367344+410759722+411588855
3047+411365368+410199795+409654475+409932457+410264051+410297358+409849698
3034+409187427+409382060+410669791+411691231+411597075+411239674+413123062
3020+422030150+438266333+449716821+446609106+436421033+428450202+423769864
3007+420613090+418350915+417106545+416774558+416784809+416525691+416349135
2993+417129994+418924237+420268658+419893998+419043545+419641004+422012662
2980+424620906+425121196+423656877+422297620+421942086+422760705+423636604
2966+423116862+422000806+421834273+423771436+426167460+425325752+422181259
2953+420521717+422085956+425236017+425888398+423884227+422688164+423611059
2939+425932905+427109089+425639268+424240679+424715292+426309334+427886018
2926+427546597+425423544+423938003+424393916+425906836+425823258+423694375
2912+422072987+422165801+423438663+424449525+423851445+422528409+422234478
2899+423497450+425281933+425670282+424613603+423975403+424467996+425542492
2885+426250973+425868682+424923877+424364867+424878125+426314050+427073588
2872+426293515+425211553+425341046+426643875+427492493+426946158+426096196
2858+425987008+426206335+426046023+425456883+424797429+424361461+424350195
2845+424954498+425741088+425827974+425368065+425373960+426051918+426679474
2831+427015424+427584128+428427507+429116239+429714026+430396438+430795988
2818+430744505+430832930+431307511+431762277+431849753+431461108+431152144
2804+431573211+432425400+433024005+433135813+433034616+433045980+433170201
2791+433288232+433476839+433844524+434355555+434874741+435159764+435285590
2777+435579259+436012837+436423555+436638723+436611606+436780563+437257927
2764+437540625+437673034+437947872+438054866+437988842+438094101+438247436
2750+438441513+438904238+439431087+439681298+439678121+439735859+439998351
2737+440258418+440525429+440913910+441240100+441611158+442231443+442780039
2723+443022062+443185550+443463892+443754221+443932643+444073599+444195004
2710+444208660+444339300+444831304+445314072+445468816+445548071+445667248
2696+445834863+446255045+446761492+447017302+447173782+447372574+447492439
2683+447572382+447650851+447758566+447919729+448065303+448411994+449034802
2669+449476370+449460028+449249511+449294476+449657445+449951344+450015730
2656+450039900+450107856+450264401+450501085+450731908+451039168+451367029
2642+451703306+452115367+452311015+452416732+452829481+453217601+453200932
2629+453036395+452993100+453088075+453376242+453730991+454040118+454311419
2615+454476381+454823859+455375173+455578911+455546062+455816348+456240592
2602+456581978+457082464+457497014+457483946+457571553+458069582+458634553
2588+458972762+458945220+458743807+458709059+458817101+458973188+459177024
2575+459319258+459352466+459362979+459480322+459638406+459671124+459691396
2561+459814929+460099952+460523214+460698033+460562154+460594281+460728163
2548+460596508+460575614+460980404+461431667+461684693+461880473+462097671
2534+462190026+462299706+462731941+463088294+463012379+463013100+463406525
2521+463832898+464018754+464068764+464247186+464574162+464814154+464997292
2507+465231062+465463620+465702335+465868082+465911247+466004421+466195288
2494+466425553+466839645+467392105+467784188+468012947+468207449+468447016
2480+468704824+468791513+468727781+468575134+468288604+468073502+468223628
2467+468773992+469391723+469518793+469141447+468920417+469061406+469329268
2453+469745750+470244107+470566630+470633964+470682237+470764079+470617032
2440+470535583+470920330+471366549+471477604+471482255+471629204+471894741
2426+472306442+472821763+473038470+472845769+472888901+473474013+473973319
2413+474054867+474168510+474509208+474815519+474966005+474935711+474828259
2399+475067792+476038634+477905352+481206980+487505922+498545037+514629587
2386+534536326+556697282+580031540+603778383+627229100+650112260+672778811
2372+696079991+719828537+741763714+760729513+775997572+785612323+789647256
2359+787901287+778308152+761850874+742562618+724502947+715011926+720775602
2345+736628315+742303566+732379196+720626590+712581809+708862193+710657549
2332+715269079+716566373+713578916+711428288+711626098+710144880+704226297
2318+694158089+683389555+679223490+683546362+687267747+681737055+667300191
2305+649806571+636187344+627970037+621211743+613467411+604404433+593412675
2291+581263072+569942962+559981061+551005853+543476230+537653670+532947459
2278+528735086+524612121+520591532+517247460+514920014+513100292+511266291
2264+509643953+508466721+507397171+506030938+504549229+503481022+502685655
2251+501726046+500844121+500279511+499881336+499528913+499050828+498389147
2237+497877624+497852079+498228934+498655536+498804188+498734594+498763480
2224+498923169+499252536+499758000+500091624+500054420+499830508+499809253
2210+500160334+500699497+501280581+501811393+502283812+502769790+503151033
2197+503352871+503711451+504450160+505096908+505234785+505145312+505180126
2183+505388481+505810498+506449156+507008264+507215146+507137037+506903464
2170+506667107+506601902+506711451+506848444+506871009+506886860+507063776
2156+507213967+507079725+506828631+506737716+506804920+506957764+507078546
2143+507244032+507721265+508238421+508422869+508557930+508918377+509364759
2129+509891969+510517462+510946585+511114036+511375643+511853532+512277448
2116+512610123+512991988+513370644+513769441+514097366+514112104+513963419
2102+513952677+514073590+514260986+514478347+514676845+515014465+515425707
2089+515558050+515479319+515636912+516291487+517173510+517771591+517917787
2075+517938780+518230714+518928027+519751461+520221358+520592416+521281083
2062+522071047+522927918+523911368+524841698+525551948+526072608+526661584
2048+527416570+528052183+528363439+528736265+529467868+530258650+530781733
2035+531012293+531171098+531413645+531689695+531796853+531735119+531867167
2021+532209044+532406069+532367194+532248705+532197778+532355208+532583475
2008+532568836+532474320+532543946+532689684+532802246+532802475+532595822
1994+532123632+531695459+531845847+532422444+532875409+533129647+533332272
1981+533547210+533922886+534409256+534835367+535200988+535387041+535318462
1967+535306214+535716866+536310559+536728907+537181185+537748285+538249589
1954+538633452+538780893+538832441+539117694+539471198+539411527+539276106
1940+539991857+541187855+542087040+542751014+543255397+543541796+543908498
1927+544413045+544577319+544380196+544285319+544286891+544691780+545742892
1913+546504690+546460183+546301476+546742291+547540377+548241227+548797617
1900+549084376+548955571+548796602+549107105+549474265+549439943+549796264
1886+550800903+551687577+552272951+552528991+552565540+552813326+553164276
1873+553043166+551978725+550435413+550315679+551850672+553478938+554335875
1859+554545737+554859875+555577297+556179177+556302055+556001803+555302393
1846+554229437+553776177+554723766+555558630+555829603+556587242+557433634
1832+556775882+555039869+554633376+555528041+556703374+558335111+559767007
1819+560363581+560416244+560310592+559949556+559443895+559485946+560025601
1805+560486460+560724028+560484691+560122017+560486984+560592308+559372107
1792+558790271+560733002+562884285+563769780+563804561+563698647+563880082
1778+564249109+563877331+561760501+558958147+559735764+563513740+566391747
1765+567143163+566495564+566129353+566601674+567000046+567222746+566670187
1751+564722544+563340165+564292274+565666596+566030972+565667054+565799954
1738+566661083+566302601+564628813+565555377+568345154+570539930+571601030
1724+571679892+571093077+569174974+565142333+562836470+566193085+570495783
1711+572813305+572404454+569467235+566835182+566350940+565635090+564199788
1697+564446985+567152595+570371857+571374662+570443383+568613311+565214187
1684+563040110+566804069+570705121+571811547+570548314+568799528+567347392
1670+565809713+566966116+569921806+570621674+569586642+570019990+570837169
1657+569390993+564401135+559413700+561777662+563332698+563084584+566537550
1643+571218314+573288573+572450828+569249186+568065404+573087881+577706420
1630+579291652+579882069+581254885+583277526+586820358+590119071+590416179
1616+590758351+595273596+600028703+602576196+603549133+604420742+605723014
1603+607224864+609127313+611265889+612842148+613944906+615301936+616878850
1589+618419476+620210575+622116233+623334010+623897637+623854735+622422053
1576+621935846+624875291+627002012+627196612+628585672+631297963+633232638
1562+633132488+628683987+624595606+631758428+639593346+644933303+648495981
1549+651223796+652895291+652276512+648805403+645465294+652509561+662876122
1535+667798646+670518797+675217377+679882028+682925684+684995812+686059271
1522+688201581+693508067+699286939+705985431+714032701+720640017+723230347
1508+721162707+723201069+734652899+743526517+747676730+749346785+753606711
1495+761823888+768603142+771637431+774340880+781089480+788908809+795533548
1481+801891048+807823190+811655204+812278175+811621406+816817786+826841650
1468+834499195+839161815+845046076+852176738+855419580+852308328+851668523
1454+861227599+871287488+876286255+876862852+879198976+885797712+891659704
1441+893366831+891773805+890100017+894589127+902489284+907398708+910358524
1427+913288472+913614400+911123302+907231749+902122156+900757856+903047868
1414+902797265+899917032+897047540+894905231+892434700+890466751+889606867
1400+885902578+877877513+870227829+866818552+867309933+867513769+864850144
1387+861692584+861240503+861949475+861895307+861448203+861032409+858883877
1373+855691077+855687933+857946702+859002170+856978350+853027649+852957302
1360+858288809+863761796+866596965+866105715+862967411+860343414+860631025
1346+862404176+863343316+862332912+860266714+860614584+863877862+867371044
1333+869596932+870187874+869886180+868793116+867190592+866661155+867262249
1319+869107844+872646680+875344823+876804819+879748849+884115278+889638045
1306+896293635+900745083+901606802+902444482+906077245+911410651+915267293
1292+916617315+917526324+918363153+918002379+918320774+921014791+924566269
1279+927704179+929821795+930464744+931682651+935045947+938852089+940795606
1265+939174808+935039004+931574380+930080389+931420455+935394342+938577579
1252+938526685+937470628+939298734+943931814+947077781+946202438+943721493
1238+943047825+945103872+948514393+950388873+949789089+949266530+949741078
1225+950176653+950558256+950788751+950217198+948576487+947401613+947643963
1211+947356680+946320666+946098424+946591901+947052891+946537602+945219021
1198+944512996+943664508+941507330+940340185+942095324+945066406+946679934
1184+945636714+943085946+941535691+941691713+942412409+943122823+944373022
1171+945179655+944405183+944540375+947420280+949866379+949497549+948930580
1157+949558529+950114166+950963112+952631791+954911848+957384802+958224774
1144+957710861+959409932+962994749+964543563+964831567+966255210+967610144
1130+968049125+967820792+967871096+970398153+974736679+977572765+978550812
1117+980207832+982116699+980692270+976589741+974783053+976675939+978522057
1103+978970209+981763261+986516468+988773534+989398863+990962283+992378656
1090+993080882+994743208+998584130+1002734933+1004070413+1004984663+1009207909
1076+1012824232+1012537472+1011927209+1013171120+1015889109+1019461547
1065+1022285057+1024980187+1029527266+1032945123+1031811187+1031616848
1053+1036564983+1039190749+1035768568+1033910528+1035887713+1037841841
1042+1039513336+1039892581+1036292437+1032120740+1032822376+1037623136
1030+1041797323+1042405949+1039524471+1034996454+1031846164+1032509941
1018+1036740523+1042101046+1044397936+1043111581+1043742608+1046063995
1007+1043946575+1038110063+1034226828+1034945953+1038528216+1040588781
995+1038593061+1035570037+1036585615+1040614981+1041556414+1038761592
984+1037364804+1037597657+1036463327+1037552200+1042442564+1044393744
972+1041923541+1040690306+1043081123+1046588520+1049404497+1051023986
961+1049302972+1047014466+1048507540+1050718821+1050038079+1048124757
949+1048580572+1051517070+1052060393+1049503140+1050007818+1053932122
937+1056092182+1056991039+1059177889+1062452957+1063750774+1060903553
926+1059502376+1063284414+1066141395+1064169713+1064098711+1069685078
914+1073741823+1071020100+1065740928+1065045645+1068693604+1068677949
903+1063085884+1058686246+1059497791+1061136733+1059634490+1058940059
891+1061623988+1064635745+1065163283+1064006618+1062545181+1059973715
880+1056452171+1053256817+1050522517+1049453033+1050250889+1047819462
868+1040853205+1037218542+1039836317+1041845203+1038424333+1033034007
856+1031302644+1031668986+1028055807+1022810957+1019967928+1015089223
845+1007555212+1003786274+1003560692+1001144789+998551249+1000329182+1000207941
831+994219797+989508248+986619696+981203039+976453763+975053568+974868007
818+973965351+971230658+967474493+964045894+961349977+961411285+962499700
804+960149755+956291213+953285875+950910254+949395696+948420335+949020381
791+949283691+944603255+936946235+930655807+926991473+926213333+926277064
777+925076055+924883878+926537361+925732759+920284466+913026603+908620284
764+908990425+909564205+906915842+904302849+903714527+904620066+903794634
750+897683742+893000031+894482428+895154851+892583189+890300119+888762178
737+888377038+889401262+890836827+892844861+895032170+894885319+892294858
723+890442451+889368250+885775704+881724789+883248451+889469382+893434362
710+892721852+890507034+887485910+883756534+881708283+879573374+876522710
696+877632150+882349987+883233058+881431938+883987422+887412223+886822526
683+884173115+879077539+873706798+871838933+871945567+874430115+880932238
669+885203365+879101316+871797406+869235634+870995424+876698578+879694156
656+875048304+868068685+865712845+865604574+863752298+863684506+866687290
642+865153410+853398838+840981406+840030083+846518714+845673829+839777908
629+842586288+845989081+833836203+816268962+811044416+812938677+806243853
615+798452099+799346306+799721293+799045464+814652879+845616844+856844992
602+837920262+822510657
##END=
