##TITLE=Sample description
##JCAMP-DX=4.24
##DATA TYPE=INFRARED SPECTRUM
##DATE=25/8/2023
##SAMPLING PROCEDURE=Instrument type and / or accessory
##ORIGIN=Default
##XUNITS=1/CM
##YUNITS=ABSORBANCE
##RESOLUTION=4
##FIRSTX=4397.6552
##LASTX=599.8556
##DELTAX=-1.9287962
##MAXY=1.9218725
##MINY=1.1090158
##XFACTOR=1
##YFACTOR=1.7898832e-009
##NPOINTS=1970
##FIRSTY=1.170051
##XYDATA=(X++(Y..Y))
4398+653702404+655955074+661026528+663987107+662473650+659646140+657947997
4384+656217950+653506062+652556655+656229606+660046816+658467357+655200476
4371+654747984+656438269+657503097+656171796+654822778+654787013+654604258
4357+654967370+655782842+655358256+654455869+654623505+656287616+658228989
4344+657831577+656467574+657084039+657666671+656741507+656149417+656291279
4330+656086346+655890203+657834241+660847369+660674537+658664165+659490759
4317+662003641+662624835+661754085+661612956+662385802+662634093+661798774
4303+660247288+657793947+655199744+655117490+658314639+663720633+669443252
4290+670284099+665124731+660217117+659740648+662546379+664774539+664554753
4276+664150681+666138276+668758187+668442362+666959541+667807581+669211412
4263+667425354+664804110+665208582+665179544+662567158+661741830+664225541
4249+666620472+667111460+667130308+666649244+664856592+663018185+662534057
4236+662609650+662291028+663132674+664884299+664626683+662873393+662861804
4222+664539901+665624177+666023321+666112035+666031180+666166781+666441313
4209+667371406+669135686+670971429+671773913+671394216+670010632+666760336
4195+664003757+665418977+668580694+669117170+668395940+668376959+667976483
4182+668637904+671793827+674255493+674324492+673757512+671771848+667281228
4168+663318026+662436353+663209465+663591293+664643667+667018750+668828385
4155+669985923+671076726+672140822+672937378+672412557+671927363+672016809
4141+671335207+670452801+668651891+666588703+667921869+671285989+672215415
4128+671522691+672596577+674726833+676384949+677993447+677482679+674587236
4114+672855791+672920728+673277646+673142911+673269920+673839298+672843936
4101+670539517+669702200+671737881+673869469+672274691+669206150+668752659
4087+670539317+672530641+673394532+672676632+671873549+672400035+673629303
4074+674467353+674086524+672929386+672373461+672337496+672229735+672777334
4060+674623067+675848339+674452367+672131564+672021471+674325491+675818968
4047+675467377+675948908+677432927+677726441+677511384+678579675+679149919
4033+677315775+675456987+675243462+675641807+676414187+676709299+675817969
4020+675654328+676738671+677875229+679029703+679939682+680245184+680105188
4006+680319379+681431960+681633031+679896125+678258655+677610354+677315242
3993+678250996+679686063+679437905+679556722+681050532+680503466+678405245
3979+679093641+682542277+683889364+681261060+678551902+678156088+679018381
3966+680136291+680667839+680436464+680657582+681653811+682526559+682951545
3952+683465710+683198105+681423169+681041208+682029311+681010305+679612135
3939+681122063+684082375+684850027+682588166+680911135+681790677+681343646
3925+677918387+676866946+679023509+679229109+678061514+679305634+681213906
3912+681353437+681128057+682097245+683366141+682482269+679054679+676568370
3898+677466295+681018097+682416467+678298416+676218045+680460907+683610636
3885+682306840+681567695+682989242+684407192+684929682+684314416+683107460
3871+681374616+679867286+680525311+680723584+679503508+680393773+682665890
3858+683083483+679804414+673613252+674011930+679945876+684967512+687602409
3844+688126165+687884601+684620251+676421713+673079573+677045505+680765211
3831+682633722+683862723+684439960+686171804+686915412+682390492+678375807
3817+676119008+675715935+680487282+686205438+689163354+688077413+685756743
3804+683870382+680341557+679343664+681076440+684033556+689767897+694883908
3790+696237454+694559957+691327843+689792673+691667378+692654815+691922396
3777+693427062+695596480+695165833+691098133+686783674+687018712+691181585
3763+695704974+696688348+693783448+691675637+691184116+688321441+682315365
3750+681304551+685429262+687610135+688173119+689043604+688633204+686225485
3736+683086014+682045229+684077047+687642836+690510839+691301069+691729517
3723+693029783+692874135+692678659+695286648+697279705+693216401+687116283
3709+689278241+694999395+697645082+697218498+696538827+697606652+699983534
3696+702993133+704962878+702577138+696699804+695221978+698251490+700837435
3682+700193263+696514784+692516683+687706841+685121162+686921340+688148077
3669+691155411+696233525+697390197+694114525+691230604+690683604+688496937
3655+684683722+683457119+680880964+673370689+672012680+677491403+681443283
3642+682073468+681304551+680165729+677896142+675165738+672510661+666396890
3628+659153887+660349055+664092870+663739815+658524235+653652786+654016031
3615+655472544+655942885+656996591+656656390+655257354+655124284+653867776
3601+649972641+645826951+643370946+643254527+645722187+647605550+644990101
3588+639310706+637760951+640598916+643306942+643530191+642210345+641579227
3574+640923999+639426060+637457713+634032587+630189868+628512637+628157117
3561+628550200+629873909+631886946+633007720+632138701+631543148+632243798
3547+632033070+630739066+629650794+628527622+627225759+625685727+625417855
3534+627316337+627543715+624587265+623098584+624914813+626695676+627187063
3520+627682780+628498451+628631987+626832542+624172670+622678793+622781893
3507+623772926+624257387+624398782+624221222+622098959+619605524+619602327
3493+621352154+622335861+621537906+620286193+620973723+623084065+623670226
3480+623060954+623259494+624597389+626399098+626419145+624969160+624824168
3466+624892834+623727504+623159724+623360928+623246373+623075540+622495838
3453+621673307+622160765+623671359+624367013+624521130+625791424+627896505
3439+628810480+628284127+629021674+631408413+632238736+630849558+629636674
3426+629964621+630879862+630401062+628763193+628376237+630282777+633471801
3412+636391753+638047804+638673528+638779757+637615493+635525931+635051127
3399+636989037+640297743+643746114+645431404+645860585+647137073+648167069
3385+648653461+651100674+655068805+657424307+657790417+659035802+661832808
3372+663852771+665555244+668761451+671781106+673193595+675118851+678484501
3358+682200810+686667654+690705450+692217175+693881485+698170503+703447956
3345+707809902+710558288+712689143+715697809+718880039+721485764+723886090
3331+725598153+728067878+732929004+736301848+736159920+736585904+738873673
3318+740036139+738950531+737556291+737034400+737640609+739389836+740930933
3304+741779040+742656717+743857679+745513464+747068947+747035713+744382101
3291+739852518+735655012+733030638+731698204+731891416+732963637+733515365
3277+734099795+733338671+729262313+725876882+726410894+726706872+723777995
3264+721691630+723093529+724980756+724489701+721436612+717078529+714961793
3250+717253425+719895781+718161872+714139329+712731702+714066866+714940414
3237+713851410+712510584+713251928+713735856+711945335+711463538+713354161
3223+714688260+713661262+711761248+711749060+712682083+712480280+711970577
3210+712709989+715308389+718426081+719217643+717905789+717104304+716775758
3196+716574887+717331149+717494723+714592154+710824229+710784001+713298948
3183+714684264+715506662+716462596+716854481+717057683+717096445+716770429
3169+716585943+716778288+717247364+717754803+718259444+719435697+721177332
3156+722207593+722920298+723821686+723110047+721375139+721619167+724076837
3142+726637873+727236622+725073865+721417764+719752388+721736986+724789875
3129+726483890+725835389+723874501+723751421+726099864+728163651+727833240
3115+725853371+723451647+722267868+723058231+723927982+725168106+727143313
3102+728723772+730968716+732456465+731402959+730622120+731864176+733587695
3088+734094800+734027399+733885804+731983859+730086709+731443320+734058436
3075+735421373+735851887+735897576+736612145+737387989+736102176+734465239
3061+735429765+737452392+737702682+736803159+735633167+734285215+735110210
3047+738082178+739829075+740529059+741477534+741466078+740400584+739059092
3034+737532781+736669889+737112924+738563043+740800594+742663044+743664800
3020+745266505+746682924+746030959+744315033+742510393+740435550+739850720
3007+742708600+746699774+747885817+747081935+747356134+748623831+749300438
2993+749364375+750170189+751722009+752321624+752615538+754372091+756240269
2980+756356756+756028343+758720850+763549474+763564193+759064648+757826656
2966+759448141+759704025+760340471+762344450+762669200+760161578+757568041
2953+757496444+758952491+759419169+759131783+760340937+763009335+765662614
2939+767641350+767537985+765173624+763136211+763128085+765308958+768312562
2926+769372595+768468743+767033010+764758828+762796808+762027758+760101504
2912+757586024+758472426+762366628+764988871+764295480+762319607+762270788
2899+763706055+763311173+761310391+761173392+763961872+767295554+768540540
2885+767456664+765404532+764354489+766217872+769584389+770844360+769496075
2872+768454957+770095291+773036489+774188432+772766619+770642157+770103083
2858+770946860+772084417+773459077+773945203+771853043+767608716+764669582
2845+765513825+768368908+771051358+772770415+772986937+773167428+775037404
2831+776878875+777098727+776778306+776151118+775513739+775918145+776964591
2818+778462464+779855305+779587566+778836632+779685538+780978477+781424708
2804+781720353+781656016+781368896+781965780+782873295+783892568+785493273
2791+786699031+786969833+786852814+787021983+787280397+786577816+785687284
2777+785782991+785861714+785639065+786249736+787420527+787922771+787924169
2764+788437136+789008578+788918267+789117739+790399089+791981080+793148341
2750+794072640+794389464+794236214+794572219+794335450+792572902+791129443
2737+792003658+794589602+795630520+794353299+794239544+795864958+796730048
2723+796619689+795938620+795005330+795155251+796670440+798413406+799176862
2710+799399844+800218379+800841372+800248084+799226413+799086683+800114614
2696+801705196+802627097+802310472+802242472+802594395+801904868+800870876
2683+800540199+800871276+802275640+804470033+805664335+805003846+804083077
2669+804294204+805015101+805283240+805167553+805370488+805957183+806719173
2656+807818634+808806071+809468358+809966206+809672759+808400933+807011155
2642+806612210+807579267+809068748+810128181+810709614+811068731+811367106
2629+812102389+812811498+812334230+811152782+810581806+811253084+813018030
2615+814987243+815789527+815132301+814780178+816157834+818344368+818961500
2602+817747417+817041106+817130086+817254898+818332913+819803146+819697249
2588+818110397+816939472+817552408+819278458+820134556+819720626+820068021
2575+822331880+824785487+825224991+822990704+819196071+816424441+816206986
2561+817676953+819431109+820631938+821341446+822348796+823573802+824023497
2548+823428144+822650369+822273004+822090715+822160980+822946880+825168313
2534+828000551+828558141+826747706+825669558+826425287+826948311+825601091
2521+823978141+824142447+825260290+825529361+825870295+827572369+828783321
2507+829003173+830009325+830561121+829338913+828562403+829597061+831297469
2494+832350242+832424037+832478051+832799404+832603595+832120999+831913602
2480+832451544+833365119+833112432+832466995+833283532+834646869+835150711
2467+835185677+835065994+834014952+831833147+830114023+830887136+833424062
2453+834619962+834326781+834416094+834889366+835801676+836921984+837464854
2440+837827434+837632890+836437390+835961321+837341042+839070022+840009573
2426+840283372+839254709+837602320+836846524+836368457+835721555+836220535
2413+838209462+839729246+839567470+839033924+839189439+839117709+838139996
2399+837770290+838964059+840565630+841782377+842491286+842226810+841246433
2386+840840962+840559237+838943412+837421830+836933040+834766819+829785877
2372+824035551+819102762+816761779+817384505+816476257+812401697+810142368
2359+810436814+809956482+810611110+816946598+827176621+833957675+833379772
2345+827944273+823042054+820518115+819931221+822183691+825931169+826829427
2332+823154477+819375696+820691346+825178503+828028857+829864866+832882523
2318+836440054+839166795+840309680+841078064+842564348+844273481+846125808
2305+847559210+848104878+848658671+849895398+851190202+851254872+850514861
2291+850181719+850118114+850362742+851179679+851979965+852105509+852053160
2278+852607486+853417963+854388949+855824682+857352459+858432739+858488751
2264+857537145+856502688+856090423+856139841+855984193+855523842+855298196
2251+855858116+857372439+858451986+857534215+855849991+855362266+856451204
2237+858306861+859130791+859169220+860013797+860585772+861038264+862748330
2224+863599833+862573700+861540708+860755007+859679856+859062658+859512552
2210+860310507+861384460+863313778+865141463+865614867+864401651+863101119
2197+863742893+864859804+864800329+864387465+864191389+864436683+864691968
2183+864480174+864553902+864994606+865085584+864921610+865232174+866125370
2170+866652322+866080147+865525888+867049535+869877111+870745597+869318988
2156+868234180+868107303+867527669+867149704+868630327+870942139+872238941
2143+871996044+870704437+870156771+870611661+870196999+869381061+869649866
2129+869925663+869354354+869292214+870264999+870842636+870336662+870048943
2116+871038445+871850586+871055095+870082910+870186009+870770906+871070081
2102+870918628+871145940+871987319+872166212+871421405+871077274+871705394
2089+872348567+872303211+872258455+872700024+872969695+872476043+872037870
2075+872924672+874078214+873990632+873830588+874631674+875368888+875094356
2062+874734174+875061055+874972075+874657848+875571424+877200302+878331266
2048+878663009+878145713+877204298+876560859+876273606+876256356+876494191
2035+876846714+877736646+879306781+880511739+880658529+880367879+879947756
2021+879149668+878578491+878433366+878434565+879342413+880900227+881501374
2008+880752038+879634128+879243310+879344877+878956523+878413053+878138321
1994+877732982+877510666+878114943+879368521+881287782+883819646+885629082
1981+885896954+885370334+885099998+885463044+885561947+885016546+884936557
1967+885673838+885971748+885304398+885392046+887129552+888572678+888325385
1954+887608085+887840592+888818238+889408196+888301742+885489218+884033305
1940+885609567+887340146+888198243+889167431+889545529+889047481+888505343
1927+888215692+887872760+887650777+888020749+887748082+886862612+887754409
1913+889794286+889986699+887445777+884998896+885080350+887146069+889660217
1900+891404649+891683710+890521977+889716495+890249376+890793911+891367552
1886+892106498+892578438+893500272+894833372+895933033+896263910+895930036
1873+895407545+893116113+888980280+888465582+891973095+894218971+894655945
1859+895723570+897136592+897948068+898421672+898304120+897096431+894896244
1846+892168704+890846260+893013946+896009691+897783695+899062514+899301015
1832+896648935+891952182+890439790+893175256+896155549+898564533+900749003
1819+901512658+901437931+902301488+902678188+900902919+899695563+900789829
1805+902136716+902445615+902023027+901724718+902081303+902276313+900638311
1792+898290867+899681777+903877551+907115127+907044929+904861925+904245326
1778+905964316+906593036+902708492+895508314+893748563+898460435+902911693
1765+904406236+903483402+902847556+903799428+904365542+904934987+904677038
1751+900980444+897869744+900222782+903289525+903534419+901774869+899958707
1738+899550172+898514715+896061041+898207481+902711555+904813705+905398601
1724+905801808+906136482+904753630+898738363+892353790+894915292+901299333
1711+905817659+906679552+903421196+899613976+898118901+893769143+888189385
1697+889412592+892940351+896874115+900627255+901666708+898509387+890020466
1684+882763277+888608043+896655994+899807321+897424844+893259107+891787276
1670+891280170+892632651+895802627+895739821+892751935+893037656+895107638
1657+893654189+884916976+873207463+877167334+881833384+878657015+879072077
1643+884582303+886328333+884419994+880696359+877500609+881185349+886853554
1630+888833823+887353333+885634077+884302775+884543674+887237047+889087908
1616+890495136+895266083+900454290+903088521+903966931+905136057+906091792
1603+907218626+910931672+916039557+918954115+919392620+920484089+923155217
1589+925618948+927161044+927547600+927164774+927222517+927065604+923832157
1576+919436244+921010309+922905328+920743836+921383745+926610448+930296053
1562+929968639+923114724+912790526+916887863+925158996+930440646+933432594
1549+936773003+938549670+933391634+921082572+909766408+914904930+927309566
1535+932702906+934171607+937569426+939782735+937717882+933668098+928667109
1522+924247286+927873482+936132361+942379469+945502356+945589072+942808117
1508+935216788+929373952+938401748+947487021+949463427+945842625+943103163
1495+945488303+948155169+946850642+944832277+947961758+952636865+954555261
1481+953081698+950357688+948255205+945662933+940007116+936316382+939048917
1468+940178349+936269960+933744423+934754572+932086773+922878820+920335767
1454+930258423+939110057+942092216+939859593+938090185+940372493+943939481
1441+947147685+948618717+946284460+945994876+949222928+950070701+950350495
1427+952275551+952309051+950687366+948485780+943400073+940539596+943759256
1414+947027003+948583685+949765332+949114767+944547155+940400998+940905639
1400+940943935+936150144+929719482+926913885+929717284+933762939+932853959
1387+926243872+921273253+921715621+924936613+927272535+927357652+924728416
1373+921247345+921647554+924750328+927243763+927709376+925722780+924304030
1360+925451644+926509346+926580011+927246494+927930693+926721339+925791979
1346+926967566+927417727+925089797+921911097+922090189+926254128+929322603
1333+928409493+926507015+926650342+927797090+928004888+927778841+929344381
1319+932450419+933975931+933630002+935302038+940410123+944916528+947534441
1306+950945248+953892441+955471168+958790997+963829882+968162923+971106852
1292+973138804+975429570+977413768+977990938+978294775+979500266+982076620
1279+984965603+986474864+987402560+988478244+988703957+988205110+987404491
1265+986137660+985181193+984057089+982989663+984412342+987307386+990172858
1252+993733452+995936903+994642299+992354130+991439689+991068917+991533331
1238+994021704+997794491+1001929858+1004496555+1003680218+1002099293+1002283647
1225+1003117700+1003854448+1004263183+1004866128+1008592227+1014518181
1213+1016963530+1015161887+1012724797+1010516218+1008591628+1007960976
1202+1008673215+1010285643+1011968068+1012935658+1013417988+1013295973
1190+1012443405+1012259651+1013746601+1016658094+1020143096+1021425179
1178+1020055514+1018881659+1018354240+1019097649+1021701776+1023450270
1167+1022996446+1023143703+1025230734+1026372087+1027574315+1030954085
1155+1032077523+1030036114+1028071230+1025940442+1025189840+1027817078
1144+1030366525+1029653953+1027684674+1027083127+1027847249+1029471332
1132+1031392325+1031071038+1029024700+1028587194+1028098470+1027692466
1121+1031251595+1035100109+1033151609+1028573540+1027440712+1029876869
1109+1032346461+1031160218+1026557373+1024782238+1027921909+1029870409
1097+1029276189+1032237634+1039131977+1042699098+1040064334+1038016398
1086+1041260035+1043984711+1042700496+1043627326+1047923469+1048673671
1074+1044932386+1043000870+1045814792+1050979023+1055644672+1059603611
1063+1063121647+1065698201+1066055319+1062331951+1058781813+1059118018
1051+1058318864+1054839924+1052227339+1052485287+1056305495+1061344780
1040+1064967580+1064368498+1059547932+1057241382+1060516788+1065769665
1028+1068019271+1065680885+1063776742+1064323408+1062757402+1059408202
1016+1058988411+1060835543+1062027847+1062741884+1062636787+1061191463
1005+1060453116+1059735216+1056120608+1052491614+1052649793+1053212245
993+1050700694+1048802878+1051498849+1055825429+1057190898+1056039221
982+1053916158+1053502761+1058403782+1063089745+1060111782+1055605444
970+1055972553+1057404956+1056663079+1056213651+1057837134+1058762898
959+1057549148+1057850055+1061535661+1063937118+1060771073+1056868812
947+1057039978+1057751285+1056973377+1057267490+1059496716+1061703364
935+1061913092+1061903502+1062142202+1059806414+1057045972+1058310939
924+1063645336+1068724849+1067739543+1062741351+1062627462+1067819199
912+1070750540+1069246074+1066139437+1065365059+1069603992+1073741823
901+1071976078+1067883270+1067129006+1067326480+1062536817+1056651957
889+1058275440+1066806720+1071199769+1065534494+1061276580+1066471447
878+1073437720+1071794922+1061177476+1052116247+1050623769+1050868264
866+1050381139+1053213643+1055906617+1052342560+1046432923+1044160073
854+1046722640+1049563936+1046070143+1039443539+1033977004+1028713471
843+1028468510+1034674324+1037642296+1032165238+1022052567+1011867566
831+1006912133+1008584568+1010459140+1009566411+1009251584+1009402504
820+1008275736+1004715875+999437489+996064978+994477859+992442911+991013638
806+990986997+990655654+990096599+988860071+982829753+975632039+973385230
793+971821622+968128490+966180390+965539149+962148922+956887453+953587938
779+953313072+954828927+954710576+951199334+946112894+941474351+940127865
766+941371585+940194333+935599281+929794809+924647762+921864077+920605104
752+919022315+918699763+920644466+920870512+916948604+911760797+908242894
739+907324789+908409665+910195590+912003959+912216885+910047201+909045511
725+909841535+907440343+902329261+899804457+899859137+900261545+901283015
712+902966107+903727431+902442884+901628278+901962619+898969272+895183564
698+895313504+892564784+885150482+883560566+887371582+887521836+886706697
685+888630355+887661699+882438127+878859750+879526100+879985652+878667671
671+877443531+874781994+870268462+866072688+867056861+872481571+871648117
658+869460251+874922190+876173037+869237135+865332942+867417643+872200978
644+876206205+871060290+856925808+848184400+846597481+841588233+835765578
631+836280143+840297159+841994703+831356412+811258945+802989743+813233020
617+822324354+812609162+806202210+825717644+849663291+849518099+837318197
604+832295429+837778548+834096007
##END=
