##TITLE=Sample description
##JCAMP-DX=4.24
##DATA TYPE=INFRARED SPECTRUM
##DATE=25/8/2023
##SAMPLING PROCEDURE=Instrument type and / or accessory
##ORIGIN=Default
##XUNITS=1/CM
##YUNITS=ABSORBANCE
##RESOLUTION=4
##FIRSTX=4397.6552
##LASTX=599.8556
##DELTAX=-1.9287962
##MAXY=2.0577829
##MINY=1.2758009
##XFACTOR=1
##YFACTOR=1.9164597e-009
##NPOINTS=1970
##FIRSTY=1.3660611
##XYDATA=(X++(Y..Y))
4398+712804512+709133236+708800886+709744815+708756535+707976822+709845521
4384+712664306+713075840+709444624+704511749+702887633+704448116+706026763
4371+706408999+705273672+703719720+703208662+702771251+703228131+706170576
4357+709288121+711806964+714327362+712655722+707227651+706144077+710234787
4344+713302508+714627304+715544175+713170264+707912318+705096083+707006271
4330+710743544+713239683+714893408+714960774+712379915+712337057+716627251
4317+718206333+715912291+714000051+711199055+707411834+707196550+711579924
4303+716305476+717717667+716127140+713312460+710242189+708547409+708800388
4290+709033214+710082390+712890040+715256611+716007586+714322262+713028255
4276+715369322+717568194+717068021+715223146+712945463+712226585+713921053
4263+716551177+718376520+716655118+710952670+706184260+705196727+706513127
4249+708502623+709145988+708158455+707284318+706419511+706496581+710071691
4236+715221777+718103885+718305982+716765341+714791955+713097052+712296625
4222+714016659+716677698+716031410+711963778+708912043+709533574+712237221
4209+714031961+714067852+714121657+714393981+713482896+713220276+715160632
4195+716548129+715957264+714670971+714136337+715099735+714762036+712132534
4182+711673352+715504116+720996381+724318325+723997358+722556615+722216863
4168+721694546+719980110+719078231+720861525+724849413+727953772+726589476
4155+722086735+718842233+717333689+716311136+716264982+717000282+718160987
4141+720037399+721703503+721271939+719140807+718160116+718665017+719384020
4128+721300428+724668714+726243690+724474578+722678906+722825021+723855287
4114+724594381+723526296+720575765+717892831+716646969+716696358+717864902
4101+718840180+718991707+719300668+719961263+721109092+721972281+720852754
4087+718841424+718700970+720755096+723437843+725358357+724833924+722831490
4074+722285722+722673494+722630699+722113171+721098704+721331592+723280346
4060+724130037+723547569+723320218+723202841+723018285+723532827+724431347
4047+723349702+721121595+722542806+725921728+725933858+724241691+724309741
4033+724954100+725119000+726623999+728908586+728391929+724711696+722476871
4020+723981994+725933733+727090209+728312620+727145259+723303547+720384926
4006+719944654+720592995+721723594+723959228+726079039+727137794+728734480
3993+730271264+729175249+726631774+724789698+722697069+720667763+721904169
3979+726648071+729612473+727623848+725288130+725487925+725265301+724601534
3966+725464724+726834431+728439141+730367243+730733431+730502721+732468642
3952+734603383+731932578+725151408+721790462+724762578+728490085+728245192
3939+727410367+728979435+729692217+726131352+722731343+724291515+727098233
3925+728134035+730278853+733476889+733305644+729667150+727231099+728954242
3912+733207986+735660707+735099762+732828673+727795216+721683225+720665897
3898+726142797+732050452+731703609+724098935+718974539+720930321+721399455
3885+717816446+717305760+720976538+727068749+733112255+734246152+731032192
3871+730255838+731044694+729837274+727554367+726993110+730516468+733685704
3858+732205586+725529041+716614624+719620764+728949764+733030956+732280292
3844+729987059+728242766+726563102+721652123+717490751+719339172+723743446
3831+726306515+726689187+727257908+728965501+729915961+730322706+732094368
3817+729921497+726271308+730072899+735558819+736013148+732377391+729339776
3804+726556322+722244979+723424159+729459081+733939678+736945818+739484939
3790+740330650+738481172+735236732+734940398+738629774+741083678+739194390
3777+736929086+737190027+738541322+738062609+735326304+732495576+730934657
3763+732001685+733537723+733505067+734703778+737919604+740881021+738902410
3750+732451848+731592017+733576102+734569855+737061827+738746840+737022079
3736+733943535+733217130+734267736+736535590+738936994+738451812+736685375
3723+737987405+740702374+741507404+740017707+737669175+734885535+734033853
3709+738291018+742526846+743711624+742169055+739303183+739240171+741976973
3696+743479234+741842864+738523905+736071868+736048044+737554287+741035533
3682+746067558+748772885+746120119+737970237+733169047+736525202+736680585
3669+731438687+730665630+733733662+737730756+741930072+743485704+739882478
3655+735861187+734234644+728283011+717206671+715439674+721023066+725908852
3642+729110620+731267318+730987343+725486495+718637772+716622213+715380954
3628+710054834+708126607+708868625+707329042+702971544+700026487+700621271
3615+701682576+702863125+703480488+699689410+694420702+693485420+693802779
3601+692527745+692154030+692465977+691076925+690727718+693541278+695003294
3588+691098572+686777152+685504605+684650995+683396923+682329024+682065720
3574+682854514+683306480+682013345+679556891+678430771+679820134+680982892
3561+680180226+679422098+680659562+682048863+681077565+677815398+673541936
3547+669731077+669639452+673807294+677723151+679020018+678029313+674676019
3534+671306303+669785194+668271363+666927159+667456567+668956652+670410333
3520+670995537+670696715+670917908+671389157+671447565+671853750+672510426
3507+672302855+670359886+667356172+665707174+666299034+667727772+669126279
3493+671288202+672068475+669214109+667361832+669564125+672035196+671989912
3480+671242296+671763121+671602637+669667941+668875850+669971491+671230788
3466+672701327+674409915+675945020+676971864+674835009+670122955+668006254
3453+669141456+671485385+674628247+677217068+678482523+679049751+679031650
3439+678853501+678816864+677570754+674537244+673028762+674529593+674856469
3426+673196835+674566728+678765857+680037471+678378271+677222915+676919116
3412+677876792+679540283+679694982+679565413+680944015+682687935+684943287
3399+687938417+690008404+690663400+690672668+691412883+693091987+694161379
3385+694160508+693676818+694236022+696516379+699320174+702678195+706255980
3372+708763875+711516477+715517241+718318609+718365137+717913233+719555451
3358+722670073+724577586+725781647+728927806+733436395+737669300+741020355
3345+743918325+747626735+750123558+750385495+752704666+757698375+761108461
3331+761075618+759173454+758772432+761014348+763288422+763542646+764165234
3318+769482149+776631809+778838020+778046986+777617973+775675315+774188356
3304+777098952+781282966+780224273+775202822+771919319+770349817+768628725
3291+767429143+767460244+767415147+765941375+766778812+771659311+773530374
3277+768957219+764016134+762097237+760465345+758758809+758126020+757905075
3264+758713028+759086183+757148253+756823305+760011513+762832102+763640428
3250+762785637+760151158+757926970+757501130+757587094+756323007+752969464
3237+749607834+749523238+753929316+758404937+756697655+750348422+745651856
3223+744975960+746427899+747451261+746379630+745740495+748975791+751449661
3210+748596105+744961840+744489471+745043699+744807266+746399659+750881438
3196+754368718+754617840+753441895+751496189+748137732+744377879+742319089
3183+744095292+748478292+751281029+751518955+750921186+751437594+754008003
3169+756346458+755354944+751996673+750847164+752795856+754719604+756576484
3156+758986161+759577026+757551079+755430334+755057677+755789431+757437745
3142+760178092+761846062+760456077+757121319+755174742+756832449+759954411
3129+761212153+760925211+760889569+761245805+761924438+762909731+762869984
3115+762011522+762060227+761568824+759488885+759063728+761122394+762583788
3102+763347826+765178083+767321905+768660262+768320261+766237771+764728543
3088+764416223+764311784+765482815+766574413+764778306+763300428+765555841
3075+769232093+770874995+768858316+764945009+763225598+765415450+769403338
3061+771734141+771439611+770092608+769127406+769208891+770115872+771067389
3047+771619812+771745898+771991226+773178679+773778936+771800636+769513872
3034+768918466+768770175+769432822+771970948+774380251+774469139+772945356
3020+771940655+772656548+774203284+775313543+774812064+772020648+769177292
3007+768063861+769161120+773163066+777366051+778307741+776798575+775747408
2993+776532035+778162372+780212952+782763146+784683721+785520910+784882148
2980+783812197+784495122+784783992+783683810+784892288+788030920+789097637
2966+788153646+788525122+789328658+787243867+785603764+787837656+788771134
2953+785041077+782611059+785269112+789528765+793405621+797013636+797547150
2939+794718288+792805550+792758400+792569677+793052682+795137224+796653917
2926+795693256+793865300+793966131+796055588+797299085+795249749+791839726
2912+790136425+789570254+789495797+790538442+792014454+792847723+792503617
2899+791720856+791953682+792923798+793765651+793941126+792871485+791673022
2885+791544076+791789279+792411122+794603462+796918963+796656032+795389146
2872+795479402+796294571+797399481+798837611+799384312+797471449+794532302
2858+793972725+795793216+797066446+796159031+794807300+795161421+795369490
2845+793776226+792829311+793740521+794804626+795478221+796540770+797794096
2831+798257818+797945186+798511855+800211237+800273875+798355725+797503857
2818+798066047+799005745+800334461+801246230+802288813+803540770+802751478
2804+801702800+803636189+806048790+805930418+805381726+806288830+806918137
2791+805617164+803728685+804044800+806355450+807915871+807979691+806846604
2777+804609851+803152064+804347603+807319594+810700693+813478922+813750935
2764+812349007+811569916+810832999+809718759+809233514+809633603+810515578
2750+810901049+810662314+811998432+814733119+815073742+812719861+810589661
2737+809931119+810572182+812587182+815422016+816479464+816049954+816870409
2723+817772164+817630217+817439690+816741152+815926045+816976465+819440383
2710+820427791+819082281+817716368+817714316+817706105+817333199+817806003
2696+818975665+820672560+822453366+823056671+823298765+823564744+822306318
2683+820884983+821628182+823173799+824125503+824772226+824073999+822462883
2669+822624548+823996619+824199338+823647101+823410295+823504221+823749487
2656+823562629+822689115+822090225+822832617+824505874+825526498+825192904
2642+824434589+824033754+824180304+825349593+826878851+827183085+826147345
2629+825041565+825134807+826195801+826740076+826908522+828167881+829615777
2615+829721087+829864589+830836571+831421838+831442489+831635940+832373479
2602+832952339+832766228+832285462+831438881+830628005+831315906+833328729
2588+834910610+835217394+834565446+833637317+833709908+834793295+834515062
2575+832748998+832357307+833315293+834055942+835853792+838462891+839045608
2561+837701528+836451748+836213760+836548909+836460581+836524712+837621598
2548+839472755+841281925+841840072+841433203+841266810+840981423+839912280
2534+838023801+836054832+835671911+837125778+838502577+838524721+837810072
2521+837468827+837878122+838784294+839767534+840248798+840370902+840543018
2507+839834216+838425072+838561670+840598440+842508753+843133767+843184773
2494+843457844+843549780+842832581+841557733+840590976+840595952+841413733
2480+842290918+843269120+844811627+845585369+844397605+842729573+842182996
2467+842393180+842303794+842566726+844287133+846200306+847001044+846854805
2453+846433691+847018461+847864979+847030715+846266303+847837361+849513791
2440+848779424+847422593+847327733+847349193+847044275+847336317+847848371
2426+847681046+846907428+847010063+849188283+851631177+851413404+848541560
2413+846214737+846983440+849519140+850733589+850001897+849287186+849749229
2399+850323050+849768823+848544173+848356693+849421420+849900879+849582152
2386+849862625+850541631+850252015+847841405+843565455+839474621+836999444
2372+835634091+833154747+829279011+828634216+831347754+830109046+823875074
2359+819670658+821544022+826625250+831640543+836627969+839473439+837764478
2345+833275110+830492589+831608384+834342449+835607282+836237584+837370111
2332+836599293+833862554+833044275+834783405+837442826+841309792+845341222
2318+847308139+848033238+849305847+850530932+851180330+852532558+854886688
2305+857418283+858593544+857141356+855439920+855943017+856921655+856819642
2291+857238827+859402679+861149771+860081499+858184249+858467770+860581672
2278+862357439+861722348+859223970+858079810+859164255+860344243+860615075
2264+860946492+861565099+862112671+862599408+862471706+861989136+861764459
2251+861462527+860811387+859839281+859569569+860225498+860686795+861747789
2237+863732309+864223090+862733082+861970226+863228591+864875847+864596121
2224+862580250+861763589+862542057+862846540+863210489+864564584+865999417
2210+866793188+866578775+866109641+866505500+867005113+866942786+866303278
2197+864644514+863351130+864232918+866354036+868406544+869770591+869556364
2183+868640365+868342910+868080539+868162398+869666214+871114919+871074363
2170+871058625+871187137+869613777+867864384+867962478+868188523+867814808
2156+868214710+869258163+870350321+871094268+871068205+870580410+870262180
2143+871248033+873599115+875443244+875276042+873120837+870713959+869585537
2129+869889149+871314715+872151219+870980747+869488563+869704034+870861194
2116+871479055+871883809+872818780+874034908+874452041+873557875+872608223
2102+872527671+872688341+872599764+872685479+873472968+873985955+872859399
2089+871876469+873468240+875769311+875546314+874078264+874612711+875938316
2075+875254831+874005175+874035406+874311649+874272150+874640516+875574803
2062+876663788+877457435+877362140+876187003+874791357+874348597+875178633
2048+876054698+875592655+874582978+874364148+874563757+874658181+875429621
2035+877259816+878909063+879479028+879139151+878362238+877934779+877645785
2021+876585102+875367605+875497236+876963917+878164184+878234224+878017758
2008+878248593+878066712+876825391+875238472+874984000+877491273+880724578
1994+881014070+878670142+877341613+878661869+880816576+881668382+881200057
1981+880716616+880603531+880807992+881624965+882528337+882684031+882178819
1967+881816923+882154871+883000706+883836961+883989731+883152107+881698302
1954+881402589+883643572+885563339+884421854+882772670+882799168+883131518
1940+883126044+883246780+883194094+883357315+884769382+886696924+887385386
1927+886550063+884731252+883525387+884432429+885144465+884491335+885419775
1913+887243750+887157163+886895725+888433629+889356968+888890882+888828181
1900+888439102+886664206+885399435+885723636+886661220+888155520+889348695
1886+889019269+889061753+890394450+891387829+892158896+893235566+893500612
1873+892343825+889433975+886328994+887167489+889739764+890159634+890191668
1859+891107979+891529652+891747549+892545674+893312697+893127208+892378659
1846+891317727+889611502+890120011+892519859+893087585+892392344+893408925
1832+894257621+892125929+890538574+891519015+892850779+894531687+895737303
1819+896333891+897188123+896851356+894893708+893318917+892909436+892826582
1805+893262002+893818718+893127768+892260225+893041990+894549788+894158221
1792+892123938+893599950+896923387+897569426+896171043+895195143+895323094
1778+896231318+895750987+892471217+889707419+892382204+896924693+899325475
1765+899325413+897350845+896354169+897636232+898638134+899502069+899227133
1751+894676557+888683933+887868453+890820850+893647162+894283746+893365694
1738+893828359+894021437+890168031+888353262+892523840+898431371+902752791
1724+903848370+902370679+898885141+892291388+886683613+888992646+894796049
1711+899559980+901420406+899789260+896820006+894769364+891377877+887302283
1697+887011236+889522179+892429852+892871430+891190149+889337250+884317354
1684+878741302+884189465+891461540+893287007+889898382+887461709+888613892
1670+886985235+885502443+888953769+891407299+890624165+889397649+888289629
1657+885890900+878992104+868241893+869099173+872317114+871800519+875226031
1643+880949939+883038836+881264064+874766787+867530790+870927440+877126391
1630+878296240+876516181+876334362+878635184+883990913+888997249+888529545
1616+885086368+887672701+893311329+897105268+900215225+903873749+906181538
1603+906564085+906816069+907915754+908550410+909054066+911798830+915949192
1589+918705526+919746304+920286536+920130780+919820885+920789197+920261219
1576+916451543+916601389+919314927+918348170+914908476+914360842+916598403
1562+918179911+911117149+896996102+903031771+914558647+919781200+920075233
1549+920548846+922777201+922990557+917541648+907546704+907361713+916119193
1535+920143843+920333064+923398608+927171834+926439519+922476699+919581218
1522+919131553+921648841+923533153+925510146+930301322+934497092+935972669
1508+932415162+923800127+926386647+933918295+938249170+937836578+935605174
1495+937931873+941742420+939367577+932666462+932791365+937072664+938553342
1481+937172313+935894293+934743665+932127536+927863841+926299501+930425479
1468+934625293+934517184+932250636+931911008+930175735+922974073+917639680
1454+920658198+925004313+928173487+928484874+928126648+931073198+935209067
1441+938887122+940857398+937668444+935179209+937322533+937104326+935405192
1427+938676628+944605494+947866044+946218041+938011181+931513781+934629585
1414+937889824+936415056+933481257+931650565+932030749+934258109+934413305
1400+930510635+924886252+919457372+915748588+916627825+918324346+915609751
1387+911703162+913157465+917621267+920288527+919894720+916595480+911974989
1373+911410684+915769177+919338689+919565543+917019455+913610115+912908903
1360+914914012+916684990+917680111+917920214+917023871+916081622+916308787
1346+916683684+916116082+914842728+913379778+912353182+912059958+912682111
1333+914818904+918201620+920200509+918397373+915116358+914241848+916004553
1319+918993898+922166804+924940306+928007156+931645215+935369737+938589979
1306+940339746+941470843+944263627+948133268+950240576+950893769+953149183
1292+957175761+959659024+959268888+959579840+963338261+968036631+970604863
1279+971289405+971089423+970835511+971263529+971897812+973071393+975575059
1265+977642122+977432934+976067830+975204889+975665750+978204125+980878040
1252+981310350+981891200+984347218+986338208+986020600+983528069+981391462
1238+982367674+984593106+985578649+987440380+990130219+990940225+991620662
1225+992985082+992453807+990983891+991393497+992856322+992428739+990823097
1211+990668460+991103818+991095919+991794332+994260676+998481141+1002553314
1198+1004874538+1005070415+1003107541+1000407253+998456695+998147111+1000027691
1184+1003749288+1007393879+1008142491+1006364919+1004867198+1005572952
1173+1007756460+1008919404+1008456802+1006743672+1005776978+1007355127
1161+1010012433+1011864399+1011367460+1011095945+1014286144+1017731436
1150+1018937923+1018906759+1018178861+1017869153+1018892017+1020093341
1138+1020156415+1019790289+1019574942+1017973156+1014598589+1013126682
1126+1016038834+1020440495+1021956006+1020596811+1020890595+1023155277
1115+1022881523+1020970277+1021627388+1023235892+1022360574+1020582007
1103+1017795443+1012963648+1012227229+1018607937+1026434737+1031961462
1092+1034572738+1033486676+1031410718+1032161195+1033940011+1032650048
1080+1032199326+1037436434+1042892497+1044793976+1047406123+1049408309
1069+1046477932+1044090088+1047729205+1051963976+1050970099+1047307221
1057+1044431707+1041258987+1039347431+1042818289+1045525855+1040151278
1045+1034223594+1037083308+1046563772+1053686872+1053697446+1048695464
1034+1045234621+1048833928+1055069641+1054986787+1050499970+1051585410
1022+1058247088+1060031440+1055825406+1053766118+1054162972+1051464487
1011+1048077541+1050259120+1054700654+1055478936+1053607003+1050511788
999+1045006088+1038428446+1034867891+1035230596+1037844112+1041887174
988+1044553002+1043940180+1041887547+1039634746+1037703533+1036829396
976+1037750372+1041141797+1044696691+1044336909+1041247977+1040043170
964+1041368340+1043678430+1047036390+1050379669+1049651149+1045206630
953+1043926371+1047588875+1051851887+1054398472+1054929436+1053954219
941+1051840442+1049562821+1050362626+1055143912+1060110686+1060487138
930+1054868477+1047988591+1048259796+1055470103+1057264283+1051945564
918+1049977341+1050544258+1049949599+1054010451+1062706288+1064486658
907+1056744391+1051221896+1053993407+1058871481+1056878625+1049985054
895+1048547422+1053763879+1059237856+1062868388+1065566873+1068827921
883+1073068539+1073741823+1067635119+1060342205+1056350772+1053714490
872+1054226668+1058121936+1055718168+1047271019+1044256917+1044482464
860+1040677390+1036814716+1034431351+1030058676+1025956646+1025330761
849+1025940411+1024706119+1023238443+1025219293+1029984157+1031036070
837+1026853673+1025529872+1027605457+1024234373+1015860187+1010214219
826+1008757179+1008560494+1007664399+1004568749+1000274450+996901748+993112287
812+989193568+988522213+991314437+996120231+1000920986+999500210+991346907
799+985252270+982973344+978932085+971199273+964652795+965853870+970264675
785+968143806+963600198+963032845+961985100+958799940+956664205+953139666
772+947574126+941713123+934555314+930379947+932792423+936812719+936404979
758+930429274+923312084+919583768+920097999+922173460+920921627+918800634
745+920752622+921763419+917852102+914726035+915377237+914868728+912437343
731+912901314+915277650+916825817+918345371+920209653+920098559+915476015
718+910613368+909662099+909746446+908378668+906494605+907490784+910776464
704+909877072+906071750+904019366+901364050+897654209+894779814+892603895
691+891599755+890429470+886715088+884401265+889086012+895516047+895746260
677+892396884+888742528+884678068+880685577+879043981+882053978+885377539
664+887789145+887515141+878748642+866149202+862735695+870826049+877879357
650+876976420+874406944+872393188+868672772+869286652+878957270+882973647
637+870029106+856954685+857854014+865662962+868237290+867222886+873969471
623+900408116+957957278+1009513566+975165142+919082413+887846309+864443475
609+857670826+867384364+872566050+879216034+894478628+910577104
##END=
