##TITLE=Sample description
##JCAMP-DX=4.24
##DATA TYPE=INFRARED SPECTRUM
##DATE=25/8/2023
##SAMPLING PROCEDURE=Instrument type and / or accessory
##ORIGIN=Default
##XUNITS=1/CM
##YUNITS=ABSORBANCE
##RESOLUTION=4
##FIRSTX=4397.6552
##LASTX=599.8556
##DELTAX=-1.9287962
##MAXY=1.8866519
##MINY=0.9471702
##XFACTOR=1
##YFACTOR=1.7570815e-009
##NPOINTS=1970
##FIRSTY=1.0127238
##XYDATA=(X++(Y..Y))
4398+576367012+575414671+575142544+575879681+576108183+576367487+577088748
4384+577054147+576226369+575921948+576688123+577063170+576587848+577423631
4371+579471602+579635312+577081624+573804979+572471620+574620070+577874665
4357+578299985+576577332+575971543+576319046+576754272+577397239+576822727
4344+575334478+574544219+574163608+574685065+577355514+580228074+580495316
4330+579903164+580182211+579847192+578803871+578003570+577580421+577596297
4317+578448498+579494873+579198865+578370341+578117618+577757564+577558439
4303+578669130+581196087+583404172+583080755+581221665+580920365+581888785
4290+581796584+580721511+579540736+578815065+579137533+579503489+578538596
4276+577469087+577666923+577639582+577142277+577929619+579561564+581655941
4263+584315332+585216992+583721619+582644851+583424458+584696621+584821727
4249+583981398+583504380+584042323+584795267+584713786+583873457+582564522
4236+581470995+581188556+580828367+580513498+581540333+583165494+584100398
4222+584717178+584505569+582867179+582403526+584022716+584378563+582683183
4209+581412445+581842515+583522155+584880617+585157017+584584609+583559131
4195+583368215+584070682+585383755+587778414+589039043+587449298+585622163
4182+586199253+587981543+588784082+589609349+590722144+589777130+587333758
4168+586337453+587332740+588250887+587688384+586544652+585756225+585404991
4155+586102709+587815458+589236133+589397130+588231823+587086395+586890187
4141+586876279+586964477+587311098+588035004+589467621+590324572+590375116
4128+590795688+590370163+588417244+587009730+587279007+588080800+588197426
4114+588444517+589183621+588770106+588044910+589222971+590931717+591177927
4101+590745686+590276198+589593338+589732623+591052345+592067036+591895049
4087+591287361+591571157+592489575+592314399+591145836+590556127+590784357
4074+591309953+591878427+591995731+591732017+592212632+593085458+592428311
4060+590387193+589130974+590028631+592210732+593852447+595031933+596004967
4047+595590365+594196082+593210768+592410739+591576652+591776388+593367761
4033+594976978+595527270+595368851+595027930+594808451+595113415+596121389
4020+597276179+597144492+595490091+593685616+592291807+591934670+593045972
4006+593931418+594093161+594738232+594932404+594149065+594292354+595028405
3993+594979556+595696407+597292462+597428288+596169152+595287302+595491040
3979+596129937+596442906+596596440+596610416+596688234+597555362+598478801
3966+598266853+597167152+595952387+595335404+596048116+597811002+599116137
3952+599571920+599784208+600120312+601200812+601802734+600636002+599909517
3939+600467272+600621755+599823761+598331238+597579311+599134455+601440102
3925+602478267+602658328+602401466+601104947+599825118+600071396+600890964
3912+600858127+600554860+600926243+600636477+598924271+597945267+597437311
3898+596962193+597636776+598888517+600336331+602490750+604786152+605646224
3885+604613961+603404216+602454996+603098778+604990026+605023813+602954268
3871+600301730+598729556+599683933+600288364+599770299+600722980+602162245
3858+602101116+599080858+593481877+595557732+602713757+606866824+607582793
3844+606474137+604836764+602850940+600792182+601349664+603609922+604740696
3831+605379321+606135794+605583467+603591740+600410010+597370416+598665985
3817+601740045+604569523+608372984+611271054+611023623+608596805+607973581
3804+607388824+603881167+603179853+605202721+606651213+609199066+611676971
3790+611797531+610467701+609736127+609828736+609264740+608196655+609179187
3777+612191576+614013690+613498746+611780842+610188111+609465086+610314099
3763+612062127+612210097+610330993+609558102+610620284+610827551+608411520
3750+607186171+608823340+608619262+607282782+609027825+610325565+608129692
3736+604813222+604264763+605790869+609365151+613802760+616158272+615839536
3723+614631623+614506788+616233512+617777937+617277580+614277947+611015753
3709+611630226+614748995+617900940+620075510+621783781+623470205+624278172
3696+624673030+624652202+622550566+619200580+619719052+623371355+625497687
3682+624310059+621006073+617613481+613686541+611688165+613318346+613517607
3669+612660724+614845538+617438712+617586614+616176658+613892451+609845629
3655+607557080+608257784+605924389+597824775+593877210+597015654+601008539
3642+602427315+601527079+599821997+597413634+595356639+594445209+590846164
3628+585037135+585178253+587312183+586730141+583004904+579290048+579048723
3615+579996722+580151680+578577336+574914314+572696662+572634516+571224832
3601+568067221+565578291+564617130+564541212+565809100+567694650+566342362
3588+560961842+558442247+559674449+560794265+561183560+560513590+558411649
3574+556619386+556226529+554839335+550555123+546897325+547454333+549347549
3561+550181738+550522999+550602106+549298497+547713603+547730327+548683380
3547+548834742+546717671+543673294+542542588+543346145+544350659+544996239
3534+545802917+546551858+546651997+546435843+546515561+546218162+544811904
3520+543386072+543278877+543707963+542965942+541174730+539522737+539058779
3507+539678442+539966614+540288369+541901588+543948915+545105096+544787887
3493+543626413+542726550+541933781+540709754+539589056+539283380+540405503
3480+542412869+542673733+540771392+539809077+541765084+544497781+544722586
3466+543234201+542354013+542362188+543346688+544909601+545880124+545792367
3453+545633406+546531606+547919411+548588838+548162059+547182139+546373833
3439+546319353+547547009+548976098+548793730+548194692+549163994+550684877
3426+551188287+550643458+549474657+548494805+549211520+551932921+554464661
3412+555413643+556095825+557315374+558293021+558474270+558449370+558650294
3399+558785305+559773435+562015578+563817712+565361357+567952190+570444953
3385+572231517+574585808+577100349+578132544+578276036+579423703+581664490
3372+584246130+587552898+591529093+595093400+598044321+600680305+603448112
3358+607261750+612046116+616479790+619315645+621597003+625656309+630622770
3345+633708295+635430881+638111236+640951501+643504646+648009151+653073377
3331+655647554+656421870+657620217+660267328+663091582+664956032+666539874
3318+668345978+670436623+672115924+672138855+671511560+672878299+675244666
3304+675668359+676059146+677777119+677141139+673862595+671102319+670179422
3291+670190345+668693209+665969908+663962102+662763076+661628096+659645867
3277+657212061+654499277+651240543+649368495+650080732+651565521+651391295
3264+649758536+648615279+648565209+649286470+649676986+648007726+644812970
3250+642969349+643205314+643032784+642024471+642924300+645840416+647407026
3237+645919795+643770124+643405186+643445621+642850417+643493723+644687186
3223+643694002+641468074+640752647+641123353+640239196+638244484+637418877
3210+637746569+637762173+638505212+640415050+641474587+641127152+640257107
3196+639037864+637489368+637343366+639418135+641127559+640978097+639930433
3183+639170094+638952040+638651690+639099535+640927484+643164743+644751299
3169+644731217+644071967+644718937+645991778+645955006+645224993+645528329
3156+646192735+646577620+647286126+647859281+647866880+647585391+647489187
3142+648304616+649805077+650634822+650673698+651367346+652428307+652619697
3129+652916248+654085965+655062255+655641177+656378721+656807637+656082034
3115+654463319+654294385+656692775+658911105+659191034+659163489+660049545
3102+661350745+662426497+662726914+661873559+660830645+660627517+661146125
3088+661765414+661742822+661106028+660548071+660654519+661114373+660786139
3075+660338904+661324082+662189514+661519883+661311599+662275541+663363640
3061+664173100+664542923+665499538+667305574+668301743+667845078+667196615
3047+668026292+669529738+669568681+668644835+668381189+668877137+669415826
3034+669744061+669957976+669681304+669339908+670073788+670977823+670893152
3020+670894102+671728189+672940377+674351554+675324452+674840649+673698749
3007+673635110+674951236+676588745+677515305+678131745+679147521+680155224
2993+680835167+681178530+681158381+681745987+683766480+685851359+686818693
2980+687670081+688573777+688326007+687786775+688853502+690604651+691505973
2966+692074989+692065762+690823316+689710046+689728296+690284015+691169258
2953+692263530+693367844+694864371+695908574+695559579+695109291+695465681
2939+695959797+696073641+695913798+696299090+697206043+697374231+697431017
2926+698546797+699384480+698960041+698175481+697211267+695915765+695517379
2912+696348956+696622507+695468938+694461235+695143010+696477930+696877808
2899+696775091+696806707+697018451+697682926+699007600+701109304+702958014
2885+703031762+701896307+700613289+700099770+701414336+703174440+704019857
2872+704671305+705012973+705124850+705516044+705572356+705759540+706922744
2858+707977870+708223944+708035945+707508043+706829253+705753638+704626799
2845+705116844+707068339+708659034+709253764+708935706+708436570+709027908
2831+710146876+711125541+712726888+714202247+714335969+713884053+713786967
2818+713778012+713559347+713220054+712799414+713169781+714845350+716473767
2804+717237567+717924226+719086344+720550780+721755301+722383275+723067017
2791+724065221+724707511+724303561+722862804+721847367+721997440+722580840
2777+723477208+724075737+723603061+723132148+724171670+726866476+729350148
2764+729639032+728827876+728870551+729371451+729626820+729928188+730335190
2750+730798165+731335905+731648535+731919847+732883586+734243337+735151375
2737+735161077+734300530+734145572+735734639+737482260+738111115+738348370
2723+739319979+740731563+740973566+740157661+740108067+740793980+740709310
2710+739431448+738347080+739172958+740943579+741911524+742539159+742868886
2696+742957627+743958952+745235525+745649922+745499170+745277724+745618578
2683+746596496+746990473+746452461+746396625+747326916+748306192+749102353
2669+749855230+749864728+748773034+748043631+748913134+750205175+750914291
2656+751426793+751752517+751945536+752243715+752272617+751988753+752327775
2642+753388261+754118206+754675146+755568191+755963049+755688548+755614122
2629+755861756+756213465+756174183+755486505+755972412+758177986+759469349
2615+759516502+760344076+761484958+761543847+760888057+760498830+761256388
2602+762941591+763958114+763786737+763154286+762861263+763512847+764562274
2588+765117721+765258568+765311216+765530626+766415190+767712930+768167967
2575+767319429+766179497+766119386+767228924+768183639+768105414+767587960
2561+767908324+769068543+769884786+770033231+769959891+770090289+770328561
2548+770647704+771742113+772576810+771508726+770126925+770599534+772289486
2534+773457575+774115672+775212116+776156315+776267581+776058211+775828556
2521+775874284+776681979+778034809+779506029+780502402+780187397+779437913
2507+779553589+779944851+779956385+779444901+778663529+778639851+779841930
2494+781749597+783176650+783215051+782654243+782892447+783594101+783578022
2480+783074272+782611094+782108294+781978439+782552272+783478222+784414144
2467+785017762+785310852+785790110+786553706+787271710+787175438+786558930
2453+787036898+788133953+788191282+787689161+788260959+790033818+791144713
2440+790960310+790984870+791005766+790062923+789962309+791401913+792059264
2426+791359714+790568640+790748769+792088641+792891180+792866213+793762853
2413+794671095+793828527+792719125+792706845+792828152+793149127+794464846
2399+795579948+795407757+795054827+795747321+796932032+797324515+797033731
2386+796880198+796523265+795464204+794319319+793611559+792699382+790560024
2372+786608525+781294018+777062861+776055769+775603107+772558221+770436367
2359+772913593+778213785+782176546+783773280+787071024+791619492+791945420
2345+787584136+784814498+785540304+785920576+785332020+785068985+785514320
2332+787412760+790547405+792784867+792547138+791104820+791290444+793816451
2318+797128375+799878610+801288023+801644753+802634408+804875806+806943316
2305+807701688+807809833+808269280+808771401+809230305+810478111+811973891
2291+812456744+812398262+812756077+812874330+812207414+811996076+812398804
2278+812026335+811529913+812065482+812712045+813398094+815247076+817157185
2264+816962945+815074953+813980137+814960227+816702081+817625316+817500549
2251+817115257+818139582+820216047+821177276+821388003+821742968+821726210
2237+821713591+821724718+820838865+819693301+819596351+820549234+821723429
2224+822440958+822880662+823204961+823346283+823890536+824688733+824839077
2210+824627876+824945933+825291061+824960520+825180677+826856789+828952930
2197+830186896+830237508+829415633+828065245+827462238+828418447+828994790
2183+827715368+826508133+827401789+829170645+829701600+829545353+830417298
2170+832152299+833065290+832409161+831143647+830480258+831054431+832915624
2156+834824241+835361574+835094875+834612768+833489390+832728779+833269979
2143+834309636+835205530+835582138+835061902+834328362+834467919+835284977
2129+835913154+836653072+837932427+838962043+839048206+838486653+837739543
2116+837114012+837005595+837507242+838859936+840534759+840498327+839148481
2102+838904918+839683440+839766414+838615626+837828284+838627024+839655420
2089+840251778+841520480+843412814+844709401+844673715+843829654+843188790
2075+842895699+842679545+842578456+842556203+842481845+842148725+841483844
2062+841283090+842190043+843434050+844034750+844127359+844330147+844899300
2048+845944588+847504753+848800662+848278730+846084485+844776771+845420282
2035+846731184+847788753+848381515+848317333+847755305+847666699+848301254
2021+848240194+847248435+846815244+847836787+849930010+851495264+851539499
2008+851327754+851698120+852062313+852540620+852946876+852558463+852207094
1994+852754468+853548526+853896707+854056279+854627059+855570241+856383907
1981+856653455+856422646+856589817+857210599+857589921+858072028+858406707
1967+858178205+858171353+858325565+858560105+859327840+859755603+859407354
1954+859497791+860268443+860636910+860270004+859517941+858522790+858036884
1940+859107682+861186726+862890316+863280153+862733933+862679114+863540135
1927+864129573+863524938+862630401+862185609+861139642+860208875+861333611
1913+863410551+864700693+865258176+865675830+865813284+865515851+865919326
1900+868191321+870461552+870070290+868236167+867251938+866923297+867039380
1886+867578409+868046336+868711964+869525291+870093900+870612236+870805120
1873+870300624+868930154+867240812+867371888+868949218+870258356+871354190
1859+872321185+872991562+873543617+874004964+874351991+874683550+874747731
1846+873478079+871653047+872583813+874861304+875604614+875475370+875789153
1832+874932609+872256800+871737853+873911745+875602172+876940755+878042898
1819+877993371+877573139+877565201+876749839+875250328+875668660+877431275
1805+878251114+878335649+878600381+878931872+878562795+877889772+877200737
1792+876546236+877946761+880791776+882804196+883293427+882067467+880238907
1778+880216925+881182224+879959589+876788375+877807204+882113669+884253502
1765+884281454+883088602+882156547+883158144+884050035+883794191+881625253
1751+876122883+871944170+874507560+879157931+881096129+880838046+881045245
1738+882098879+881179103+877936720+878575889+881782314+883618201+884421215
1724+885058416+885875202+885133452+879794861+873566074+875517569+880951348
1711+884048678+884049085+882193251+880704731+880302206+877766429+873853398
1697+873108391+874545757+879035742+883947114+885631910+883897451+877408954
1684+868480341+870781645+877817042+881010101+878864705+874909067+873126438
1670+872989188+875758826+879467033+879811076+876987704+875654074+876632942
1657+877009211+873151202+863630030+862713376+865936558+865843679+865601607
1643+867449096+868705994+868355370+865631663+862045305+862950223+865143314
1630+865312452+865671691+868227754+870280067+872090037+874851195+875572863
1616+875949471+880684988+885639984+888050451+889210465+890597150+892530802
1603+895250371+898281146+900614269+902283122+903494495+904232650+905088583
1589+906042213+906914497+908879222+911919562+914352554+915738425+915391329
1576+913232907+913039073+912212924+907940382+906913683+911224625+914882627
1562+914851893+907936718+898819225+904957167+913871329+918920833+920220405
1549+921006864+922076917+919326750+911425854+903878566+907624088+916198889
1535+919382586+919817608+924096867+928698323+927871970+923936889+921339034
1522+920834470+923667612+926738008+929829639+934606813+937042789+934106998
1508+926473141+921913614+928624236+935558272+938036652+936203818+933962963
1495+935341575+936808113+934367048+931771025+935934201+941488879+943229241
1481+942997414+942343456+939681894+934991698+929567418+928611142+933677336
1468+937266203+935924092+932813329+932098513+931134299+925537422+921664283
1454+927676983+934890948+938363936+938358712+938325197+940215699+942734854
1441+944887306+945674105+943632105+943607273+948028464+951152254+952026098
1427+953218136+952770223+950517292+949225251+947517998+946132738+947602872
1414+948507925+946931952+944342917+941482163+937049506+933035793+932499613
1400+932309376+929118148+924189951+921018330+920840983+920017887+915870587
1387+912265368+914857999+919446971+920549046+920095570+919789656+918296115
1373+917787820+919058083+919960694+921349007+921690200+918529231+915842974
1360+917064185+919542022+920589685+920399244+920315659+919913609+919647046
1346+920898245+922970979+923075189+920096248+918458265+920437916+921519162
1333+920268982+919999501+921631853+923054835+924067151+925474054+927555405
1319+930559177+933845388+936391409+938321465+940727794+943072587+944852298
1306+948118223+953198122+957673114+959897414+960682178+962199871+964590867
1292+966735585+969393958+973093277+976053085+977376403+977983413+978076157
1279+978054107+979076736+981642161+984930339+986309426+984307454+980669941
1265+977628041+977119135+979876561+983654581+985839124+986807748+988009894
1252+989707378+991156141+991307368+991127171+992185147+993300452+993698906
1238+994354221+994716853+993914178+993368772+994914553+997744710+999025489
1225+998148117+997377872+997817643+999344293+1001423201+1002405055+1001842076
1211+1001253860+1002672161+1005955997+1007209299+1005188873+1004633832
1200+1007236844+1008799247+1008147189+1007955526+1008371484+1008845857
1188+1010075888+1010502158+1008465314+1006793001+1008104107+1010258595
1177+1010992882+1011792843+1014218100+1017701943+1020372935+1019911928
1165+1018534131+1019140937+1019006807+1018166818+1019269436+1020685972
1153+1021478945+1023103292+1025253098+1026465353+1025373455+1022158685
1142+1021122488+1024624785+1028956760+1030531104+1028477977+1025301268
1130+1024465688+1025844368+1028170232+1030763948+1032842992+1033058061
1119+1031732436+1031702042+1032476561+1032429816+1032432801+1031133025
1107+1029246119+1031729248+1035361943+1032422963+1026884297+1026042950
1096+1029176103+1033106299+1036172149+1037052439+1036052267+1035447292
1084+1035891881+1036433759+1037815560+1041635915+1046522862+1048733525
1072+1048845944+1050325102+1052348242+1053177715+1053873331+1054044775
1061+1052196540+1050544378+1052368256+1057295842+1061989770+1062805336
1049+1060472144+1058659799+1058286109+1059816761+1062007139+1061838205
1038+1061706517+1063340498+1062909749+1060641282+1060823785+1063563436
1026+1065620159+1065840181+1065294774+1065993443+1068033069+1067001010
1015+1063220548+1062804793+1065103791+1064516049+1061507867+1061470077
1003+1064048325+1063647904+1060533951+1058333872+1056780763+1056093628
991+1057548565+1058426887+1056823641+1056097224+1057483705+1056796503
980+1052109699+1047802487+1046747836+1047566115+1049261563+1050313840
968+1050409027+1051600929+1054146407+1056964352+1058259921+1057499445
957+1056227758+1055234099+1056608301+1061459358+1065272318+1065024819
945+1063143815+1061109549+1059848445+1059954554+1060459729+1063451967
934+1069605039+1073741823+1072157437+1067671047+1066872647+1070615726
922+1072124804+1070222632+1069002507+1067201356+1065140766+1066306683
910+1068192572+1068640893+1068953319+1068558189+1068255261+1069484478
899+1069633601+1067036086+1067346273+1071666986+1072561319+1070997762
887+1068690284+1062576902+1058844134+1060496772+1060184685+1055605008
876+1051164685+1049533554+1048840788+1045890003+1043174166+1045062701
864+1048374489+1049476225+1050974312+1051607849+1047509872+1041631641
853+1035583729+1026816248+1019880312+1019950328+1021424466+1018796759
841+1015777383+1016080582+1017350438+1014944042+1008685336+1003870576
829+1002617749+1001680062+1000711981+999510920+994072596+986982313+984770564
816+986325641+988146873+990410388+989832077+983545486+977630076+975529932
802+974213602+972645296+970206402+965894985+960579121+956274488+955107417
789+956350678+955551667+949829615+943528573+942040324+943531965+944319782
775+943393222+939868332+934986067+932178638+930773974+927040054+922236963
762+919750035+918861468+917943592+917327627+917083588+914155328+908278657
748+905156971+905429572+905965344+907605227+909012809+906693865+901676384
735+898449469+898987209+899577461+898640114+898460121+896896089+893002461
721+891670663+893749164+894106911+892503122+892665678+891960225+888343066
708+886276845+887206390+889016428+889102117+884121476+875406914+868947454
694+867802569+868991350+868118591+867004100+870283459+874649153+874170370
681+870013164+865301800+863676708+867347464+869495574+861594679+847314041
667+845270141+858530592+868432375+867381590+857516919+849550349+849847579
654+853872079+854736425+852131582+852537771+854970830+852652429+848106878
640+847671788+849068378+852437021+871178267+888786569+870374643+845725110
627+841976195+839225621+825333600+820246646+832318927+839877748+833565308
613+825313179+818762738+821016008+839075073+855702743+850137277+839076294
600+838080600
##END=
