##TITLE=Sample description
##JCAMP-DX=4.24
##DATA TYPE=INFRARED SPECTRUM
##DATE=25/8/2023
##SAMPLING PROCEDURE=Instrument type and / or accessory
##ORIGIN=Default
##XUNITS=1/CM
##YUNITS=ABSORBANCE
##RESOLUTION=4
##FIRSTX=4397.6552
##LASTX=599.8556
##DELTAX=-1.9287962
##MAXY=1.8032665
##MINY=0.30555281
##XFACTOR=1
##YFACTOR=1.6794228e-009
##NPOINTS=1970
##FIRSTY=0.45254096
##XYDATA=(X++(Y..Y))
4398+269462197+268640559+267913860+267716068+267478277+267251631+267487753
4384+267859097+267593606+266904652+266909674+267341707+267257930+266946921
4371+266994568+267550626+267995454+267613516+267094671+267153817+267290210
4357+267199583+266952139+266422966+265915318+265791347+265795944+265715308
4344+265725032+265993594+266239352+265855019+265136802+265211156+265936985
4330+266114068+265627982+265345827+265438388+265098560+264267091+263888330
4317+264156661+264549299+264693269+264588925+264446304+264269256+264118880
4303+264013614+263941425+264121862+264293142+264162854+264132953+264377522
4290+264423394+263919935+263248389+263054501+263489995+264025184+263947476
4276+263276587+262620338+262567757+263209810+263552974+262911525+262151464
4263+262007299+262060128+261784006+261556970+261970282+262531698+262497787
4249+261819054+260923914+260595887+260925742+261051469+260631325+260209530
4236+260272012+260562383+260255846+259409027+259385355+260359942+260979812
4222+260770397+260138619+259644103+259701546+260086074+260420330+260456176
4209+260113722+259643961+259356039+259341399+259501198+259728572+259869703
4195+259715919+259184688+258570141+258477065+258999939+259486469+259506735
4182+259166374+258845943+259096297+259631468+259635745+259271091+258865960
4168+258447803+258176722+257734200+257114542+256989720+257269142+257550321
4155+257857461+257792388+257096016+256431373+256204656+256082868+255917497
4141+255874819+255851430+255626683+255354696+255423159+256021681+256758389
4128+256856433+256176565+255434711+255141341+255101041+254887952+254523529
4114+254498827+254807068+254845203+254490948+254301408+254619337+254917800
4101+254529332+253780735+253507719+253761356+254004471+254094388+254115682
4087+254040246+253893756+253751809+253624165+253400660+253241731+253360307
4074+253468750+253369960+253051817+252417715+251696961+251311403+251309486
4060+251394576+251462684+251406803+251151586+251218487+251680972+251880272
4047+251760277+251710500+251671460+251243739+250538228+250261663+250576363
4033+250839565+250705498+250373868+249973883+249679378+249675757+249855662
4020+250010279+249967175+249825885+249724043+249504797+249117020+248725624
4006+248522757+248566198+248740158+248924250+248952164+248730326+248589462
3993+248809010+249037538+248899264+248466166+247991631+247646214+247541302
3979+247666462+247708820+247682308+247796182+247804966+247624369+247352613
3966+246997933+246726638+246711572+246880492+247029697+246871868+246180944
3952+245328163+244850896+244989116+245440900+245402694+245083150+245240766
3939+245439658+245061606+244011051+242922289+243123843+244122812+244076709
3925+243185988+242932315+243048140+242717647+242690603+243682474+244815830
3912+245401310+245233916+243620417+240394449+237494326+236939564+238092476
3898+240115542+241673408+241506937+240636126+241160526+241782082+240964810
3885+239896970+239352412+239463943+240641716+241071958+239845792+237675668
3871+235801114+236245073+237451080+236933051+237068343+238984404+239600158
3858+237676236+233628027+230376824+233555731+237979774+239986976+239743400
3844+237782585+235087458+232694538+232103291+233862091+235746262+237195526
3831+238667574+239394983+239014926+237605573+234967498+233266531+234449416
3817+235928208+237912057+240304071+241141627+239823361+237513207+236141102
3804+234914297+233965583+234973460+236373036+238109565+240112951+241088195
3790+241100209+240449816+239397592+238907991+238890210+238493206+238798253
3777+240122641+240462912+239137992+237439510+237119149+237746845+238271919
3763+238355341+237394489+235998747+235426842+234556546+231688347+228152009
3750+228682264+230910984+231704105+232969630+234780318+234865319+232340443
3736+228838496+229416079+233579084+236409929+236974451+236485703+236270609
3723+236818823+238191762+240030683+241133961+240522945+238703811+240041827
3709+247479352+257164940+266817201+277411433+290770319+304264657+315008360
3696+323258136+328549405+329986583+328921423+328840894+329446124+328504934
3682+325256004+319359327+311171625+301997092+296221831+293559356+289679144
3669+286888173+286201597+284424218+280929582+276383308+271322394+266518685
3655+263339672+260242484+254090040+247186178+247234499+250286099+251444565
3642+250707237+248842283+246503736+244097099+241286857+237581971+232839644
3628+230151988+231010341+231239632+229336153+225925986+223396798+222597129
3615+221635284+220602811+219875881+218895864+218557491+218610249+217337589
3601+215152524+213546230+212518601+211772347+211370374+210383365+207704475
3588+204892671+204955012+206177149+206299523+205445624+204483352+203642922
3574+202796884+201482895+198619416+194277304+191886834+193042851+194420866
3561+194754714+194739612+194566575+193848376+192908020+192430824+191721338
3547+190259121+189384530+189881176+190393082+189838249+188903838+188684787
3534+188745796+187910263+186344855+185429024+185446965+185509979+185527192
3520+185793607+186046410+186154765+185985490+185208517+184248606+183785979
3507+183504996+182887290+182420652+182739576+183447997+183946594+184033512
3493+183839482+183543699+183156348+182737074+182398506+182091543+181939179
3480+182245663+182734465+182958237+183022635+183069342+183023132+183012556
3466+183031153+182734412+182235885+181982283+182047161+182349475+182846617
3453+183346741+183436622+183088809+182967677+183257338+183531898+183857316
3439+184246743+184393783+184455963+184691092+185039899+185319569+185391421
3426+185448757+185697390+186116860+186691391+187349255+188138968+189134424
3412+189988217+190504933+191067059+191762916+192417834+193274129+194399394
3399+195475805+196438786+197643054+199319372+201010330+202454412+203968748
3385+205493785+207098233+209227543+211738825+214167218+216499413+219165295
3372+222228128+225223155+228111336+231103843+234336430+238037766+241836668
3358+245475646+249616381+254223735+258530657+262736074+267329161+272051880
3345+276639483+281114296+285542810+289908878+293927168+297483346+300918481
3331+304401476+307505816+309914813+311801877+313545344+315694191+318142868
3318+319846940+320499764+321173421+322241314+323196772+324392575+325732117
3304+326337951+326247662+325778788+324757566+323006362+320592964+317675130
3291+314416333+310916657+307416520+304224126+301098315+297693666+294334589
3277+291656995+289623831+287642538+285573723+283564587+281669732+279923745
3264+278522608+277608037+276675418+275229012+273546873+272261756+271531437
3250+271012752+270574720+270031599+269073445+267941295+266931199+265945787
3237+264993879+264083975+263092015+262107118+261353197+260882336+260208927
3223+258979993+257825270+257242736+256883619+256333631+255563207+254858015
3210+254421084+254123668+253829003+253568657+253237667+252667519+252021776
3196+251569423+251271510+250955196+250588572+250221043+249856443+249482135
3183+249069373+248532552+247990389+247670774+247632461+247999493+248583571
3169+248853286+248736076+248494577+248334068+248204330+247763122+247122506
3156+247018766+247492945+247617785+247187207+246919781+247066271+247305570
3142+247385922+247253398+246978253+246839110+247097414+247445760+247362640
3129+246886952+246375365+246142827+246328303+246588613+246559954+246292599
3115+245924201+245772281+246096422+246518287+246486825+246013869+245578216
3102+245455647+245520010+245591809+245502407+245247456+245034083+244847204
3088+244547908+244248291+244074686+243935437+243752285+243539285+243413930
3075+243407559+243117508+242445128+241828505+241278729+240705370+240469087
3061+240687979+240845152+240503336+239950597+239539202+239098721+238528449
3047+238111730+237955178+237822690+237641348+237575583+237598971+237333551
3034+236667861+236061779+235663497+235243832+234950604+234911244+234907837
3020+234894741+234938945+234865993+234553245+234240391+234239308+234442779
3007+234476229+234367041+234448990+234678085+234850839+235152709+235692955
2993+236146265+236425244+236779782+237220352+237708550+238355838+239104754
2980+239628231+239700225+239646686+239728955+239592119+239100123+238624311
2966+238432942+238364480+238011308+237350037+236823099+236713237+236859549
2953+236916636+236812594+236787537+236872006+236813659+236518905+236187843
2939+236048896+235925191+235551700+235144954+234863527+234549253+234187083
2926+233884166+233647884+233334852+232762291+231866707+230854145+230136851
2912+229944223+230199635+230594190+230789799+230765062+230665545+230570535
2899+230571369+230655891+230695340+230605316+230374890+230174968+230200096
2885+230351927+230494424+230593658+230513714+230306286+230267245+230331271
2872+230107003+229570483+229140508+229029989+229008144+228956025+228969955
2858+228896187+228618646+228302828+227818658+226936029+226074374+225798378
2845+225993029+226366271+226901034+227401832+227578880+227513115+227517090
2831+227683987+227873563+228108816+228416737+228588603+228542056+228488092
2818+228689682+229082711+229333385+229383072+229407259+229388325+229300307
2804+229317946+229463264+229639780+229906194+230187532+230209537+229974124
2791+229803145+229828930+229923567+230020564+230162476+230341617+230458844
2777+230559994+230677825+230619566+230420904+230278869+230164445+230078646
2764+230145830+230374571+230619744+230729021+230750156+230836861+230954248
2750+231004290+231043348+231137027+231249197+231380585+231559318+231673990
2737+231666519+231621038+231572273+231639653+231927575+232246764+232423120
2723+232508565+232559583+232662845+232914885+233205451+233448264+233627459
2710+233575074+233382925+233395595+233602544+233830805+234062225+234275012
2696+234426240+234505616+234548170+234534719+234445033+234437260+234519298
2683+234508243+234476212+234574167+234679150+234642062+234566714+234547212
2669+234496140+234457082+234522244+234549040+234551151+234718545+234878859
2656+234815773+234673099+234645788+234745643+234821097+234795827+234759183
2642+234794975+234910978+234979068+234864662+234637342+234504693+234639737
2629+234972768+235185130+235162273+235135549+235248357+235451473+235658706
2615+235805941+235927995+236076685+236195811+236237407+236342141+236613950
2602+236909645+237075779+237041033+236912661+236950974+237109921+237186138
2588+237253554+237373816+237422350+237346079+237211905+237138527+237179910
2575+237231691+237207486+237185819+237220263+237192882+237036650+236826808
2561+236637339+236517574+236466697+236446166+236446148+236488737+236602451
2548+236709155+236637108+236458428+236453903+236585309+236608591+236550740
2534+236599842+236783154+236933708+236981000+237047670+237183086+237281663
2521+237284893+237262320+237251691+237270110+237397293+237602911+237729259
2507+237831137+238116202+238467422+238646280+238678452+238672579+238678896
2494+238763259+239021226+239336032+239502255+239596573+239659889+239584240
2480+239436100+239368134+239424157+239531464+239619749+239736426+239915106
2467+240018811+239946498+239848028+239863715+239897343+239883980+239914236
2453+239953472+239883519+239750143+239700598+239781571+239887104+239969443
2440+240071817+240162550+240189293+240157599+240161894+240284800+240413686
2426+240469957+240629064+240876455+240947348+240953914+241139089+241345293
2413+241411164+241476184+241671829+241874111+241961117+242051655+242244035
2399+242435208+242505640+242555506+242767725+243053659+243203219+243169769
2386+242944595+242462572+241614564+240257241+238367869+236140871+233843067
2372+231615785+229512402+227578205+225812059+224310731+223291496+222969733
2359+223468543+224882812+227288012+230499695+233661761+235251232+234510425
2345+232463562+231095130+230932296+231323675+231999817+232745610+233189480
2332+233508634+234373979+235710381+236750910+237361340+238071607+239196588
2318+240591443+241846641+242721675+243456998+244380514+245435399+246363493
2305+247112356+247750505+248242075+248574804+248907711+249396300+249951382
2291+250415393+250775504+251046461+251249488+251419562+251594231+251830993
2278+252043478+252088446+252044667+252081206+252223525+252382809+252542697
2264+252786344+253048499+253204234+253340999+253536289+253758854+253982768
2251+254114831+254153747+254224835+254343287+254461544+254593446+254748472
2237+254879115+254989705+255134917+255313402+255501558+255702651+255914409
2224+256075166+256146273+256189625+256257644+256311236+256372600+256495453
2210+256543863+256551316+256760980+257056905+257175960+257162438+257205630
2197+257330772+257475133+257679952+257945390+258171948+258313096+258418842
2183+258516603+258602509+258720570+258856182+258958804+259027125+259115445
2170+259289014+259430677+259478111+259655123+259944695+260122542+260297815
2156+260538249+260683532+260766156+260909185+261119062+261298221+261345229
2143+261342496+261436353+261610100+261798274+262032515+262302674+262508505
2129+262643531+262819656+263046533+263154905+263082592+263019489+263156751
2116+263444442+263673271+263829716+264084578+264395640+264594888+264734332
2102+264963091+265271189+265607752+266045677+266595595+267194774+267951711
2089+268927381+269901347+270735939+271569342+272403206+273025065+273423879
2075+273707684+273940062+274246883+274589532+274854491+275239606+275864073
2062+276435125+276802689+277042183+277148834+277290231+277627450+277960180
2048+278136518+278261908+278422416+278649542+279014533+279465945+279856117
2035+280176123+280430080+280524486+280445376+280390525+280504061+280595841
2021+280510024+280392832+280486990+280852549+281216014+281422856+281616176
2008+281833151+282059053+282361118+282661071+282836557+283029753+283317089
1994+283481378+283666393+284206161+284968830+285825036+286697302+287440220
1981+288093595+288813870+289705940+290730356+291816261+292741888+293409991
1967+294395066+296066149+297940561+299658971+301206385+302484954+303502520
1954+304466531+305377127+306005960+306281513+306163611+305704001+305654420
1940+306328681+306859806+306948675+306851146+306707087+306642955+306602282
1927+306232748+305343872+304670037+304653002+304722387+305158218+305958366
1913+306114101+305596924+305327369+305763165+306372903+306807811+307178623
1900+307349158+307166378+306958045+307080383+307087091+306900904+307317003
1886+308066363+308516390+308808483+309063699+309264189+309379642+309269158
1873+308464609+306723129+305483175+306580668+308533746+309595818+309952753
1859+310216842+310574380+310884360+311048932+311014754+310564301+309543646
1846+308414886+308773417+310660730+311836658+311984231+311982704+311715811
1832+310408459+308868250+308841454+309608631+310520221+311790094+312617677
1819+312759819+312777351+312681809+312077040+311561070+312056562+312980787
1805+313243918+312587864+311847625+312040200+312547369+312137588+311018871
1792+311439512+313980395+315768829+316087149+315922293+315745192+315859438
1778+316239087+315750161+313904834+312516136+314009781+316859756+319032382
1765+319619228+319173495+319281672+319605245+319714451+319932580+319069613
1751+316824975+315651105+316934855+318581538+319376292+319690850+320171293
1738+320146272+318509278+317214171+319184852+322020489+324415964+325681684
1724+325705499+325009943+322914369+319373701+318505623+322098498+325393496
1711+326716003+326071377+324226654+322975839+322302750+320816238+319483084
1697+320333594+324026555+327544011+328126954+326979205+324932644+321743338
1684+320989222+324734674+327494075+328244678+327891150+327649136+327129439
1670+326798484+329383766+332202757+332678409+332955595+334770329+335935432
1657+334570656+330738463+329750248+333377408+333372616+332977138+337530085
1643+342113270+343649469+342726557+340550737+341843466+347844948+351955320
1630+354033469+355985908+357866229+359855614+363341058+366165160+366985183
1616+369293208+373752103+376580996+377745425+378651372+379893278+381000531
1603+381927453+382989348+383774306+383912509+384040738+384803549+385851603
1589+386819979+387598300+388181384+388849434+389431098+388914454+387268729
1576+387991400+391180209+392235467+392520177+395011513+397813540+399126925
1562+398243834+394564077+394513644+401923415+407781690+412390287+416369661
1549+420050412+422092679+421396272+418964064+419048817+429699710+440072318
1535+445049774+450577662+458354696+464181313+468423818+473005442+477235667
1522+483355441+492647698+501467391+511115269+520651528+527083766+529924016
1508+532000284+544341266+560997439+570984223+578660071+586962089+597813969
1495+609233956+617181489+623247636+632028501+644002505+655118261+664342553
1481+673075505+681436226+688079956+692755063+699279046+713658001+729567334
1468+741055038+750528690+761112363+771318624+778501464+783198221+791002938
1454+802394460+812248294+819962011+826750829+834715256+842367502+847737526
1441+852650849+856952519+859795147+865304722+873220880+879629162+884049230
1427+886010612+883851260+879296468+874965128+869369168+863612929+861199531
1414+859603565+856052321+850924915+846314686+842089394+837212058+832799727
1400+828205256+822126261+816314799+813913539+815802449+817484303+814978628
1387+809713161+806890408+808193856+811881741+815018449+814929650+811884439
1373+809575456+810260080+811662193+811821477+810747586+808647149+807287554
1360+808510437+810635860+812291664+813725081+814587019+814610727+815453074
1346+817756804+819169352+818448314+817588079+819439723+823695396+827293773
1333+829348781+831077555+832542558+832987547+833075919+834181824+836365594
1319+838615875+840674716+842548365+843930461+845202109+846568163+848304461
1306+851492986+855888494+860221821+864491406+869005100+873497072+878411106
1292+883745709+887715678+889771184+891442533+893315188+895425136+897783523
1279+898789697+897826681+896869200+896761449+896585626+895471204+893378220
1265+891458433+890425924+890146609+890730012+891954954+892785092+892633190
1252+892800921+894361183+896695720+899018118+900376578+900739155+901307226
1238+901925624+901954443+902068157+902367631+902017049+901461613+901280537
1225+900744266+899802402+898676694+896607063+893759679+891293044+889446014
1211+887367297+884134834+880296538+877298884+874687304+871198453+867344611
1198+863806853+860899489+859164682+858044581+856834191+855914615+855904181
1184+856539118+856356409+855011650+853420440+851547501+849661643+848864583
1171+849168174+849717932+850813189+853260374+855777336+856380117+856294300
1157+858426466+861881813+863606257+864295708+865963579+868400756+871426448
1144+874898760+877301085+878337639+879920544+882276234+884137674+886410598
1130+890370984+894765001+897209631+897745193+899151281+902301476+905676968
1117+909331704+912660845+912987080+911825596+913160773+916539247+919232883
1103+919947107+920260281+922749133+926763324+930589057+933573081+935819742
1090+939355228+944486822+948286931+950506263+953516977+957456850+962499645
1076+970375770+979494297+986069033+990684018+994592516+995981781+997425419
1063+1002648084+1008098743+1010159856+1009962384+1008356622+1006675832
1051+1007997807+1012541313+1017039461+1019201227+1018083965+1015048478
1040+1015219617+1020348584+1025564009+1027797609+1030054065+1033487479
1028+1034174232+1032728252+1033282269+1034484638+1035888739+1038881920
1016+1040922377+1041277147+1041787509+1042744351+1042495416+1040108423
1005+1037466036+1035348634+1034317404+1035287873+1037024455+1038943462
993+1039732927+1038175717+1036890086+1037438282+1039660667+1042979444
982+1044901787+1045142275+1044595356+1042918967+1042730722+1045179966
970+1046675634+1046569161+1047471275+1049314330+1050319936+1050468077
959+1051220702+1052880552+1054056941+1054760731+1056377140+1058207844
947+1058849595+1058732616+1058747239+1058501924+1058054309+1059540111
935+1062145019+1062683278+1062235167+1061793444+1061102076+1063325455
924+1068385286+1072014043+1073741823+1073452641+1071012696+1069485724
912+1068123503+1065296633+1064574885+1066233245+1065710815+1063324745
901+1062925328+1064557566+1066262205+1066079568+1065057849+1066937105
889+1068591490+1066125706+1063353493+1061317934+1057952947+1054921577
878+1053465091+1052779260+1052339170+1050421299+1046281186+1041551777
866+1035696448+1027767299+1019919141+1015025267+1013796138+1012916951
854+1008074255+1001166116+996740227+993466808+988761391+983086357+976362346
841+969472520+964627623+959807499+951214028+942338685+937855656+935641576
827+933639876+932848707+934352396+936736123+936247552+932267717+927178641
814+923065785+920852344+920494593+920503892+918029875+913966422+912931571
800+915930431+916602989+911096253+905736948+903681016+901073127+897432942
787+895033811+894091166+893565187+892352739+890405339+888788718+886734987
773+882732295+877687796+872753888+868786261+866680855+865320480+862356188
760+857570207+853779184+852290543+851936058+852299061+852040189+850596906
746+850018400+849513645+847570079+847056948+850549206+855241419+856014771
733+852364507+847555243+844365157+845335130+849822915+852958061+852728646
719+851838528+851274006+849471481+848239868+850527840+852877212+850232625
706+844224541+839684442+838256917+837453611+835451768+833762176+833264377
692+833200777+833105661+833143282+833610558+833823008+832238683+828574435
679+824746502+822716834+822538668+821956330+817805427+811463585+811975296
665+818941996+822944616+822686951+818398200+812942075+810674191+810357184
652+809849518+807974592+803824896+801488726+801838882+799396310+795807871
638+797508749+800749517+798421013+793474683+790742007+789383618+785670676
625+777417352+770611995+772006584+778890163+784732787+784622552+779201492
611+775321954+775015666+776520632+782655561+793775861+800152840+797684288
##END=
