##TITLE=Sample description
##JCAMP-DX=4.24
##DATA TYPE=INFRARED SPECTRUM
##DATE=25/8/2023
##SAMPLING PROCEDURE=Instrument type and / or accessory
##ORIGIN=Default
##XUNITS=1/CM
##YUNITS=ABSORBANCE
##RESOLUTION=4
##FIRSTX=4397.6552
##LASTX=599.8556
##DELTAX=-1.9287962
##MAXY=2.04584
##MINY=1.2464845
##XFACTOR=1
##YFACTOR=1.905337e-009
##NPOINTS=1970
##FIRSTY=1.3161415
##XYDATA=(X++(Y..Y))
4398+690765720+692118272+694666897+697059233+697713360+696665818+695313392
4384+695581925+697154458+697810213+697346411+696764297+695823242+694705313
4371+694013458+693705321+694285057+695012199+695122691+696642043+698718546
4357+697329956+694029725+693616227+695116246+695357250+695364571+696352425
4344+697662056+698699588+698620067+697697406+696953809+696600875+699074859
4330+704825174+707129291+703552143+700479590+701559479+703368450+702015273
4317+699359159+698310177+697981768+696119367+693894520+694469502+696320579
4303+696806216+697170037+697951424+697533546+696451780+696489445+698392577
4290+701931559+702736408+699863566+699929448+702842457+703927664+704678707
4276+705435692+702224431+697702787+698978069+704084768+705816094+703771437
4263+701137534+698900112+697203385+696558330+697799639+699692072+699375739
4249+697598427+697786437+701496163+704979274+703870041+702792342+706720798
4236+711691853+711878362+706964492+701392804+698752143+698769287+698809767
4222+698433620+699900417+703169302+705767542+704366127+698804449+695622280
4209+697663308+699451444+699453321+701052194+703087528+703721384+704030648
4195+703714189+702305766+701472075+701963843+702323285+701652202+700657591
4182+699591091+697717615+695784826+695560340+697015249+699130167+701679105
4168+705301676+708577381+708316606+705099338+702078214+701444984+703728267
4155+706640213+707240971+705019941+702236506+701642880+703462611+705342281
4141+705180486+703732459+703319398+704515534+705812527+705631649+704929471
4128+706497500+709637436+710130331+707651342+706125858+706996964+708346512
4114+708740428+708939137+709850348+710892948+710906963+708936697+706545113
4101+706267257+707169021+707995580+708437796+707790926+707538410+707786484
4087+705902873+702809423+701525005+702498157+705107909+708501739+711149281
4074+711780947+709833894+707299033+707122409+708121963+707646962+707366166
4060+709316535+710972031+711400358+713133686+715015233+714184670+711557211
4047+709557415+708885831+708741617+708609853+708493292+708733858+709756437
4033+710717138+711324215+713277150+715901981+716257731+714813083+713837554
4020+713198067+712114048+711249074+711299064+710901019+708404511+706135868
4006+707878143+712299869+714515394+712772931+710698243+711402548+712117052
3993+710119632+708126343+709042246+712682085+717292010+719749414+717868305
3979+715139364+715825338+717474327+716550603+715856058+717428466+717538082
3966+715527211+714413411+713556132+712193883+711145777+709793601+708506932
3952+709111945+711566096+713524849+713948608+713418487+713005864+713638656
3939+714188799+715171273+717475390+717622483+714652288+713506017+714255307
3925+714269322+714820215+716715464+717690117+717107440+717353449+719040791
3912+720405856+720233299+718065450+714467656+711311515+710525748+711166799
3898+711514416+714201000+719174808+719466616+715101699+714711976+715576763
3885+714780423+715998958+716437045+714888412+715229709+716716590+717746677
3871+716844913+715195486+715749320+714995400+712299807+713558197+717521814
3858+718625166+715327125+710650317+711588432+715656660+718414756+719143149
3844+718598200+718882061+718772759+714208069+710035606+711103545+714236412
3831+717402063+720823046+723824149+724735110+721017626+713697656+712663128
3817+716335250+718485143+720029960+721946043+722566885+719605074+716220066
3804+715958290+716156437+717283375+720249942+722822718+724527954+726848401
3790+729308871+728861024+725428403+723238969+723206560+723146497+723986695
3777+725432032+726378218+727327594+725703381+721717302+720445148+722145566
3763+725134719+726214169+722927015+720900753+723040009+722271636+714820966
3750+714149758+723192045+728276532+724444053+721515964+722974941+723986570
3736+719907205+713958056+714244983+718241448+719842887+718393859+718219926
3723+720212903+721657989+722824094+724815006+726396800+724345073+718759495
3709+717242082+721974698+728870909+732070033+730425298+730211010+731822147
3696+733303584+735315831+734419699+726577991+720778437+722567824+725545965
3682+726683039+727549828+729219214+727107925+720763859+718517427+718390731
3669+718413255+719768058+721857950+724386116+726034605+724565618+719902075
3655+716874131+717559604+715610549+706594540+701827825+705133624+708881201
3642+709480333+708292831+708268430+708376169+707102575+706099142+703978218
3628+699097070+697723997+699696827+700990629+697747083+691810009+690120790
3615+689948171+688545629+688074319+687037351+684557110+683939208+685010776
3601+685819191+686201219+685465693+682511953+679111867+677718147+677712203
3588+677214115+675991889+674724740+673698658+673305681+672807843+671250263
3574+669635497+668963539+667649027+663225675+659595534+663147342+668284885
3561+669900715+669066084+666583591+663478754+661060266+660304531+662367082
3547+664030273+662339490+661208360+661622359+660648331+659111898+658881593
3534+659222703+659535971+659451945+659063472+658498189+656839689+655542759
3520+656156031+657817784+659838415+660584639+658664301+655741031+654206850
3507+654752238+655769936+655666640+655883931+656387901+655445782+655578860
3493+658867078+661844093+662047557+661379915+661195721+660227012+658293535
3480+657787064+659313298+661393617+662840456+662254338+660365408+659496304
3466+659622812+659357157+658279020+657214084+656859898+657682328+659697829
3453+660842098+659874015+658690141+658987830+659949407+659964423+659344018
3439+660350830+663309450+665792507+666648722+666628951+666853188+667161388
3426+666382129+665438696+666606177+669768262+670938935+669061892+667313173
3412+666146192+665686895+667078488+669088546+669911288+670534195+673026324
3399+676282508+678404558+679005755+679043983+680102537+681458342+682025377
3385+681944104+682204504+684172892+687674710+690998654+693052069+695329659
3372+696923527+695241503+693616915+695082773+697867773+700688248+703183067
3358+705732756+709822444+714914314+719206404+722563694+724789104+725704570
3345+727135454+730454329+734196776+736469298+738751455+743243567+747916558
3331+749741421+748847916+747735743+748993632+752897749+757084978+757665903
3318+756148115+758405871+763179593+767152346+769966251+769981768+767642425
3304+764718279+763085557+763392881+763153065+761000608+757952393+756043192
3291+755404769+755087809+755612175+756147615+755928070+755402829+754456518
3277+754552057+756799552+758066638+756743493+755550047+753932466+749034925
3264+743369388+740910482+740347013+740274123+740961911+740528642+739851365
3250+741264730+742802477+741938566+739967300+739577513+739971241+739979562
3237+739674866+737688959+735830874+737098524+739046891+738344338+734945753
3223+731006474+730254055+733488216+736787196+737812902+738160394+738704593
3210+738831226+738840361+738269572+736701793+735872794+736391528+736798583
3196+736643294+736467546+735182628+732739552+731939958+733909285+736253695
3183+735543321+733887637+735734711+737953676+737210454+736699791+737918201
3169+738974628+739600287+740990817+742761559+744182057+745372187+745834300
3156+744802649+742366142+740344072+740807623+742825126+743553519+743041104
3142+744187876+746113970+744620144+740888584+739661915+742133334+746316308
3129+749893518+752151275+753032016+752119679+749582816+746305234+744799771
3115+746808265+750195962+752132255+752263268+751428763+750117442+749828262
3102+751855525+753324637+751853648+751131261+753195814+753910630+752049230
3088+750858974+750730964+750643560+750750109+750451357+749257973+748134789
3075+748569998+751243755+754453265+755237405+753905375+753456088+754233158
3061+754387571+754158767+755013669+755646398+753616445+750367644+749377287
3047+750985045+753354231+755876203+757802985+757789847+756461946+755647087
3034+755819018+754975879+752785193+753278901+756787039+759092220+760395094
3020+762340521+762707596+761291540+761524473+764045694+766485768+768183183
3007+767833627+764113203+761793319+765171131+770214888+771543540+770070486
2993+768197573+766724019+766879871+767902199+768133631+768652491+770461649
2980+772392936+773670408+774863291+775355185+775001812+775714564+777419299
2966+778144940+777671690+778116034+779993326+780226948+777713422+775176309
2953+774701245+775769872+777342093+778705718+779086057+780225259+782725270
2939+782951571+781456495+781890515+783201085+783535375+783474748+783804721
2926+784409484+784043786+782427081+781068085+780791418+781103497+781450426
2912+781039242+779712968+778943031+779229146+779652530+779892783+779928758
2899+779675116+779512382+779765711+780144111+780668413+781197096+780748623
2885+779333193+778682569+779849738+781634870+783630225+786267444+787833533
2872+787806254+787701769+787686941+787345956+786762466+786245420+786524277
2858+787735429+788343633+787126224+784961817+783895880+785167471+787437803
2845+788615858+788495356+788252850+788580383+788408514+786747074+785101089
2831+785917324+788958594+791569786+792222287+791349929+790884375+792304811
2818+794178725+794870705+794320312+793060921+792838499+793737259+793428058
2804+792167354+792041846+792751032+792662501+792181994+792847070+793649542
2791+793096271+792494574+792858583+793430185+794123354+795501495+797357890
2777+798538385+798231186+797530385+797836207+798315651+798178443+799046922
2764+800428379+799494018+797648697+797656017+798835073+799979092+801110223
2750+802630389+804040563+804506492+804315166+803525645+802057347+801297233
2737+802384630+803813324+804066528+803988634+804187906+804773023+806096106
2723+807357750+807496458+807015451+807626470+809983018+812238710+812443113
2710+811409398+810828410+810077243+808038843+807120812+809697092+812806809
2696+813208358+811683499+810194304+810320687+811178029+810938526+810343711
2683+810678940+812295332+814387414+815315330+814951008+814473817+813852787
2669+812763138+812533396+813288567+813589760+813516996+813476453+813205667
2656+812905163+813356889+814661327+816291234+817934717+817926208+816017258
2642+814756303+815017140+816735703+819030748+820200607+820842221+820765015
2629+819125035+818634080+820755755+821393302+818037576+815417125+817351477
2615+821034674+823098789+824034275+825073747+825750460+825235042+823467615
2602+821230693+820161128+821058512+822728210+823773625+824007497+823798464
2588+823481067+823593873+824430193+825402656+826129548+826625008+826716542
2575+827187413+828111075+827612174+825850441+825166720+826383816+828388242
2561+829578560+829981485+830477633+830203657+828832836+827964170+828590831
2548+830422951+832366563+833431937+833068053+831149154+828995508+827957413
2534+827900603+828649643+830219236+831203899+830322845+829397369+830322783
2521+831743719+832127499+831815107+831366258+831440023+832673637+834565195
2507+836188782+836812627+836179334+835409272+835203868+834318810+832632344
2494+832372382+834216139+836599653+838228996+837952767+836155372+835523455
2480+836855923+838471439+839282482+839109300+838314524+837197658+836321735
2467+837382854+839540692+839608326+838424953+838801287+840134005+840825172
2453+840906382+840997666+841512960+842011673+841699281+841015560+840752845
2440+840578912+840270837+840134881+839863783+839507157+839436645+839669953
2426+840193693+839821926+838321594+837973101+839789016+842172280+843198863
2413+842896106+842036199+840831991+840440078+841550812+842750077+842125230
2399+839978279+838849964+839947872+841920452+842735749+842711411+844042252
2386+845597142+844567056+841851254+839208905+836806934+835616303+836270493
2372+836789603+834956232+830580555+824685400+819332754+816759853+818165210
2359+822757867+826543609+827911990+830426517+834401522+835678932+832958062
2345+829390299+829005831+831409178+832313945+831834127+833422927+834491429
2332+832741771+830717136+829816749+831384152+834715728+837210610+839631288
2318+841933215+842159829+841537798+842020620+843312170+844601279+845810179
2305+847465675+849335022+851106015+853133903+854616842+854895261+854191894
2291+852823263+852049009+852293517+853093674+854344117+855006629+854815427
2278+855000622+855277164+854840829+854417758+854569355+854682474+854543140
2264+855142147+856219157+856380953+855987788+855594186+855754480+857371122
2251+858962175+859398573+859896786+860519193+860243089+858968620+857909878
2237+858046898+858259872+857563325+856940168+856756537+856767986+857750397
2224+859422536+860779092+861723901+861903340+862025719+862745103+862413628
2210+861047938+860323611+860533145+861304583+861450800+861143038+862186576
2197+863420502+863045795+862113311+861658519+861529195+861617976+861955582
2183+862355191+862995679+863197142+861531948+859270876+858677375+860321171
2170+862694674+863009882+861996313+862621723+864628464+866449384+867818391
2156+868204298+866999339+865506703+865386013+866146377+866681942+866955168
2143+867225015+867964044+868911606+868851731+868119959+867802124+867901541
2129+867990072+867836347+867625437+867391816+866945157+866203250+865849564
2116+866842174+868274872+868588578+867963169+867753885+868730290+870080026
2102+870516361+870216795+870019337+869749115+869615349+869626298+868696254
2089+867778161+868230450+868847351+869070774+869441853+869114132+867857995
2075+867173398+868253600+870771756+872511653+872052669+871057119+871457604
2062+872550319+872745713+872673511+873247930+873676069+873451770+872354988
2048+870449729+869075279+869198784+870570231+871797525+871236809+870126951
2035+870919912+872976018+873887604+872871220+871292492+870699492+871140082
2021+871888308+872479307+872806840+873229222+873342780+872286353+871779881
2008+873330204+874682881+874484359+874598667+876027486+877038427+876234142
1994+875053209+875187913+876050073+876686744+877638560+878709690+878802788
1981+878148911+877542021+877222935+877615098+878947691+880087769+880114922
1967+879677273+879750475+880584793+881684828+882452575+882273574+881632335
1954+881560447+881119106+880306875+880683146+881529477+881440007+881677195
1940+883625062+885021409+884264987+883065034+882402397+881990776+882165710
1927+882254053+880993349+879713812+880183119+880841376+881265323+883247539
1913+885551906+886191331+885419079+883963919+883251105+884529954+885854163
1900+885317096+884268490+884318168+885532511+886521679+886596070+886887315
1886+887148215+887236120+888389274+889755840+890222207+889573148+887779256
1873+886342303+884743429+882130611+882726176+886259903+888403164+889214206
1859+889748520+890185981+891027118+891719724+891447499+890551742+889987272
1846+889546870+888250002+887542819+888147144+889277336+890635706+891407833
1832+890248485+887172616+886386036+888895620+890300790+890582650+892073785
1819+893937751+894711066+894925230+895272659+894776886+893624608+893409131
1805+894134145+894236941+892194475+889491374+888788820+889676006+889609874
1792+888072377+889650604+893733160+895945368+895435143+893666027+892281129
1778+892722031+893659833+892643135+890043331+890203688+893212110+895817421
1765+897392645+897724182+897136312+897357295+898487424+899769088+898960235
1751+894106429+890425484+892242150+893610343+892987686+892687432+892877695
1738+894356693+895435330+893403750+893661334+896685649+898433054+899275568
1724+898976690+897258503+894841266+890336515+885129711+886269100+891664040
1711+896423497+898021746+895778004+892728726+891679619+889985645+887866285
1697+887984159+888970887+891319990+892770332+891504372+890033821+888079948
1684+883757201+884499609+889167032+891899288+889435377+885700250+886691921
1670+887605322+887285923+890519646+893123392+891250980+889159774+889483303
1657+889110284+884190283+875742936+876458879+877387108+873494189+874645716
1643+879747535+880852137+878187139+873445075+870052560+874268881+880519662
1630+882667740+880439139+878451731+878674716+881189556+884580882+884943953
1616+883783041+887429011+892738924+895519982+896621957+899377050+903352806
1603+906426610+908825265+909876686+909691115+910853904+912986153+914017679
1589+914705154+915703456+915966609+915592464+916226508+918024217+917809553
1576+914362918+914915188+918271415+918939244+918871673+921089449+923529460
1562+923570566+913478860+894885625+898398518+907803812+913852880+920250314
1549+925714077+926081339+921248367+915711903+912675951+914182477+920260513
1535+923825773+923829464+925640750+928486939+928485250+926385097+923051394
1522+918382720+917516118+919768431+922872830+928279658+932784972+932830520
1508+926536382+920968947+929017686+937574211+940400817+939003843+937933777
1495+940717275+943589993+940920677+935834563+937223591+940858237+942504160
1481+942510729+940984808+937958491+934519364+931972991+931436863+933096425
1468+933529382+931319364+930509009+932220627+931898912+926195334+922053842
1454+928104410+934684413+935817921+934166179+936203390+940814440+943499460
1441+944517346+944066683+941417013+941094924+942846083+942347245+942570230
1427+945160649+944877476+941982235+941563418+942626289+943183939+944062241
1414+943323399+941212548+939525018+937679884+935846576+935706616+935708555
1400+931615614+924115704+919348175+919848015+922832726+924300398+923188663
1387+920792887+919260771+919533183+920678954+921352352+920801771+919226234
1373+919286235+921974383+923257736+921300422+918663453+917021409+916386051
1360+916693376+917588194+917950889+917275427+917290630+919053114+920319325
1346+920185621+921270328+921538798+917561791+914579459+917004954+921184425
1333+924547722+927697606+929419172+927418187+924445739+923954409+925553971
1319+928209959+930856250+932340879+933397743+936143514+940762949+945024068
1306+947150498+947670171+948432412+949987991+952380702+955783978+959238810
1292+961912004+963448061+964938321+968910448+973717079+975320771+975211218
1279+976898622+978832725+978156950+976898748+977989460+980262045+981785527
1265+982038043+980784033+980090113+982694110+985948167+986698458+986968117
1252+987232209+987020485+988338938+990531188+990750231+989161869+988444925
1238+988597336+988095244+988537398+990867042+993211452+994310048+994591658
1225+994729553+994498247+994565255+996015159+997328294+997242454+997898833
1211+1000678014+1003417654+1003346704+1002059033+1003541347+1005391173
1200+1004083293+1004023918+1007386840+1010133549+1011686813+1013090105
1188+1011875762+1008798391+1007559522+1008551193+1010685694+1011811444
1177+1010529780+1009576399+1011522202+1014976032+1016821353+1017042273
1165+1018086750+1020594833+1022945562+1023983094+1024256695+1022508163
1153+1018857250+1018433616+1022483324+1026214322+1027613673+1028851165
1142+1029882253+1029143787+1029226499+1033453332+1037432153+1034063788
1130+1027085053+1024675449+1027200299+1029496346+1027982937+1026104394
1119+1028021353+1030143654+1029383852+1029627234+1032085577+1032153023
1107+1029772637+1028576188+1028030362+1028427531+1031413618+1035166514
1096+1037728028+1038802974+1038414502+1037185393+1037115757+1040268770
1084+1043544037+1041365552+1036752812+1037107185+1042214071+1047169986
1072+1048991532+1046322655+1041709414+1040662372+1045145288+1052778088
1061+1058023370+1055763111+1050517829+1051988505+1059038941+1061028414
1049+1055250320+1049215643+1050211381+1058312425+1063695352+1061788591
1038+1059791735+1058799689+1056724250+1056323703+1058129607+1061220117
1026+1062682159+1059437111+1055025709+1052681987+1051685686+1052332368
1015+1056505019+1063928723+1068707639+1065469849+1057508827+1051438175
1003+1049527785+1052334871+1060457938+1067427288+1064840810+1058663670
991+1058682691+1062082902+1063180935+1062799908+1060994754+1058174029
980+1056637408+1054165551+1050263561+1048687962+1049017247+1049246113
968+1049253683+1049766662+1051294523+1051453691+1050750324+1054034038
957+1059707772+1061808487+1060180896+1056088830+1050325251+1049302860
945+1055963698+1061515428+1058217074+1051230831+1049915569+1055638230
934+1062895258+1068700756+1071971706+1070844017+1068583633+1069359201
922+1070847896+1069360577+1065943724+1064540744+1065629142+1066953413
910+1067591086+1065565700+1062355064+1064224786+1069646128+1069802543
899+1064827421+1063058055+1065855380+1069474698+1073045714+1073741823
887+1068327363+1062013078+1061802981+1066126416+1068298457+1065507513
876+1061275300+1060284755+1062639864+1066773349+1070913090+1070459611
864+1065947728+1062944310+1060233826+1054133893+1047295306+1042538726
853+1040020133+1039751099+1038978096+1037096737+1036375726+1034500812
841+1031525048+1030751545+1030243884+1027113395+1021899146+1016000487
829+1011366037+1010683129+1011191102+1009406157+1010572262+1013722022
818+1010899670+1005950075+1005770698+1007089652+1001386950+990093289+985454897
804+990387536+996031301+995627688+990659573+988501860+990693609+989556848
791+982456609+976068997+975342731+976239928+971988882+964360086+959470053
777+957871805+955392628+952093211+953133058+956520881+952874660+944493508
764+941554846+941799354+938836479+935492202+934141403+930978066+926192644
750+925707820+927260896+926571606+929008677+932291827+928398345+923998518
737+926178442+930192363+931433859+930531846+930302541+931069100+927790454
723+921333081+918586059+920101282+921566890+920645919+919747409+921141942
710+921517776+917446107+911332409+908408262+910024467+911982094+909027478
696+904821855+906441688+907033813+901144727+900285508+908431600+913110159
683+908471767+904374571+906234470+907014480+904991284+906966554+910313584
669+906005603+896595178+892541716+890731682+886726520+881308994+878635487
656+881332769+887602256+894231561+902021652+913453521+921064110+912448398
642+890817522+871364256+866937775+876125027+880959062+873236981+866959610
629+871814230+880724878+877176949+861471572+841702347+816552947+806906023
615+837852474+887085274+903028901+899627564+914876146+926614151+906014425
602+880344227+872326395
##END=
