##TITLE=Sample description
##JCAMP-DX=4.24
##DATA TYPE=INFRARED SPECTRUM
##DATE=25/8/2023
##SAMPLING PROCEDURE=Instrument type and / or accessory
##ORIGIN=Default
##XUNITS=1/CM
##YUNITS=ABSORBANCE
##RESOLUTION=4
##FIRSTX=4397.6552
##LASTX=599.8556
##DELTAX=-1.9287962
##MAXY=1.8062657
##MINY=0.30758968
##XFACTOR=1
##YFACTOR=1.682216e-009
##NPOINTS=1970
##FIRSTY=0.44660231
##XYDATA=(X++(Y..Y))
4398+265484519+265779581+266067751+266126196+265814003+265701931+266014975
4384+266267447+266085201+265579265+264914521+264414431+264215744+263781026
4371+263270856+263319646+263794384+264408124+264878008+264786859+264136536
4357+263725185+264159921+264632037+264178983+263288217+262798916+262594100
4344+262553761+262936801+263430744+263358781+262385050+261150149+260896188
4330+261618917+262192653+262320688+262273155+261779797+260983369+260664196
4317+260836025+260926288+261011627+261378988+261703919+261866411+261915680
4303+261506420+260865805+260395460+260047746+260046967+260354288+260439627
4290+260111879+259703079+259460510+259139158+258993177+259634164+260499667
4276+260489232+259643128+259007332+258975142+259016208+258974682+258896483
4263+258521982+257994874+257827050+258210728+258862893+259277184+259139548
4249+258576689+258166296+258419795+259065583+259249193+258679797+258173878
4236+258042743+257598175+257178250+257576314+258203092+258329727+258259128
4222+258214696+258130952+258030661+257455702+256386801+255813277+256162072
4209+256688701+256740184+256859927+257278470+257375891+257417719+257485217
4195+256941421+256192792+255889014+255767765+255621128+255653655+255785569
4182+255616983+255137957+254859655+254983561+255160244+255120170+254993588
4168+255088263+255295205+255088901+254490168+254203804+254353488+254267352
4155+253845195+253570046+253518581+253505134+253383548+253039360+252412830
4141+251588198+251243212+251794715+252162359+251697772+251473522+251934548
4128+252409676+252704596+252826873+252589264+252164698+251817090+251644978
4114+251777636+251913980+251502399+250714847+250181362+250173230+250482518
4101+250670876+250696546+250748171+250404248+249543086+248931278+248939445
4087+249301296+249743154+250082931+250204676+250116078+249833577+249316479
4074+248874409+248975161+249541367+249961115+249723542+249024535+248445502
4060+248258420+248312348+248304358+248098550+247759109+247474199+247311016
4047+247021038+246669958+246756732+247134439+247238007+247182999+247262491
4033+247308571+247287046+247326039+247180643+246707162+246181153+245844423
4020+245814607+245928291+245966434+245936848+245605734+245039155+244989284
4006+245427669+245461011+245131048+244978619+244953267+245068493+245088601
3993+244631932+244233285+244327375+244440404+244229653+243990716+243964248
3979+243929595+243727437+243584769+243645269+243742176+243877811+244030435
3966+243807797+243118676+242445251+242149870+242235138+242428155+241985642
3952+240675536+239556143+239718086+240478763+240431780+240066031+240643930
3939+241556044+241483124+240047818+238387589+238289938+239299100+239577845
3925+239112762+238824681+238343458+237370844+237050979+238313376+239991765
3912+240601819+239936171+237869144+234494970+232022031+231973170+233234681
3898+235587150+237535160+237358159+236206187+236505004+237100903+236421349
3885+235468700+234586651+233973036+235099302+236210917+235546687+233688975
3871+231782191+231600831+232399969+232116210+232501199+234387504+235115671
3858+233275074+228700296+224526098+228171825+234013712+236856722+236269681
3844+233273302+229826563+226962187+226110272+228507705+231468119+233219357
3831+233876554+233692040+233316246+232613820+230286721+228014063+228850281
3817+230716762+233250289+235863964+236474958+234684284+232237123+230974549
3804+229163130+227504034+229008539+231282596+233545262+235952545+237287064
3790+237443958+236792306+235751325+235022556+234453762+233873772+234653582
3777+236289984+236496926+234926818+232984866+232377487+232738613+233328896
3763+233436751+231888239+230040750+229817067+229173228+225906643+221756255
3750+222060848+224297843+225217114+226841505+228798638+228737855+225953502
3736+222031173+222453402+227379507+231068674+231773758+231087011+231017971
3723+231815869+233158785+234950717+236046883+235180211+232919104+234342523
3709+242505893+252799767+262902148+274074848+288050377+302035385+313398285
3696+322106673+326977221+327417927+326170111+326972651+328583364+328611922
3682+325653970+318891022+309247684+298976876+293756984+292401631+289164809
3669+286268314+285235978+283164115+279585886+275178313+270098502+264439853
3655+259820342+255849135+249375137+242253952+242647126+246441172+247885531
3642+246939190+244913530+242561203+240023849+237151837+233502761+228591767
3628+226063679+227639952+228225487+226099678+221987096+218850547+218201500
3615+217802197+217292061+216724189+215659380+215677964+216424468+215545944
3601+213444335+211814187+210553155+209574340+209392431+208733817+205970600
3588+202911134+203142311+204725069+205066033+204211284+202968091+201819396
3574+201040844+200138953+197605567+193240495+190969821+192667804+194264025
3561+194386567+194306615+194165931+193184636+192007808+191662875+191158356
3547+189751041+188887753+189551469+190507200+190632453+190148112+189650963
3534+189222393+188314920+186653769+185367208+185238536+185362903+185473664
3520+186051705+186708353+186849196+186200343+184972528+184191939+184459310
3507+184767482+184134486+183367927+183498406+183950114+184170874+184349099
3493+184374893+183988611+183500922+183192485+182945806+182847906+183117103
3480+183525353+183724801+183975235+184336839+184369826+184171619+184054267
3466+184073985+184117319+184114998+184237168+184391475+184613795+185153746
3453+185509504+185173429+184652717+184684783+185070002+185408221+186036682
3439+186709557+186911291+187048059+187291408+187535482+187890903+188162828
3426+188203663+188127200+188207348+188562503+188963915+189604653+190658319
3412+191554506+192000332+192407076+193072085+193962019+194998429+196178800
3399+197429947+198610920+199958868+201642749+203198932+204568476+206075195
3385+207518562+209010967+211007183+213285173+215600084+218136252+220841856
3372+223536724+226240007+229156575+232430972+235847896+239471017+243401124
3358+247122817+250810780+255192381+259889223+264311659+268774595+273532947
3345+278441514+283368949+288046125+292179063+295839884+299571003+303452000
3331+306746807+309366523+311736195+313817306+315691387+317398121+318667906
3318+319528519+320300977+321436756+322862230+323998258+324932747+325954789
3304+326961737+327666874+327599198+326605041+324815998+322336309+319292009
3291+315773554+312082155+308550130+305031888+301393885+297973613+295033252
3277+292439029+290067250+288015441+286223279+284536635+282971647+281390236
3264+279830368+278636338+277592788+276277031+274796690+273329123+272120017
3250+271371670+270582258+269561704+268730128+267858655+266894597+266360864
3237+265976460+265090761+263786501+262398213+261173747+260348867+259719520
3223+259074990+258591464+258188565+257627868+257066834+256712334+256319692
3210+255827751+255397480+254724888+253762762+252930441+252492446+252418393
3196+252383758+252233011+251971823+251554024+251171391+250902443+250533399
3183+249960017+249238865+248768360+248859155+249048009+249083317+249080660
3169+248784447+248309035+247884273+247335092+246915751+246880408+247048923
3156+247408738+247775550+247803665+247645283+247520969+247425639+247460238
3142+247563895+247436552+247153484+247024546+246923529+246717756+246634083
3129+246698889+246786052+246726278+246385579+246035580+245868800+245778891
3115+245656809+245498108+245564296+245814554+245836433+245653231+245469249
3102+245227229+244935657+244721115+244518319+244279541+244127094+243936841
3088+243619386+243453687+243458382+243330791+243071498+242902734+242692355
3075+242087261+241258714+240674189+240323942+240070513+239954915+239879622
3061+239664300+239173954+238551392+238162576+237977071+237645868+237146699
3047+236796186+236718979+236757547+236691289+236335939+235746046+235134326
3034+234619762+234200386+233869396+233706532+233618341+233370794+233103423
3020+233090880+233168689+233055323+232723837+232288889+232040616+232171732
3007+232383971+232380446+232417650+232621917+232578990+232457794+232846628
2993+233503789+234068136+234640047+235112110+235412505+235831810+236459208
2980+236944275+237033440+236871763+236666256+236488386+236282383+235948506
2966+235620386+235435660+235093810+234400632+233676273+233231581+233201428
2953+233377544+233264994+233041275+233191507+233476612+233528893+233296493
2939+232831091+232376779+232106484+231932352+231774537+231592044+231239830
2926+230704945+230168271+229575206+228830049+228162134+227736345+227442984
2912+227213206+227031085+226878868+226894316+226916266+226586056+226209234
2899+226266156+226636653+226910668+226874580+226640143+226376545+226188701
2885+226191465+226199969+225866233+225446343+225379057+225450666+225300735
2872+224912787+224471355+224169295+224009939+223936913+223980140+224109202
2858+224211406+224238796+224056196+223409469+222491916+221859345+221647956
2845+221598050+221609814+221769790+222015849+222190796+222335873+222600959
2831+222928282+223081615+223094282+223186689+223351608+223481113+223476011
2818+223378165+223412038+223648920+223933122+224094392+224114145+224027868
2804+223944850+223952751+223928020+223983719+224306205+224629312+224698918
2791+224670714+224717857+224745459+224717804+224646975+224499612+224465739
2777+224567040+224484093+224231178+224167949+224403998+224743457+224886727
2764+224756017+224672858+224771129+224885434+224984449+225076484+225136400
2750+225158492+225145205+225154399+225255647+225421257+225535916+225540433
2737+225495594+225498340+225556679+225620935+225670452+225687335+225748757
2723+225955061+226203477+226427745+226683441+226872915+226925443+226873075
2710+226745111+226727785+226908897+227103933+227269455+227457015+227554897
2696+227608878+227740686+227769173+227625832+227531069+227556544+227570646
2683+227507807+227453082+227468336+227546889+227654621+227702578+227653558
2669+227570469+227493776+227405709+227325349+227296064+227343455+227487115
2656+227654514+227677793+227528323+227395983+227380127+227393716+227385584
2642+227412477+227518207+227596919+227570026+227539005+227587813+227685978
2629+227776791+227859224+227897845+227819292+227768606+227906154+228045474
2615+228015640+227964316+228065369+228270716+228418469+228518990+228632692
2602+228686442+228748555+228934362+229104082+229103391+229030330+229063920
2588+229166212+229165592+229098590+229103798+229152925+229172590+229102505
2575+228960936+228862540+228766909+228632426+228526430+228409876+228309922
2561+228348490+228422366+228361547+228248075+228206371+228215655+228230625
2548+228222263+228167626+228091146+228080303+228169841+228247632+228216983
2534+228191454+228300213+228422366+228449578+228467330+228504870+228513409
2521+228531161+228607995+228677939+228703237+228784359+228958119+229118786
2507+229243189+229418702+229574374+229540607+229478104+229710309+230101534
2494+230281548+230220285+230153496+230280060+230490155+230512282+230404816
2480+230424658+230599906+230766544+230793171+230695485+230603503+230564102
2467+230518713+230479313+230512176+230578629+230540061+230421275+230408678
2453+230493255+230504310+230443579+230455059+230541957+230601182+230629882
2440+230698461+230793348+230822048+230858030+231007678+231117677+231088623
2426+231036413+231035988+231097853+231211502+231347774+231512038+231654741
2413+231681847+231673183+231793352+232037728+232280049+232427199+232496292
2399+232612810+232855238+233130564+233318337+233418078+233502460+233562057
2386+233347373+232581488+231277884+229592905+227553054+225138561+222527260
2372+219924834+217355272+214899040+212742812+211178285+210390220+210169725
2359+210474318+211744953+214308509+217957071+221584568+223340412+222309919
2345+219699698+217932941+217666491+218101457+218910853+219874113+220508439
2332+220833937+221564832+222784533+223894199+224760163+225740909+227075003
2318+228554493+229847290+230894082+231815426+232801274+233946196+235066864
2305+235929000+236539019+237092063+237705483+238294685+238717037+238983488
2291+239245314+239559155+239917835+240342738+240702889+240833758+240802046
2278+240775384+240855832+241038556+241198728+241254657+241300897+241445814
2264+241634615+241759602+241794857+241799924+241914653+242178464+242403689
2251+242484279+242586873+242835147+243121103+243318088+243406243+243433898
2237+243511690+243683784+243842113+243947789+244063936+244174006+244269638
2224+244337083+244297612+244252418+244366616+244526415+244586172+244643891
2210+244810599+245025602+245153371+245168376+245148782+245187102+245372165
2197+245607488+245736620+245785676+245780574+245780450+245891459+246051507
2183+246150965+246222786+246405864+246716020+246936408+246937507+246875323
2170+246906273+247034609+247244492+247502792+247740047+247908669+248021113
2156+248133663+248267172+248404613+248515835+248597931+248673579+248746640
2143+248888883+249135279+249347783+249437020+249470893+249527265+249606828
2129+249687490+249794477+249994616+250250774+250343978+250279279+250392626
2116+250736726+251008119+251095726+251197416+251445636+251731787+251961654
2102+252182662+252422343+252619382+252809281+253193951+253847799+254654591
2089+255490578+256298823+257119185+257905018+258515019+258955991+259280338
2075+259506253+259756848+260159500+260595723+260878224+261205919+261805078
2062+262390064+262721178+262940999+263170370+263388438+263577734+263794243
2048+264048044+264262586+264367961+264436026+264731921+265229124+265589345
2035+265766506+265952100+266147828+266177874+266136897+266264843+266488579
2021+266523622+266201738+265926288+266232635+266790852+267013561+266993931
2008+267189694+267644113+268019322+268236433+268523097+268955760+269204388
1994+268994877+268823864+269340465+270284344+271204023+272025732+272767310
1981+273452551+274099313+274828810+275751819+276845027+277863260+278562869
1967+279461856+281141414+283051157+284582413+285821956+286936140+287949378
1954+288831870+289518865+289957711+290038869+289602822+288862306+288775161
1940+289620467+290326614+290485315+290407913+290289197+290268841+290337562
1927+290091043+289193987+288428439+288424807+288626328+289270946+290369434
1913+290859319+290623252+290549199+291163452+291954742+292459722+292811280
1900+292985483+292736713+292401737+292471609+292381682+292068586+292552129
1886+293389251+293727611+293869995+294082393+294289371+294329568+293987488
1873+292823947+290566419+288810416+289890709+292230032+293581169+293933188
1859+294045083+294397049+294871717+295144155+295021453+294319612+292943761
1846+291353670+291506170+293757072+295242550+295379372+295451884+295381675
1832+293963501+292118368+292113956+293027807+293969949+295315080+296228718
1819+296437378+296570780+296571170+295869311+295131400+295616998+296765161
1805+297148024+296240729+295066204+295211157+296050122+295811556+294524145
1792+294758033+297399292+299377295+299846418+299770451+299548929+299592085
1778+299909239+299105353+296668626+294850546+296427935+299487029+301859606
1765+302674121+302301233+302407919+302802422+303001303+303279977+302180551
1751+299337399+297757512+299155844+300983969+301717274+301822685+302254391
1738+302362141+300656221+299231846+301600738+304910674+307507005+308737672
1724+308636832+307778735+305171313+300611825+299269263+303761997+308041536
1711+309807017+309129234+306878048+305086311+303910635+301930080+300554035
1697+301871334+306289306+310492028+311208042+309815414+307512497+303948370
1684+302998539+307337214+310635847+311497488+310997468+310620859+309953352
1670+309533480+312712246+316395460+317175926+317390503+319385904+320652322
1657+318805454+314031919+312745056+317113034+317338666+317064669+322261158
1643+327258695+328741817+327507925+324692020+325440278+331919555+336560432
1630+338476322+339920894+341638010+343766742+347356132+350056705+350521221
1616+352713909+357452543+360337328+361329394+362174984+363452989+364442185
1603+365154231+366118732+366934948+367002163+366865607+367469301+368522878
1589+369442699+370318583+371271178+372218352+372776835+371936277+369659615
1576+370001678+373528778+374840053+374974837+377278321+380108009+381506377
1562+380523700+376336285+375891114+383868395+390261713+394967643+398680302
1549+402004801+403559247+402342115+399988885+401010679+412598609+423021385
1535+427679588+433204853+441489968+447580908+451590134+455827119+459834715
1522+466007149+475894297+485404021+495572536+505612963+512597929+515482253
1508+516838209+530166569+549104097+559523508+566388146+573880961+585485721
1495+598634476+607402603+613481000+622511822+635521965+647781442+657549750
1481+666262320+674679526+681794670+687225295+693786066+706575467+721311868
1468+732736774+742808240+755123345+766982721+774187650+777647393+785763852
1454+799011037+809759329+817656036+824033552+830946449+838677617+846203420
1441+853343579+857305609+857732922+861927671+869142875+873841046+877104070
1427+880294953+881009479+879457407+875936365+867623258+858972128+856099001
1414+854259218+850305762+845775966+841926113+837370239+831980077+826781817
1400+820673373+815235449+812895860+811916230+811965268+812304567+810096360
1387+805130677+802178748+803507172+806132558+807085259+805923154+803585832
1373+803046979+804657019+805094607+804877265+805054143+804095064+803702050
1360+805809204+807760881+807855910+807411945+808437565+810851421+812797429
1346+813715619+814565284+814080855+811478784+811341661+816152647+821922359
1333+825285018+826089967+826527272+828095856+830251906+832177931+833349674
1319+834262975+836552109+839676168+842012993+844116321+846184003+847626945
1306+849376588+852286848+855601036+859059221+863417596+868555976+874340427
1292+880218207+884426279+886453781+887030972+887219613+887934140+888875432
1279+889242226+889191133+889322870+889021483+887974178+887392948+887549913
1265+886914188+884850828+883055052+882190506+881837247+882759406+884503096
1252+885793041+886604652+887602140+888905620+889368932+889126150+889500598
1238+890402915+891777897+893359095+894162131+894126699+893459014+892581713
1225+892072693+891164566+888428277+884313392+881056392+879062975+877194422
1211+875799243+874390529+870810741+865736209+861741014+859000899+856310743
1198+853267541+850492206+848839010+847629638+845233215+841891886+839517290
1184+839104788+840024892+840622208+839791251+838433418+837841204+838350790
1171+839757449+840930752+840881217+840992971+842631711+844510256+845937395
1157+847939953+850441326+852919242+855797543+858828486+861035346+862609812
1144+864319629+866512813+869261928+872771701+877294341+881118752+882432933
1130+882721493+883895504+886283636+889736931+893238130+895549870+896358645
1117+896373243+897509271+900462546+904196961+908587579+912675678+914587317
1103+914889766+915270804+916625874+920411877+927123519+933672739+938097302
1090+941387679+943132007+944267752+948041495+954889480+962542201+968769201
1076+972503190+975291847+979525926+985363030+991388916+995173998+995779039
1063+996839100+1000079164+1002288362+1002810775+1002911757+1003351116
1051+1006527544+1011305791+1014007994+1015887814+1019485460+1022694343
1040+1023581424+1024625825+1025630257+1024290565+1022989069+1024057208
1028+1026203409+1027188920+1026956839+1028358680+1033165485+1040192048
1016+1047131094+1050654615+1048892004+1045099198+1042965753+1042483521
1005+1042075200+1041817111+1042198929+1040158317+1035052180+1031244421
993+1029506046+1028465685+1030204627+1035099659+1038775114+1039726185
982+1040565220+1042256258+1045256375+1048767566+1049313718+1047275515
970+1047061292+1048129148+1047821880+1048960105+1052161902+1053934576
959+1054444941+1054310228+1053534262+1052966567+1051266104+1049555579
947+1050908381+1053129556+1053838696+1054393068+1053714471+1050763392
935+1050449179+1055707887+1061269541+1062357168+1060776253+1060599163
924+1063379600+1066599467+1067956663+1068347976+1069951568+1072931701
912+1073741823+1072133413+1072236804+1073043454+1071745147+1070584245
901+1070784225+1070210436+1069043440+1068090384+1065136613+1062055427
889+1062863920+1063790330+1062217494+1061074876+1060363539+1059633281
878+1058245543+1053495145+1044487000+1036160358+1034344386+1036059093
866+1035734675+1031426826+1023329856+1016040315+1012252611+1009217770
854+1004797176+1000143509+996426952+992017625+985195648+977240052+971278440
841+967357085+962469353+956280265+951235214+948198885+945158163+940424632
827+934398320+929152438+927787306+930067156+931041755+928739228+927188572
814+927570673+926140062+922075136+918530072+916561033+914454942+912110463
800+909854706+906952453+904330398+903686807+904408491+903841930+900080091
787+893239264+887047271+885652517+886969249+886435073+883503341+879378251
773+874518439+870998957+871163717+872673909+871325287+866697415+861757526
760+859272735+858707946+857826888+856247958+854658043+852850150+851146639
746+850062272+847963267+845054566+844609820+846140917+846932473+847209766
733+847162357+846386321+845749462+846414950+848021518+848090894+845631402
719+843617577+845561034+849632833+851220764+850347076+848688990+846923048
706+845042944+841390874+837220857+835264715+834957021+834355737+831781232
692+827781643+825181910+824653687+825805092+828756029+829516759+825577972
679+822575020+823740882+826042346+827363259+825707654+818643178+812257513
665+813551001+814644794+810919663+806920216+807677261+810021882+809078818
652+805620421+802195472+802176480+806954798+810883593+808713370+803381317
638+799831363+798158963+798456168+799815135+795331046+787821967+786587438
625+787618516+786073387+783821387+778719147+772920452+772280475+776481036
611+782294187+786886840+790116274+792132580+791005977+789044946+787129480
##END=
