##TITLE=Sample description
##JCAMP-DX=4.24
##DATA TYPE=INFRARED SPECTRUM
##DATE=25/8/2023
##SAMPLING PROCEDURE=Instrument type and / or accessory
##ORIGIN=Default
##XUNITS=1/CM
##YUNITS=ABSORBANCE
##RESOLUTION=4
##FIRSTX=4397.6552
##LASTX=599.8556
##DELTAX=-1.9287962
##MAXY=2.0395336
##MINY=1.2651941
##XFACTOR=1
##YFACTOR=1.8994637e-009
##NPOINTS=1970
##FIRSTY=1.3407875
##XYDATA=(X++(Y..Y))
4398+705876891+703588242+702877868+704207427+706486912+708743428+709636181
4384+707903833+703970447+702127516+706122594+711228577+712400672+711625028
4371+710670018+710294591+709257742+706075524+703850639+704371856+706426601
4357+707166660+704944474+704528065+707997783+709620115+707630829+707745239
4344+711764856+715058284+715307251+713610486+712040308+712376698+712427722
4330+711887551+713010380+712170847+709099777+708996098+708922105+706295371
4317+706680965+711333071+715673828+717420110+717258693+715440112+712195449
4303+710150181+711677809+714067626+713377900+711045696+708959007+706973989
4290+707308873+711337214+715223404+714827329+712621962+712521798+712798944
4276+710894759+708372206+707322868+707415187+708027343+709100655+710873107
4263+713268824+714554639+714298643+713546911+711769563+709856153+709499240
4249+710108760+712201223+716164607+718717222+717437745+714137540+711923010
4236+712203608+714842580+717284424+716675155+715766085+716700636+715559669
4222+711757576+711123016+715065187+717693176+716440686+713564860+711439072
4209+713727470+719767564+721508009+716885902+713968780+714983537+715442811
4195+716496605+719986720+721435710+719461110+719251996+722162716+724212377
4182+724193549+723583088+721823187+718809353+716566519+714610558+712158735
4168+711848389+713758096+714229420+712509246+712992745+718600552+724609142
4155+725599988+722419590+717371974+714306677+716440686+718749104+716513173
4141+714292995+715641068+717685896+717973021+718671220+721124110+721920339
4128+719114552+715388022+713246168+713443044+715729120+718369912+719732545
4114+720045149+720413422+721101454+721317597+720791736+720381226+720654481
4101+720649523+719861892+719558011+720804539+722453418+721077856+717129973
4087+716290252+719636334+722563058+723873789+724975783+724267228+722012219
4074+720710149+720093411+719651146+719328876+719001460+719825680+721845843
4060+723220652+723283788+723080322+723617229+723757120+721037313+717673658
4047+717455506+719234423+720481139+720143619+719429165+720321981+721878604
4033+722903403+723964163+724652760+723755551+722887023+724639015+727451141
4020+727370871+723264960+719254004+719012129+720517854+721917640+724317059
4006+727187174+728698485+727676949+724531885+722312272+723061557+724586235
3993+724622321+723997488+723443260+723407047+725003020+727808116+730778333
3979+733174426+732744398+728885633+725303199+724334820+724272814+723749337
3966+723108187+723297846+725334767+728009511+728967974+728226659+726508682
3952+723840903+721511838+721767582+724446030+726002151+724651693+723300545
3939+723267345+723582272+724233464+724214699+723369831+723844167+724750978
3925+724417600+724636128+725462545+724574875+723543737+726037108+731526300
3912+735561230+735252077+733039555+730723732+727490616+725545889+724544123
3898+722239345+722541846+726953960+730869585+731499690+732040174+730707540
3885+725801320+722495718+721910423+724225807+727432187+726145493+721746307
3871+720601700+723121429+725612414+725531957+725296044+728237265+730808394
3858+730793771+727806673+719493933+717179051+723394370+727236315+726362201
3844+724621192+726629431+729472058+725909769+720933133+721181284+723778772
3831+726480880+728103337+728078359+728697669+728826326+725979871+726648698
3817+728783900+727897298+729886584+734034042+735780574+736128764+738063198
3804+736838259+729424674+726588010+730817306+735490312+738632677+739049337
3790+737005764+735352555+734198597+733135515+733004850+732007225+731869092
3777+734191568+735031478+734197593+733214717+732251736+732398907+734432564
3763+736606991+735443619+732136259+732277028+734971856+734049041+725524237
3750+720356122+725786007+730775195+728855509+727880039+730454996+731529061
3736+727764812+724016693+727151401+732557939+734154100+731765601+730401901
3723+733066417+737713189+742100074+743887275+742277307+738214260+734358822
3709+735616145+740022171+743325138+743567641+741139415+739734733+741136967
3696+743695545+744303433+739800191+730030366+725408572+730598150+737370271
3682+740584747+740106144+737154441+731691357+729590045+732712390+733012067
3669+732038103+733504791+733320718+732772702+735377408+738385154+736528667
3655+732389054+731920617+730185758+719441153+712867352+718101740+724671964
3642+726837165+724919927+722307627+720674438+718467753+714133147+706462687
3628+700810572+703971388+707996403+707871888+704046951+701445572+702777766
3615+701742487+698054177+697089250+695907176+693117456+693499975+695043543
3601+694409610+693883435+693286216+691017650+691627045+694394297+692154161
3588+685960243+684736748+686517798+686054069+684205615+683566096+684699343
3574+685928361+685137467+680385071+671380283+666079620+670133001+675966806
3561+678697971+678007806+675786686+675253670+676771633+677456715+676456392
3547+675003636+673085959+671932001+673744807+676724563+678394780+679426357
3534+678894973+675284297+671435009+669938384+669232780+668657841+669351144
3520+670081539+669353529+668492595+669227194+671436766+672899249+671882107
3507+670796369+671406265+672514283+674359222+676910143+677524307+674560304
3493+671274094+671495446+673806312+675150807+674573609+672424223+670255947
3480+669254746+669857864+671282001+671365283+670723003+671521805+673007133
3466+673558977+673291119+672630827+672010262+673277124+676637202+678876898
3453+678081234+674391606+670150888+670262788+674489825+678009500+679026831
3439+678260161+677080535+676188535+675439626+675365131+676979931+678944741
3426+678515341+676648875+675070789+674610699+676562393+678350221+677904629
3412+677815887+679272534+681444764+683692556+685237882+685580674+684950507
3399+683985517+683669335+685244472+688209918+690200083+690407629+690747220
3385+693649844+699459675+704916232+705772522+703094890+701269218+701482286
3372+702757370+703617488+704324536+707303978+712310048+717194302+720315894
3358+721354876+721562924+721484412+723225484+729232379+736665608+741368613
3345+743969741+746828559+749620538+751541166+753707559+756300466+758212118
3331+759735541+762580489+766644101+767564907+765071537+765090177+767445225
3318+768877584+770197980+771363046+772016812+772154569+772280213+774513633
3304+777076855+776952967+775619706+774563904+772936677+770680286+769006366
3291+767539992+765918602+765603926+766548455+767319016+766181062+762993698
3277+760752307+759548957+757483230+755881421+756386069+758855905+759971830
3264+757197675+754589769+754358626+753464178+751418094+750321561+752146104
3250+756435649+758011539+755153223+753026682+752962416+751565140+749333790
3237+749047482+748798013+746204479+744763585+746076324+746536288+746664004
3223+749711979+753514825+754499834+753634005+753364955+752857608+749289231
3210+744541103+743083514+744315357+746438697+749318979+750874033+751486377
3196+753854981+755016533+751726934+747885114+747265553+747925343+748157678
3183+749647086+751843164+753449618+755174749+755154792+752656527+751375355
3169+753525933+756627317+756380735+753332634+751636435+752429086+753777912
3156+753032016+750222401+749233313+751093879+752233842+752212692+752383460
3142+751620494+750491200+750355577+752075813+755869057+758525288+758627021
3129+758666999+759497432+761102881+763048361+762282508+758780342+757439110
3115+757860979+755903073+754278293+756501986+760097286+762134395+762725024
3102+763212728+764320119+764842842+763179779+761096605+760670092+759944216
3088+759619373+763727732+770248376+773685083+772825969+769627748+767161239
3075+767479806+769474803+771239473+771567328+770507572+770702378+772536648
3061+772648674+770503493+768870367+768761165+768093656+766948108+767811364
3047+769054754+769437649+771266209+773089873+772563948+771621113+771770794
3034+772059488+771744812+771560613+772054530+772084592+771276627+770846222
3020+771152991+772321258+774476982+776475054+777210595+776838118+776185984
3007+775771333+776277048+777875594+778579504+777830031+777753652+778959826
2993+780107885+780774892+781775780+782251496+780910013+779325526+779501440
2980+782476364+787870036+792610445+794178302+793085534+790794312+788909646
2966+788637458+788507672+787096400+786746202+788902492+791234695+791660769
2953+790472921+789424085+790368176+791902581+790495452+788005534+788436377
2939+790091595+790826884+791872331+793779465+796149074+797852240+798125118
2926+797947634+796791919+794045189+791789426+791051187+790460369+789176437
2912+788265358+788308599+788036537+787403921+787898654+789197461+789756710
2899+790388008+792624566+795021161+795139023+793313727+792598646+793789005
2885+794192171+793578384+793921113+795703921+798650728+801195121+800955820
2872+798353374+796804847+797493256+797802534+796808487+796140727+797077098
2858+799563313+800511985+797719252+794391433+793599471+794532328+795292282
2845+795044884+794653955+795722561+797962759+799415389+799801109+800084844
2831+799509842+798113946+798553263+801267609+802869418+801763094+800335380
2818+800006207+800542298+802577524+804693521+804534552+803348210+803107465
2804+804520117+807000496+808100104+807063381+805877855+806061552+807130282
2791+807458200+806722158+806725484+808013433+808416474+807781788+807379563
2777+806013352+803537681+801941394+803490172+808479799+812431447+812298899
2764+811245482+811891339+813022955+813375475+812770474+811206006+810499711
2750+812276243+814719657+815464297+814982681+814850761+815190415+815354217
2737+814306574+811973366+810548476+810710207+811267510+812154176+814249337
2723+817809869+820270416+819433393+818044715+819091229+821737041+823383975
2710+822955767+822546136+823828186+824406138+822130166+819605982+819424921
2696+820245061+820276880+819628261+819327643+820057096+821713444+823647627
2683+824528895+824383544+824567806+824460927+823485268+822961980+823169714
2669+824036108+825899436+826751960+825328827+823980503+823807789+823862955
2656+824146063+824706253+825375144+826489375+827458569+827683310+827913449
2642+828039031+827648165+827337883+827026156+826718635+827344786+828875865
2629+829891376+829300935+828156517+828532571+829781673+829976541+829848637
2615+830224566+830517088+830643862+830620202+830792476+831845203+832931946
2602+833010960+833330280+834902279+836228950+835567529+833913064+833395550
2588+833453791+833179657+833604288+835302496+836858490+836349637+834720715
2575+833494710+832563987+832555515+833475568+833940239+833952728+835434604
2561+838167841+839357509+839107789+839606162+840841330+841167177+839738647
2548+837688170+836625904+836658978+837131933+837904439+839107789+840507011
2534+840778069+840132525+840471301+840528035+839368743+839151972+839831782
2521+839980773+839479262+838632700+838217358+838550360+839161511+839920524
2507+840113697+839196405+838827129+840337811+842905677+844993370+845454777
2494+845204430+845828259+846358200+845939720+845852045+846522943+847479146
2480+848172889+847408981+845311184+843437312+842760703+843841357+846015470
2467+847257919+846609426+844422133+842454750+843092575+845789348+848095946
2453+849054345+848806948+847444189+845612680+845308673+846757350+847137860
2440+846058021+845906959+846922344+847761501+848242677+848405162+847675960
2426+846846343+847360342+848802931+849734972+849836830+849942768+849820136
2413+848585218+846696661+845333463+845783637+847991263+850027807+850252988
2399+848474009+846387948+846428553+848479594+849543179+848869707+848949976
2386+850007159+850344554+849925258+849307517+847610125+843646427+838787967
2372+835046249+831894218+829545195+828415274+824680271+818792682+817144744
2359+818885001+820467606+823500456+828130095+832398239+835585101+837575831
2345+838001528+836623394+834280081+832673879+832164586+831803343+832154733
2332+833609120+835291199+837006917+838457664+838986349+839212472+840996284
2318+844626729+847816227+848615280+848035446+848807261+851643988+854583390
2305+855385016+854436156+854685750+856664870+857837028+857530699+857361311
2291+858266177+859647763+860387195+860397299+860363911+860370125+860392592
2278+860987677+861763259+861087904+859542076+859758220+861368753+861914823
2264+861217377+860664592+861485862+863649306+865461045+866195958+866481890
2251+865943603+864321334+862602101+861644706+861389652+861143572+861295073
2237+862012916+862554969+864284368+866812444+867036872+865433557+863704722
2224+862307509+862570973+864091258+864721111+865317201+867091849+867762371
2210+866648266+865697084+865636019+866386245+867181470+867135718+866393776
2197+865907014+866817904+868319487+868621172+868558475+869633482+870690602
2183+870069911+868740854+868749829+869588420+869765716+869827283+870799803
2170+872804842+873898864+872398161+870501758+870277582+871322087+871859057
2156+870739115+870273063+871922883+873537998+873412604+872044637+871185397
2143+871681322+872761224+873441850+872706937+871424322+871617935+872051352
2129+871607956+871954326+872860321+873069310+873117572+873498648+873864410
2116+874310629+874889962+874399057+872934189+872412846+873159433+874225590
2102+874940232+874866490+874444495+874300839+874269773+873965138+872977493
2089+872019784+872194255+872481819+872342932+872867476+873623037+873658684
2075+873968151+875385071+876531749+876782284+877026921+877116039+877073551
2062+877428707+877729450+877216517+875989507+875289237+875747821+876830170
2048+877693175+877350885+876341274+876045363+876901841+879130492+881194023
2035+880814391+879438264+879985087+881941362+882273924+880470532+879280173
2021+879556064+879595790+878931419+878937883+880107656+880797508+880752008
2008+881525141+882060919+881161137+880290349+880519170+881748942+882881310
1994+883309643+883421920+882367059+880709206+880863029+882759494+884140830
1981+884281160+884399147+884165682+882543351+881431944+882470236+883996357
1967+884379127+883657896+882378670+881830466+883028418+885402420+888250193
1954+890483738+889994905+887319344+885115546+883605742+881888519+881014593
1940+882363608+884881391+886803148+887691257+887981394+888384309+889119725
1927+889136168+887274785+885173662+885628166+887233678+888445500+890042979
1913+891155704+891024913+890296778+889923046+890204208+891048699+892600991
1900+893640162+892876631+890950606+889570651+889668682+890465601+891306075
1886+891484689+890672268+890336881+891283608+892772011+893994188+894597557
1873+894509882+892494112+888417823+886897978+889410866+892548273+894742657
1859+896509587+898263023+898739932+896860600+894030965+892101991+891101856
1846+890240169+890447903+892334389+893569871+893559579+894352670+896990763
1832+898607635+896578622+893715975+892500199+892170963+893125974+895164463
1819+897721283+899331753+898445465+896223215+894977064+896495968+899577206
1805+901233992+900831830+899184080+897662540+897788248+897674904+894348465
1792+890928138+893804717+899349703+901594043+899734669+896927502+895757729
1778+896427309+896810769+895388201+892926399+892306210+894190500+896751462
1765+898519458+899074377+899775777+900988666+902010201+903521511+903445949
1751+898961849+893877518+893466381+895437216+898103551+899868974+898295218
1738+896557598+895575287+891399838+889124306+893024555+899057495+903204953
1724+903830853+902448701+899419491+892551223+885951816+889007134+895969416
1711+900003405+900390380+898147859+895975755+896565756+895254461+888923099
1697+885477292+887415743+892508170+896433522+897170255+896968484+894611490
1684+887760104+887263677+892367149+895690262+894027074+890805255+890192221
1670+889755164+891204405+894246418+894360703+893568365+895069822+894601825
1657+890197179+882226353+873794433+874729109+875633096+873740711+876935480
1643+882495967+884840158+883892239+878446916+870801874+873136902+879706373
1630+881923413+881784526+882935974+883369202+884386721+887041822+886920947
1616+886644053+893042316+900093026+902984165+903174452+904182619+906237113
1603+907163442+907467323+908837362+911129776+913535283+915085567+915775544
1589+916586898+917791880+919430654+921488725+922079919+919363690+914309484
1576+912475401+916709907+918746012+916354500+916043276+917892232+917979154
1562+916380985+909154987+898786499+903167046+910307251+916662398+923588656
1549+928464626+929106843+925395312+918998556+912436616+912610585+919791333
1535+925060679+926365259+926788258+927771510+927845127+927142347+925073105
1522+921389377+921846328+926070102+930523386+934958534+935976304+930082690
1508+917497977+913042998+926100101+937417135+943041825+942554247+938688892
1495+938277379+938360598+933976474+929696217+933238548+938954428+942017528
1481+944109426+945905225+943519299+934069170+923152917+922330768+928038991
1468+929501600+925871217+925022082+929407963+930078547+920127535+911867827
1454+919133175+927899226+931264199+930445251+929496642+930931386+933547890
1441+935324923+935663008+936137846+940245578+944488618+944094803+942483015
1427+942406448+940153886+938116401+939693483+939811157+938501367+939970691
1414+940268234+938884827+937935089+935304715+930330840+927257322+927125527
1400+926287061+924046863+921918376+920555366+921393017+922117198+917808950
1387+910464840+908331081+911479409+915018665+916167163+914995068+912935616
1373+912227062+914247979+917086966+919191290+919624707+917053640+915563166
1360+919200390+922687619+921914485+919808403+920127975+920922258+919605126
1346+917974384+917483040+916916511+914321031+911618233+913179751+917301415
1333+920104691+919941328+917923549+918277450+922375328+925603799+925675094
1319+925066955+925437863+928640038+934025426+937109174+937165658+936908783
1306+938890601+943608982+948394264+951069197+951513660+951266827+953070219
1292+958071018+963872187+967128837+968144223+969428846+970875576+971397170
1279+972173379+973259117+973563815+974092626+975161168+976174921+976651705
1265+975634625+974669761+975713577+977577407+979378101+981057606+981461400
1252+980028477+978232239+978328135+980537079+983897534+988056728+991180203
1238+991782191+991172860+990958913+991525066+991239197+989211753+987960769
1225+988826159+990456021+991865661+993569267+996238928+997887430+997766242
1211+998323483+998625168+997635765+997792287+999406146+1001419469+1003464737
1198+1004305462+1004085428+1005196019+1007345090+1008004316+1008057724
1186+1009457322+1010866837+1010611845+1009901659+1009898835+1009450419
1175+1007357517+1005001213+1006755214+1012568622+1015627894+1015084334
1163+1016378748+1018848834+1018228771+1015832239+1015617790+1017508543
1151+1018626226+1017318006+1015986125+1017598352+1018911092+1016822018
1140+1016251597+1019742591+1022855334+1024895581+1029149668+1034563862
1128+1034850485+1026278925+1016331176+1013437652+1015181423+1015819310
1117+1015669943+1016561315+1017195688+1018516837+1022288679+1025090198
1105+1025235863+1025487591+1026522432+1028481217+1032394770+1036217825
1094+1036317863+1031273384+1024870603+1026219366+1036471059+1043363992
1082+1041355313+1039909775+1043623439+1045420305+1042317227+1039416674
1070+1038180626+1039236429+1044778778+1050960960+1052325413+1050381502
1059+1048957490+1049197545+1052052284+1057173831+1059851526+1056983921
1047+1052502771+1049843277+1048713419+1048749631+1048101138+1046743902
1036+1047204556+1047602702+1046198710+1044778966+1044177982+1045987713
1024+1050605741+1054418566+1055863038+1056717194+1058504081+1061545027
1013+1062022501+1056393480+1051095893+1052300623+1055365355+1056160015
1001+1057143832+1057178350+1052237864+1045759206+1044016878+1046565477
989+1049687131+1050783602+1048419956+1043587415+1039313309+1038492917
978+1041311758+1045258009+1047094790+1046092333+1046222120+1049386765
966+1050415016+1045911586+1041580870+1043014296+1047533227+1049591737
955+1049040019+1048537316+1046560017+1043047559+1042924676+1046453074
943+1049134409+1048652228+1046293854+1045855165+1048515099+1052077513
932+1055811575+1058239738+1057176969+1055308495+1057505578+1062678839
920+1064447526+1063632406+1066569171+1071868202+1073741823+1071201572
908+1068409780+1067233417+1064485683+1059945791+1057745444+1058775452
897+1060194443+1061981707+1065930280+1070479085+1073005404+1070422350
885+1060500082+1049538266+1047466577+1054277232+1062210653+1067526127
874+1068772781+1062934646+1054216481+1050694483+1049547052+1044931221
862+1041912115+1042025019+1038526807+1033335534+1030641146+1027834292
851+1027222325+1030391677+1030088172+1025789527+1026404444+1034789231
839+1041516165+1037492532+1027881362+1019205747+1012643431+1010748786
827+1011619134+1011249920+1011912095+1011501272+1006593358+1000991450+996458209
814+995138818+999510641+1003870037+1001560113+994695861+990018274+989700649
800+990338536+990532651+991306977+991994946+993270657+992962383+984936014
787+973839140+970020793+973559421+974682439+967788439+961385595+961836396
773+962257449+956068113+947952751+943699669+941921757+941353658+941476102
760+938844912+933458206+928402996+925258936+923930569+922721195+920717411
746+920408760+923865613+926521656+923536691+918548131+916387512+917107864
733+917700188+915613374+913807722+915985286+919618619+920495557+918734903
719+916005432+911593882+906718917+906330624+912060875+917045795+913927153
706+908924472+910553456+912557428+906488150+897091681+892937445+894269263
692+895169547+892905312+891255115+893395024+894345955+890047560+888586144
679+895618403+902888268+904307134+901795878+893388622+881897117+878607015
665+882339571+884586108+884629977+884340656+885362379+887116569+890195924
652+893315131+891296913+884538724+879162374+875095624+872467510+877470944
638+888477507+881699299+839386127+809639530+841829603+915141172+938239284
625+889123741+834699377+800519265+785307442+794654332+840210284+896368001
611+906775463+889674518+881988683+880315892+887273028+896058911+886940466
##END=
