##TITLE=Sample description
##JCAMP-DX=4.24
##DATA TYPE=INFRARED SPECTRUM
##DATE=25/8/2023
##SAMPLING PROCEDURE=Instrument type and / or accessory
##ORIGIN=Default
##XUNITS=1/CM
##YUNITS=ABSORBANCE
##RESOLUTION=4
##FIRSTX=4397.6552
##LASTX=599.8556
##DELTAX=-1.9287962
##MAXY=2.0097458
##MINY=1.2045006
##XFACTOR=1
##YFACTOR=1.8717217e-009
##NPOINTS=1970
##FIRSTY=1.2844545
##XYDATA=(X++(Y..Y))
4398+686242237+682598043+681392971+681515446+681526528+682113110+683627713
4384+683764519+681274381+681098980+684714004+686748060+687637295+690603831
4371+692048504+690124822+687704551+684143663+679664307+677667955+677599425
4357+678375674+680871799+682061458+680447435+679988933+680202293+678311029
4344+676896992+677867049+679497504+680888549+682939165+685753610+687284518
4330+686262490+684148058+682459327+680923833+679781432+681045735+684727188
4317+687804289+688499717+687444698+687143700+689689949+691245122+687516794
4303+682342074+680642643+682127886+684260597+685276638+684942841+683956352
4290+682964513+683046928+684730882+686087853+686013910+686324843+687136886
4276+686529605+685716543+687124530+689101584+689011654+687056828+685093212
4263+683353338+680611627+679027538+681696962+686666920+689515184+689965152
4249+689963687+687998606+684537711+683775983+685835770+687942878+689023755
4236+688853831+688261899+687436673+684902271+683477215+686397194+690282836
4222+692642155+693878689+693324908+691892655+691043035+691493831+692546557
4209+691670442+689304626+688699957+691275311+695205727+697112658+696364751
4195+694364068+691285311+688260435+687360564+689214505+692125950+693491329
4182+693084034+691579620+689447992+688458446+689063179+690031835+690320604
4168+689647659+690270416+693217846+695063826+694908933+695635441+697455500
4155+698295439+697085399+694273820+691660379+690568738+689530151+687537048
4141+686164982+685671132+685847170+687568192+690293344+692468155+693378280
4128+693780352+694249490+693992184+693697238+694796521+695278970+693808249
4114+693454644+694346808+693227272+691147805+690834006+691771900+692788896
4101+694271463+697274112+700819587+701046258+698250219+697802672+699915449
4087+699883349+697283601+695977454+696809496+697943362+700032319+701974599
4074+700496680+697530908+695909816+695373231+696311124+697669051+697360921
4060+697630392+699148434+697899990+695406859+695941852+697397287+698087938
4047+699727946+700950915+700279180+699620247+700768508+703071271+703280236
4033+700889072+699389181+699889145+701374770+702502140+701663921+699820678
4020+698739356+697674337+696349211+696849748+699433636+702699642+705676496
4006+705686431+702832434+701156187+700523175+699093852+698353142+698784703
3993+699755269+701383813+702919562+703742814+703541236+702497809+702162610
3979+703509392+705499693+705533703+703424748+702467556+703217375+703531046
3966+703707403+703711543+701821107+700447767+702086055+704463717+705880748
3952+706525797+707550054+710064012+711359968+709209488+706795586+706272185
3939+705062273+704041137+705203791+705077112+702752822+702817404+704383723
3925+704059415+703169607+703274377+702523221+700621831+700499737+703922164
3912+707918371+707914932+704186986+699988437+698297413+699898444+702060006
3898+704568105+706914686+706411984+702248719+699204354+701109438+703863188
3885+704872987+706327022+706717949+706089650+705774195+703782875+701124979
3871+698352568+696616771+699498281+703056240+704196794+706117546+709480041
3858+712518993+712535743+703804912+697436648+701496162+706097611+707735582
3844+706853926+703923183+700113842+698311489+699188814+699744187+699621712
3831+701229302+705196594+709505708+712832282+712134371+704926295+700820733
3817+700452607+700045821+704226664+710060126+711289273+708898555+709828296
3804+711041202+705661783+700354334+700945247+705667133+712128957+715758885
3790+715658383+714119641+712089215+711174632+712279583+713235629+715033651
3777+718323731+719231117+717404243+714749786+711896490+710624353+711680009
3763+712638474+710948852+707941236+707188742+708178161+708556796+706082708
3750+706306386+713175505+715023970+707902067+705931955+708436168+706143978
3736+696168077+691445554+700032701+711434995+718882862+721524263+720207607
3723+717165089+716362281+719711528+723293816+722714877+716462783+709642959
3709+710927579+715840089+717815487+715359933+712639493+715442984+720532488
3696+721836660+718949163+714896909+712386837+714088751+717589644+719502180
3682+720160795+721137921+721184861+715138038+707299371+706067932+705769610
3669+706197222+710178717+714208424+716241971+715610615+712461990+708407699
3655+706616555+708793530+709942555+702126944+696023438+699177031+702219867
3642+702418961+702532010+703469331+702506152+698536823+694746015+690382128
3628+684989016+685916910+689362265+691144174+690742802+686699720+682162852
3615+679123136+677416572+677720881+676578607+673962619+673709134+673900840
3601+672678444+671234027+669427024+667810390+667890639+667791793+665456739
3588+661892476+660774786+662753050+664974800+664861496+662961570+661671027
3574+661132340+660865098+660422200+657140018+652252984+652098919+654027632
3561+653495633+651186119+649625722+649653491+650315927+651698693+654622939
3547+656248235+654034638+651767669+652303554+653163746+651794355+649649924
3534+648900106+648931633+649430705+651078101+651911225+649177029+644949756
3520+643525464+645407239+647984886+648783809+647861710+647000244+647039222
3507+647941068+648889661+648465297+647518678+647254493+646389524+644900142
3493+645193560+647088009+647431742+645886949+645341575+646515248+647074570
3480+645860836+645654291+648121437+649750236+648445426+647709747+648741010
3466+648627515+646888023+645229608+644395592+644890397+646386340+647086671
3453+646771471+646873884+647227935+648081885+650430505+652780653+653731730
3439+653677530+653282336+652365906+650859900+650354141+650777295+650626223
3426+650688575+651939504+653764912+654929987+655467464+656133467+656502293
3412+657107600+659025295+661184565+661810125+660793320+659189996+657921235
3399+657897670+659223497+661519254+664983207+668822355+671636036+672565714
3385+671805132+671598141+673759767+676406263+676611280+675777391+677677954
3372+682898403+687950330+689635494+689465061+690063616+692702405+698204681
3358+704183610+707223708+707361724+707079324+708841361+712334293+715659784
3345+719379960+724014910+728550568+732041334+731401762+727394474+727274737
3331+732728099+738824408+743366945+747103425+748803238+747200998+743447512
3318+740568486+742547196+747980050+750500886+749046851+747789363+748203218
3304+748142713+748316777+750514324+752022113+751668126+750030920+746595819
3291+745091215+748013041+749345046+744471897+738865807+738495961+741151564
3277+741755915+739218138+734569431+729843595+728380007+730139306+731974269
3264+732001910+730486224+729979636+731534428+732497352+732042034+732173808
3250+732966235+732752875+732174318+733061897+734690377+735021118+733105588
3237+730635576+729016649+726620199+724426600+724480035+726100618+728995568
3223+730579848+728959137+727552169+727024118+725215332+723825624+724961975
3210+725921778+723454887+719784325+718967951+721014682+722348470+721248805
3196+719875401+720525673+723096824+723950456+720736613+718309273+721214413
3183+726239971+728183970+727110290+725067572+722745384+722123582+724459336
3169+728310458+731317819+730605514+727180285+725749752+727091757+728585088
3156+728614067+728615659+731047775+733902664+733741147+731795747+731520353
3142+734505996+738210695+738565319+735920798+733672044+732982348+732875031
3129+733376269+734514339+735331732+735697693+735056083+733169405+732267368
3115+734214170+738366544+742709541+744882950+743459741+740305129+739059423
3102+740246789+741929916+743376307+744472916+745617546+747700389+749532740
3088+749781957+748707768+745859439+742412174+741704836+743478402+743779017
3075+741616499+740300671+742522102+747397990+750993780+749992197+746090569
3061+743693291+743814556+744775505+746111778+747654914+748576758+748278308
3047+747651411+747767135+747680645+748076794+749202127+748641339+747720578
3034+747386717+745097839+743199569+745811991+750728640+752798490+751061100
3020+749964046+752208151+754293604+754065786+753706704+753859177+753614482
3007+752750022+751458842+749985318+750563875+754933112+758552595+757928245
2993+756378803+755953611+756520003+758109187+758983774+758656281+759227195
2980+761634218+765489352+768938338+769627842+768235395+766404445+764835260
2966+764454268+765597370+767287821+768488880+769256977+769489699+769194370
2953+768928275+768212467+767387176+767579455+768141644+768920250+770333077
2939+770979591+770829984+772058876+774420424+775061779+773582459+773018742
2926+774507615+776141509+776523456+774974779+771843987+768977507+767651106
2912+768133237+769271307+769025083+769082913+772247461+775084771+773646022
2899+771191359+771468600+773017787+773118480+771389688+769991764+770928703
2885+772091485+771424781+771065126+772412608+775482895+779528461+780668569
2872+777609492+775241129+776212778+777473260+776951323+776182716+776443016
2858+777408742+778377079+778529871+777374604+776005022+775606198+775273865
2845+774593915+775015285+776033492+775641546+774683653+775505823+778156459
2831+780300061+780579595+780334453+780141537+779276250+779104288+780923200
2818+782764213+783285895+783941516+784812982+784544403+783631857+783433528
2804+783660836+783399135+783336019+784505106+786235809+787419162+788116118
2791+788182928+787172811+786187532+786414776+787318851+787833527+787776143
2777+787702263+787943137+788290564+788987265+790235900+790705102+790225392
2764+790357038+791062082+791644206+792088186+792675405+793607312+794609659
2750+795330754+795806897+796873572+798339771+798668537+797860888+797465694
2737+798447534+799783615+800540376+801277774+801121926+799302631+798061957
2723+798588797+799232700+800027292+802124210+803592256+802517111+800636611
2710+799672477+799332119+800105885+802133763+803096114+802835878+803794088
2696+805260224+805493073+804486586+801789329+799245056+799896855+802326106
2683+803882044+804725486+805694205+807168939+808478398+808596988+808656474
2669+809434443+809342794+808499543+808661315+809300950+809055108+808923461
2656+810157894+810858608+809254711+807547065+807659859+808664308+810030133
2642+811399906+811571040+810912107+810770589+811250617+811644793+811889679
2629+813098636+815140845+815817101+815131864+815075308+815595716+815708065
2615+814838956+813515294+813363267+813924563+813659423+813018132+813861129
2602+816358209+817215790+815518397+814908951+816665002+818617408+818991903
2588+818386724+818584799+819115079+818271509+816662645+816440050+818127762
2575+820107045+820858009+820080677+819086737+819248445+819940687+820998190
2561+822814046+824167005+823616089+821343388+819591987+820213534+822299179
2548+823150009+821892266+820971886+821484333+822470313+823529790+823675767
2534+822999319+822799270+822485853+822000856+822912255+825068532+826942600
2521+827928897+828415104+828895388+829336120+828893350+827245762+826338440
2507+827479949+829342171+830514188+830405851+830087340+830911802+831877019
2494+832371314+832424750+831618884+831340624+831835429+830769519+828912266
2480+828560062+828754443+828651902+828558597+827927751+827139082+827314229
2467+828854308+830867984+831867593+832340424+832993880+832467804+830646535
2453+829486173+829848185+830881804+831867210+833225583+834800564+835428481
2440+835223973+834771522+834079215+833749749+833938589+834087431+834110360
2426+833871396+833555304+833983044+835260085+836631833+836647883+834901958
2413+834748212+838294769+841244619+840123618+838172358+838217450+838925934
2399+839271195+838871798+837617940+837411840+838274644+838302922+838204840
2386+838555642+838014280+835995000+833557279+832399783+831533413+828782593
2372+825391120+821868000+818644157+818911399+819036231+814379371+810535510
2359+810276866+811572186+815505532+821053409+825249347+827496317+827427978
2345+824737282+821601522+820926094+822445283+824011857+824679133+824157197
2332+823086637+823318595+824272029+824636207+825703072+828278490+830817223
2318+832000577+832748038+834585357+837115046+838970262+840365957+841947371
2305+843452930+844485721+844711246+844725959+845187900+845808555+846545890
2291+847362455+848302323+849209009+849855650+850288039+849613884+848572750
2278+849040359+849773363+849432305+849561468+850885130+851380126+850492228
2264+850612920+851951740+852151662+851176000+850803034+851018114+850793353
2251+850393254+850102702+849455870+849671205+851649851+852921606+852305600
2237+851896903+852794354+853843004+853681806+852862884+852490109+852377633
2224+852266813+852714169+854225397+856014057+857219065+857774566+857360137
2210+856024438+854726443+854469137+854737079+854566901+854685427+855203606
2197+855015594+854547093+855103040+856746424+858548777+859723023+859924092
2183+858884358+857315300+857475097+859158733+859311461+858363568+858573744
2170+859035302+859008744+859125997+858990592+858764112+859114405+859939504
2156+861169224+862190360+862647907+862801526+862189469+861382330+861407551
2143+861720267+862118709+862812035+863018262+862666313+862884131+863904567
2129+864701707+864447266+863730185+864065383+865459486+865865189+864488919
2116+863170862+863495043+865004487+865777234+864561908+862367545+861086173
2102+861989101+864240912+865350640+864904622+863878263+862864706+863418679
2089+865540053+866815693+867062873+867602133+867340369+865564638+864258236
2075+864370584+865454136+867068350+867523922+866530873+866423492+867508573
2062+867706138+866784995+866204846+866407697+866883204+866749201+865812072
2048+865184920+864866281+864126525+863885524+865004169+866587047+868015479
2035+869470405+870413840+870502814+869672811+867910964+866448522+866438268
2021+867787979+869535623+870192773+869590651+869752232+871175759+871550190
2008+870442309+870082781+870965838+871502869+871751195+873009766+873585584
1994+872074611+871203655+872126645+872663613+872810800+873648382+874285915
1981+874154906+873795569+873405342+873166060+873005180+872400829+870929726
1967+869762295+871517964+875039364+876522186+875911020+875553722+875978340
1954+876362453+876547662+876828215+876639757+875215084+872932956+872322746
1940+874815813+877053549+876907700+876320800+876911012+878101626+878710881
1927+878419437+877656754+877233218+877064886+876231762+876546006+879073721
1913+881066761+881247385+880519858+880711628+882158019+882466277+881537619
1900+881699645+882609069+882439782+881332219+880408274+880185997+881185924
1886+882829245+883789812+883964704+884167109+884871135+885526947+885391925
1873+884547910+883092028+880898366+879449936+880441265+883146674+885972074
1859+887479608+887494638+887648003+888709646+889072295+887173834+883613519
1846+880474129+880428081+884011006+887547055+888767349+888677483+888838745
1832+888358143+886268931+884908202+885673178+886835514+887295608+886819465
1819+886520760+888096187+890295454+890277749+888225732+887467570+889117387
1805+890410414+889230882+887030978+887006521+888441703+887879515+884599817
1792+882890387+886937991+891780315+893076208+892160160+890941395+889694224
1778+889533280+889863766+888032943+883627339+882217060+885352692+889463540
1765+892670314+893196327+891625549+890943242+891010498+891693824+891804644
1751+888145865+883250743+884035654+888302287+890611482+889363356+887303824
1738+887570684+887339363+883303478+881743655+885779795+891602557+895185927
1724+895061733+894772645+894684881+889704605+882648175+884334295+889790013
1711+892951121+892965961+890047829+886624319+884988769+880732072+873809963
1697+873236374+878717186+885058382+888564752+889497105+888530614+882084076
1684+872932383+875626264+882636966+886637567+887462794+886261734+883157055
1670+878125064+878191301+883822039+885594394+882175279+881111344+882756638
1657+881540994+873951163+863667387+865602597+868574929+866074792+866545458
1643+871747883+874725565+872846147+865569542+859429669+864713043+871794886
1630+874467113+874759703+874852944+874396544+876116229+880221217+881863136
1616+881879759+885480772+889348326+891069475+893472676+897489964+899988445
1603+901239565+903884659+907064620+908840987+909716338+910837658+911543658
1589+911633269+912792930+914885517+915910156+915514516+914135762+910908608
1576+908451525+911413985+913796997+912067505+912289463+916361270+919105975
1562+917529019+905946994+890637914+900591268+914351989+919607786+920521668
1549+922143016+922452165+917852754+910556786+904142475+905957311+915215620
1535+920821456+921659611+922859970+924067972+922713484+920590899+918187252
1522+914205057+912662939+915025061+919533014+922808063+922077288+919118649
1508+914537517+916318661+931881354+944675202+949377218+947505061+945058805
1495+945379355+944119446+938425974+932265975+933417357+939031472+943829977
1481+946332470+945329167+938939695+927910814+918680210+920946224+929928948
1468+935150734+934941259+933938147+935217290+932144647+918810073+911841024
1454+921588279+931776393+936686610+935289641+933054772+934649942+935638151
1441+934060176+931977079+931013837+934930941+941283538+943298359+941628544
1427+943404212+948160936+950544521+949571280+944749018+939295083+940841659
1414+944930279+944463816+941092086+938983895+935371355+930870344+929183651
1400+925702885+920291812+920363718+923992754+924873455+923086259+918766637
1387+912032794+908153203+910387499+916612525+921061948+918730779+913820753
1373+915342618+921282760+922673678+919541803+917408773+916603864+915617056
1360+915514898+915923276+915957159+916723027+918098787+918109296+917368203
1346+917069944+916415788+915404396+915215175+916632842+919707524+922968625
1333+922808891+920176152+921018193+923978742+922560438+917952874+916445977
1319+919826050+924748750+928186144+930210583+931976761+933633328+935434280
1306+937371019+938663728+941513648+947986299+954842554+958691828+960695632
1292+963024380+966206060+969700392+972267404+972388414+969884073+967660286
1279+968536783+971975450+975976306+978319767+979035575+980130782+980205108
1265+977731848+975254639+974836835+976675491+979801570+981729074+982135477
1252+983123113+984353597+984354807+984235771+985479948+987956392+990687468
1238+992436195+992213854+989898099+987101677+985815911+987047669+991119093
1225+996176369+999106475+998091453+994616355+993846793+997109486+1000336704
1211+1002086450+1003626593+1005889677+1008271861+1008193331+1006379641
1200+1005511934+1005323603+1005665235+1006946225+1008142189+1007705596
1188+1006378495+1006193413+1005566707+1004065223+1004046308+1004366858
1177+1004216168+1006023998+1010444251+1014856351+1016264784+1014249389
1165+1011637604+1011575634+1013026866+1012695680+1012016430+1014395302
1153+1017095233+1016835762+1017015940+1020387733+1023558522+1022624131
1142+1019972731+1019245905+1019847518+1020991575+1021567648+1020573452
1130+1020647268+1022878763+1024474761+1024857536+1024673919+1022751893
1119+1019728100+1017065363+1016942442+1022262247+1028114306+1027538743
1107+1025733715+1027540399+1027048651+1022442934+1021190732+1026881657
1096+1033572827+1035324101+1035044886+1035779865+1035385435+1031660737
1084+1026381184+1024436420+1026509773+1030691762+1037192182+1043105893
1072+1044707433+1044841054+1046497494+1047070956+1045694495+1044695905
1061+1045759905+1049945970+1052922124+1050298238+1048098334+1051287083
1049+1053242737+1048072476+1043170984+1048014900+1058829211+1062891591
1038+1058281607+1054389151+1054308138+1056838273+1061439213+1062260745
1026+1057480264+1055627660+1057777695+1056796874+1053347379+1051374911
1015+1050116531+1048423533+1047434178+1049381935+1052337325+1052391907
1003+1051544071+1052581703+1054330493+1054422524+1051583813+1047822239
991+1045151605+1043503763+1044165498+1046610544+1046622326+1043302758
980+1040534679+1041068016+1043397146+1044862963+1044786090+1044518084
968+1046781996+1050969463+1054188911+1057402117+1061208783+1063401809
957+1061900899+1055659568+1049232328+1049705223+1054453732+1055042225
945+1052707553+1054155219+1059524638+1062637215+1060665957+1059010408
934+1060497816+1062715298+1064690251+1065079522+1062152409+1057821704
922+1055954133+1057483895+1059779460+1061694162+1064375242+1065926276
910+1063825090+1059554445+1054870772+1051762399+1053354385+1060272864
899+1069075665+1073741823+1069658043+1061064144+1058612921+1061646013
887+1060097527+1053228535+1046019249+1042941765+1045386747+1048337425
876+1048242909+1044903916+1040881150+1041523142+1044510823+1041451364
864+1034033431+1029780555+1029158498+1030697686+1033858921+1035552429
853+1035320344+1035053293+1032931664+1028509628+1024778625+1022729984
841+1021928195+1022737244+1023350958+1018588947+1008968243+999498230+991421555
827+989402275+994913340+998605747+999379385+1004068472+1008155054+1003666717
814+995196058+991154377+989900774+984500338+978821896+980433372+982181270
800+977365632+972978180+973173070+973116004+970203668+971399696+976251000
787+973078428+963323021+957480069+957807179+959839134+957993790+952921419
773+951593171+953986055+951531838+943856408+939684482+941389836+944081997
760+944978429+942734260+936130663+927028203+917944340+913176405+913865909
746+914347976+913715984+916254972+920252643+921681457+921502807+918841599
733+913486192+911420673+913031575+913565422+911816886+908367964+904725299
719+902193635+901648134+903367181+904847710+904687722+903424119+899193216
706+892999908+891008524+894085880+894910979+891698983+893819721+900517706
692+898370282+890035218+887715705+892056091+898076609+898904830+889821540
679+876767519+870666306+876205267+886548083+890104895+880715322+868281065
665+871439689+881404252+883275136+871758010+856365687+852586917+861755551
652+869556068+867196494+866275541+881871416+904320679+908534704+891396521
638+868917197+858648133+870415814+894481838+901986007+872736219+828118310
625+803046372+805960237+813794446+817247507+838241652+849989972+817848865
611+806267985+844831811+875647664+854211258+836722845+854664027+853369217
##END=
