##TITLE=Sample description
##JCAMP-DX=4.24
##DATA TYPE=INFRARED SPECTRUM
##DATE=25/8/2023
##SAMPLING PROCEDURE=Instrument type and / or accessory
##ORIGIN=Default
##XUNITS=1/CM
##YUNITS=ABSORBANCE
##RESOLUTION=4
##FIRSTX=4397.6552
##LASTX=599.8556
##DELTAX=-1.9287962
##MAXY=2.0180306
##MINY=1.2427787
##XFACTOR=1
##YFACTOR=1.8794375e-009
##NPOINTS=1970
##FIRSTY=1.3227669
##XYDATA=(X++(Y..Y))
4398+703809998+701277691+702677424+706636674+705537464+699347191+694713319
4384+695066868+699064238+702477752+702441852+701370487+702498684+705071584
4371+705801452+703425116+701064256+700799443+702126995+705562645+708084105
4357+705390184+701499056+700570150+700197192+697761170+693638592+691766129
4344+694714334+700861476+707594313+710846973+709672157+707765823+706146882
4330+703114444+699679428+700854499+706749894+710495264+709767870+707100017
4317+704310636+703377164+704708394+706759535+707296898+706191662+706373321
4303+706568553+703864292+700908032+700246730+701614876+703569351+705007331
4290+706140285+706394950+706268093+707589175+708873913+706574705+702971477
4276+703069601+705033400+705292441+704913965+706682977+711785774+716504132
4263+715684830+710763565+707349988+707186533+708557787+710751514+712238460
4249+710972815+708605295+707605349+708384691+710486447+711875398+712091497
4236+713647708+715950975+716008948+714851321+715646900+716567814+714418487
4222+711614391+710216561+709941155+710658147+710290898+709098195+709875317
4209+710649965+708200052+706307165+709957139+715528670+717789504+717130676
4195+712747028+705592393+702051769+704794276+709484092+711719935+712825235
4182+715399784+717654212+716767866+715180005+716325201+717378236+716484596
4168+716803767+718749109+719388909+717206536+713622463+710133660+708045985
4155+708464104+709714019+710972307+713857338+717128075+716810807+713691029
4141+713062836+715471014+716706531+715321070+713827336+713412262+712155052
4128+710224235+710214975+711098846+709650337+706949883+706636357+710250875
4114+715976917+719739476+719210549+715134654+711515252+712336711+714981856
4101+714865973+713012792+712717343+715131546+718727924+720053826+717998500
4087+715565332+714584542+715429786+717833206+718005033+715332170+714528598
4074+715716798+716433600+716874679+716315116+714843075+715193135+717853566
4060+720317814+720391581+717837012+715272230+715780543+718041124+719257422
4047+719910288+720171359+718502246+715267156+713745450+716401061+719850095
4033+719801509+718714287+719155430+719592006+720105140+721106163+721177901
4020+720204151+718251705+715035453+713405729+715243307+716369220+715855769
4006+718380591+722350370+723134660+721581367+719700405+718477763+719284823
3993+719647125+716788481+714853033+716137707+717647044+718927786+721684692
3979+725075752+726018612+724483777+722414686+719878955+717529258+716308456
3966+716397826+717321848+718521148+720199331+722272290+724971984+726780257
3952+725292232+723079350+723624515+723427761+719018679+715547572+717777580
3939+721958765+724883501+725834480+722739122+719180420+721530751+724635307
3925+722084543+719055150+720000293+721695665+722705695+723670184+724588370
3912+725253541+724492593+722797602+721825312+721131471+719664885+717492914
3898+717565666+720728004+722065832+719826183+720585228+724608667+724330788
3885+721438527+722366354+723469687+723517195+724470013+723612528+720269038
3871+716913688+717130993+721511089+723183499+720958439+722106045+725437356
3858+726352308+723061590+715829066+716302684+722633831+726785712+728144915
3844+726858908+723716296+719592069+716935063+719167037+721151388+720199140
3831+721285982+724303578+725680413+727283116+727350540+722010712+720517994
3817+723987388+725777648+727045768+730003614+733141406+732450419+728779577
3804+726200017+723511042+722976597+724300089+724464749+726097136+729766836
3790+732144505+732737241+732985245+733239910+733861189+734101455+734041134
3777+734353962+733500663+731330278+728674476+727471688+728237647+727799992
3763+726985955+727218546+727474479+728150560+727998586+724235963+716872269
3750+715992964+724599914+731424405+729828362+728082882+730455920+731083605
3736+725555713+722792465+727450249+731275539+731862250+731015737+731547900
3723+733887892+736168896+737818536+739350009+740090089+736783388+730940892
3709+730976729+734928368+737950340+738501530+737475136+737879110+739864856
3696+740605570+738375055+733542906+728136352+728395900+733485123+737716987
3682+738968489+736773937+732972560+729304445+729094117+731776685+730790821
3669+728635151+730804014+733886560+735870466+737453634+737948120+733731034
3655+727551544+724828636+718947956+706256803+702782461+709710213+718189799
3642+723429030+722539259+719038785+716636316+715147467+713942649+708824502
3628+700381895+700072049+704171792+706666486+706022626+702550187+699973798
3615+699318205+698534042+695841770+691003278+688387247+689350087+689776895
3601+689924682+690950823+691017994+691418543+692279707+690142114+684262005
3588+678277620+677619870+680027731+682553314+684922990+685438534+683408579
3574+680285186+677226298+673648696+668357644+664823680+666369742+669497956
3561+672285941+673735783+673271044+672077833+670517754+668746586+667864236
3547+667758882+667759326+668614148+670297214+670860774+669020595+666275234
3534+665656429+666773272+666534021+665043522+664472098+665153189+666809743
3520+668306711+668319651+667148449+665698481+664962017+665090142+664852413
3507+664223649+663933148+664255364+665307954+666375577+667031361+666870444
3493+665129531+662908276+662351313+663618481+664867572+664538507+663017753
3480+661774434+661250327+661717158+663366227+665062424+665927965+666548990
3466+667279175+667141536+666589520+667488044+668963827+668519957+666540173
3453+665719857+665930755+665155346+664904678+667527116+671162438+671817905
3439+668792444+666384711+667272832+668650429+668037142+667087241+668137929
3426+671004565+672855843+672600418+672564772+672444131+671768177+673896319
3412+677349349+677825314+677673848+678298869+677766326+677354614+678229098
3399+680598521+684592466+687585515+688074229+687112277+685386016+685512555
3385+689104366+692869906+695022341+696048165+695199116+694464935+696572589
3372+700479448+704388590+707335272+709087158+711183967+713558972+714451723
3358+715481099+718618066+722089237+724702541+728136859+731986379+733737060
3345+734972514+738993923+744438344+746906144+745823235+745610306+748138300
3331+752117720+757657283+762788432+763087813+760472987+761375443+765698834
3318+769891436+773304697+774719145+774887356+775376832+773909738+771833353
3304+772112120+772592589+772144532+773417472+777061230+778425697+774199668
3291+768044218+763646552+761267615+760229993+759823799+759478369+758267906
3277+755969015+753988534+753948130+754905705+755956837+757622080+756926400
3264+753363767+751425084+752247558+754520316+756504857+756434324+752808199
3250+746162702+741150164+739770665+741634311+746338906+748876794+746898089
3237+745287838+746466714+747865305+747299589+746536104+747784878+748807340
3223+748247143+747928987+746165493+741296366+737106047+736884049+740198424
3210+745039326+747616159+746534265+746321400+747610895+746184839+742904461
3196+741089717+742197680+745360590+746877982+745725619+745298050+746585388
3183+746624777+745074846+744232203+744376692+745061145+746318355+748076901
3169+749231358+748437998+747727412+749719628+752411583+752313650+750680374
3156+750649168+750629759+748546714+747877991+750775009+753184201+752616646
3142+751838573+752780354+754415215+755253799+754704638+753643992+753357804
3129+753767931+754543975+754950930+754343542+755157706+757902179+759001897
3115+757909537+756106655+755005605+756757554+759825068+760950347+760843217
3102+760860596+759819169+758085233+758130838+759483000+759994484+759706203
3088+759378280+759104143+758678350+758074450+757750015+758556314+760754227
3075+762917826+763775311+763904261+764367413+765091890+764858918+763475106
3061+762191573+761354131+761743960+764513488+767110491+766670680+764548754
3047+762448077+761113865+761782588+764177319+766462002+767699866+768231267
3034+768390345+767725491+766564502+766605793+768169108+769146092+768494367
3020+768073902+768531917+768981305+769720941+770422901+770573860+771188035
3007+773157290+775908233+777058122+775259490+773979636+775732347+776825404
2993+776520442+778540122+781240640+782152039+783429038+785539484+786071139
2980+784841964+783875446+783659854+783786202+784701852+785758946+785600756
2966+785163101+785152699+784573600+783622177+783513081+785315392+787253313
2953+787167432+787179166+787647266+786642944+785543226+786550846+789049663
2939+790694926+791001601+791515433+792732810+793403499+792943835+792230839
2926+791967739+792366512+792592126+791315063+788689264+786413715+786026295
2912+787211514+788492890+788642137+787767272+787114850+787381121+787989778
2899+787629379+787096899+788712542+790861996+790100097+788271589+789400420
2885+792661707+794577365+794609206+794127532+793587695+793942575+795164392
2872+794904654+793884729+794154806+794398688+794627790+796664342+799234008
2858+799263438+796994930+795781231+796045029+795068806+793162916+792590921
2845+792738772+793163741+795437578+798338846+798601882+797156989+797210902
2831+797862564+796930043+795730996+795957371+797335602+799102077+801046848
2818+802356006+801698763+800397978+800113566+800340195+800910985+801597024
2804+802399137+803787453+804891166+805143103+805034895+805094010+805425549
2791+806220114+808055344+808839761+806435135+804337565+805425295+806832069
2777+806541504+806458350+807436856+808641548+810528663+812422755+811519664
2764+809197686+808873885+809393679+809599630+810282434+811068500+811912919
2750+812467789+812230758+811921989+812177288+813028240+812985743+811623560
2737+811742868+813928413+814793700+813399612+813166006+814692595+814942693
2723+814293759+815223426+817785543+820670384+822335817+822039544+820818298
2710+819884509+818603957+816152141+814662340+816781919+820785886+822628031
2696+822237123+822118132+822154286+821519941+820908239+820680278+820761086
2683+820790580+820389968+820352291+821684981+824076413+825539955+824556438
2669+822557562+821754752+822591687+824545591+826494993+827233804+827371063
2656+827686808+826969626+824994917+823967697+824805584+825679053+825753074
2642+826346888+827934115+829853578+830933316+829958425+828127444+827440517
2629+826950724+825792336+825900988+827827999+829534661+830580275+832642071
2615+834625851+833771093+831755409+830646557+829516775+829112230+830301254
2602+831763274+832804320+833233792+832980524+833125901+834231835+835473061
2588+836239717+836959183+837970862+838513173+838156517+837403497+836598847
2575+835822550+834872650+834074977+834709956+837180167+839458063+839365648
2561+838194764+838159434+838370270+837185051+835465259+835052722+835810816
2548+836197981+836552355+838031944+839211391+839053581+838472579+837304803
2534+836288176+837094031+838381940+838386697+838522243+839822140+840675123
2521+840786312+841538253+842409503+842553548+842603973+842207420+840729544
2507+839474237+839445504+840153743+841507808+843327435+844245431+843694240
2494+842652369+842359267+843320014+843963556+843106007+842563633+843591867
2480+844764908+844753364+844067959+843529137+843796042+844590100+844362012
2467+844077346+845562834+847753390+848648107+847513758+846407063+846667626
2453+846242657+845060610+845177952+846215954+846620372+846604896+847535450
2440+849477685+850711997+850331174+849537053+849450664+849715540+850248971
2426+851940727+853723186+853378073+851367908+850023611+851206293+853714179
2413+854278880+852639072+850788301+849910772+849768947+849425547+849232725
2399+850024943+851327567+852118517+852093653+851938888+852278990+853287371
2386+854781866+854790555+851991787+849171707+848443234+847494286+844111724
2372+839794803+836686886+833553724+828061035+821898163+818544208+818630026
2359+822235474+828763248+834810173+838595440+840783014+841236779+838907633
2345+834191558+830361384+829726976+832016479+834692767+834825649+833691998
2332+834364844+837612683+840500314+840917164+841414314+842867581+843969328
2318+846139777+849469629+851620415+852615857+852748041+851611218+851658979
2305+854605218+857431387+856953964+855344981+856561407+859511578+861036581
2291+861645365+862130210+861717800+860808684+859978726+859917518+861354357
2278+862534565+862132620+861855059+862312439+862385952+862078326+861835396
2264+861687608+861574896+861736067+863007168+864636130+864495129+862902321
2251+861997011+862451918+863242740+863376383+862648228+862078135+863306803
2237+865523617+866299915+865809361+865649205+865480740+865138291+866005164
2224+867497248+868456346+869456989+870072813+870197766+870892241+871769136
2210+872029191+871513267+870149371+868553708+867769482+867684362+867479742
2197+867606852+868857592+870061459+869829058+869541602+870440379+870962012
2183+870191106+869322902+869351698+870392745+872233113+873924552+874127015
2170+872983659+871698604+871061975+871006476+870964676+871287462+872381789
2156+873443640+873767694+873678324+873924806+874571646+875208275+875316610
2143+874923356+874985262+874671546+873457594+873838163+875492116+875809574
2129+875306652+874688735+873813997+873955378+875355111+876374402+876329812
2116+875855242+875445496+875040317+874441428+874014747+873876981+873800614
2102+874681377+876751229+877980150+877373523+876394889+875982479+875679293
2089+875531568+876560817+878619189+879749035+879169808+877829698+876873645
2075+877747368+880277455+882217849+882716205+882364178+881360808+880206288
2062+879583106+879109171+878289679+878170624+879579174+881251077+881563968
2048+880278470+879072193+879474644+880321410+880606203+881061808+881532381
2035+881649596+882044754+882403694+881245686+879521962+880150535+882525476
2021+883468082+882873316+882918096+883994092+885177281+886357109+886782965
2008+885611384+884124881+882936935+881879587+882452978+884420393+885095966
1994+883994346+882830248+882707388+883799685+885176520+885185717+884498283
1981+885148739+886625346+887279545+886957773+886749285+887419911+887728172
1967+886670888+886042822+886763874+887560214+887916300+887976430+887932347
1954+887936660+887594021+887072959+886953460+886393643+885165293+885811690
1940+888967559+891684695+891870412+890171552+889785338+891486482+892451541
1927+891726050+890381943+889413966+889184546+889076782+889665839+891093354
1913+891433012+890432940+889582748+889625436+890834630+893063814+894417498
1900+893416855+891767595+891192048+891736579+893065019+893927515+894512132
1886+895720186+896048046+895235911+894182052+893345879+893688137+894603406
1873+894514035+892991315+890822896+890592525+893286510+896938450+898682598
1859+897312867+895547344+895814123+897710815+899889193+900558994+898562085
1846+894543973+892369782+894646473+897096767+898007849+898804634+899363627
1832+898670420+897083511+896818508+896689178+895227349+895965716+899565709
1819+902870761+904442257+904456402+902415790+899477290+899100019+900887996
1805+902169943+901683195+898993840+896918280+897826762+899312630+899462131
1792+899025618+899560191+900753528+901482572+901489612+900916158+900427000
1778+901715163+903703573+902122118+896097583+893163903+895870257+900590772
1765+904676180+905565190+904430967+904469658+904932747+905025035+903763829
1751+900350759+898111174+899358933+901818931+904332526+905190393+903686891
1738+902655993+900518337+895053873+894738698+899277555+902772891+905007973
1724+906127924+905894065+902972309+894920864+887907103+891319095+898071785
1711+902234132+902178125+898541280+895920809+895942248+892181337+884709054
1697+882989517+887513404+894573468+898858738+899939237+901202853+899341300
1684+890551931+889525536+895608171+899949069+899739629+897329549+895577536
1670+892865664+893019985+897082750+897729463+894233746+893455736+895253037
1657+894396947+887471161+877184570+877397689+878893262+876753322+879444770
1643+885460425+887019679+883982041+877732589+871825270+875883468+883625321
1630+887091099+886971601+886933988+886097814+885136243+885842833+885605041
1616+887066045+894932027+901902530+903145849+902655359+904822002+907517953
1603+909761407+912365451+913686026+913221351+913287126+915549672+918847049
1589+921261189+923262855+925792688+927652719+928095131+926789018+922773888
1576+919874332+922205127+923287402+921055809+921277173+923791022+924530912
1562+923997163+919490845+909118436+909804919+917714666+925758500+930807066
1549+933130377+933213277+927867297+916562113+906115873+912109328+926297576
1535+932279424+930987139+931987020+935461869+934788072+929618676+924140511
1522+922220287+927912902+935761377+940479419+942742155+943467456+941989770
1508+935285729+928597545+936112706+944815559+947377930+944364141+941128923
1495+943293029+946903868+945467283+939765852+939353061+944206078+948335061
1481+949605972+949532268+948269730+944195992+938656429+936377455+937348033
1468+937423005+935182659+933126444+933169512+931005786+923126295+920332093
1454+926794092+931254742+933862338+937124258+940293955+942001695+942653102
1441+942436558+939710162+935931048+937986120+943662815+948207825+951395851
1427+952673485+951928902+950225538+947173945+941586494+939292741+943942660
1414+948672880+949028902+946398472+943830139+940304230+935013813+930365669
1400+927139459+925752284+924178378+921239306+921635732+924453275+925657523
1387+925734144+925545635+924022408+922838521+922958400+921852593+920409476
1373+922689021+925918657+925707885+923933482+922011037+918904262+917833023
1360+920607815+922588931+922393065+923364341+926435850+927851820+926059150
1346+924228359+923279918+921167823+918701545+918967690+922296337+926027436
1333+927094044+925670779+925363723+927027888+928552067+929046554+929164657
1319+929788283+931647489+934813570+938113421+940764021+943734362+947521722
1306+950575091+952393450+955135196+958505262+960414957+962608557+966802111
1292+971102668+973357413+973258972+972850241+973866424+975483969+977361443
1279+979855883+982090077+983110700+982489167+981210138+981556646+983542773
1265+984367719+983041880+982361486+984190057+986713166+988256628+990230830
1252+994514451+999327635+1000365891+998053490+997608414+1000238908+1002710450
1238+1003428330+1003573263+1003343336+1000624678+996549227+994589233+994346176
1225+994144602+994508552+995941649+997438617+999114516+1001687797+1002449823
1211+1000094482+999902167+1004563567+1008774818+1008891716+1007305123
1200+1007001746+1009255857+1012452510+1014392714+1015262315+1015229839
1188+1014420940+1014002948+1014128155+1014781022+1016320170+1017141755
1177+1015893742+1014307594+1015727941+1020538143+1024508557+1025285362
1165+1024690596+1025133324+1026609298+1025546939+1021381738+1018721814
1153+1019708757+1021392140+1021794973+1023166226+1026090709+1028091614
1142+1028177369+1027029763+1026277251+1028143435+1032161991+1035215930
1130+1035232358+1032099514+1028585530+1027037946+1025037611+1022375150
1119+1023418163+1026746366+1025023911+1019361741+1018782198+1025061080
1107+1031363430+1032741788+1031041659+1028500155+1025502413+1025449641
1096+1027963807+1028200013+1027458538+1027487905+1028987093+1035396447
1084+1043811399+1049505854+1052195906+1050068018+1047064567+1049648567
1072+1052859746+1051076019+1049214402+1050289446+1050791670+1049869234
1061+1050266548+1053891912+1059818070+1063416668+1061878408+1058236425
1049+1056688397+1058748354+1061197760+1059922980+1056401258+1053631667
1038+1051870964+1052143578+1054995119+1054135921+1046865339+1043891699
1026+1049920421+1057468183+1061493081+1059979495+1055224538+1054557528
1015+1055897575+1054220470+1053052567+1051515132+1046304824+1043930454
1003+1048604984+1053542360+1052640348+1050661515+1053762519+1058425441
991+1058065803+1052536960+1047123746+1047795513+1053719641+1056919466
980+1054739947+1051168053+1047055307+1043996229+1045897425+1050938316
968+1054740518+1056966339+1058999530+1060622213+1060600520+1059466171
957+1057778791+1055665745+1057015940+1063910646+1069268614+1066731107
945+1061649686+1060612127+1061399144+1059212268+1054753838+1051477519
934+1050778984+1052863615+1057027357+1061446018+1065148701+1068499738
922+1070537558+1070147856+1068224460+1064369803+1061525810+1064795025
910+1069510149+1068645750+1064114631+1061523844+1062237157+1064010355
899+1066684677+1067338495+1064085581+1063626044+1068211267+1070218388
887+1064529261+1059151884+1060608068+1062477296+1063972869+1069881457
876+1073741823+1069713246+1061624505+1055052141+1051475997+1046804448
864+1041128134+1040622611+1045321751+1049025830+1048526333+1046780789
853+1046112510+1045668894+1046141687+1048291585+1050761986+1048441212
841+1037155754+1025321579+1022244932+1024123801+1022357517+1018866177
829+1020327689+1022104058+1017815489+1013690501+1014450053+1014865254
818+1012223598+1008974743+1003613160+997190613+996744967+1000480188+998033764
804+990377095+987017495+989289746+990375700+986110345+980088474+972821572
791+964018629+961064652+965992514+971180748+969828269+963966174+960913376
777+961159541+961361306+961110447+958289225+952042058+946530466+943473292
764+940176422+937936139+940370322+943597928+943014960+941669965+941952031
750+942414232+940361062+935257884+931538139+931013842+930298499+927937892
737+926870333+929222630+930960055+926666158+919323014+917395686+920939799
723+922143412+919248994+915400362+913125828+913905043+916306307+919641868
710+922710523+920397551+913532022+908615958+904707260+898917853+895698937
696+899116257+906807430+912300754+910363468+906040964+906817135+905387147
683+897168568+893435756+895162906+895036683+895753866+896463247+889330748
669+879786901+886236405+902836573+908819182+904480441+900961573+904635396
656+911563402+915306362+910427720+898567032+891596656+895360484+899762780
642+897623348+894838280+889135326+876644416+868852264+872224487+874252539
629+866906415+863530577+880797819+905819473+897462177+869243807+853997386
615+843916366+831257941+816708914+808263198+820059063+844857703+860862852
602+860166093+847860203
##END=
