##TITLE=Sample description
##JCAMP-DX=4.24
##DATA TYPE=INFRARED SPECTRUM
##DATE=25/8/2023
##SAMPLING PROCEDURE=Instrument type and / or accessory
##ORIGIN=Default
##XUNITS=1/CM
##YUNITS=ABSORBANCE
##RESOLUTION=4
##FIRSTX=4397.6552
##LASTX=599.8556
##DELTAX=-1.9287962
##MAXY=1.8201975
##MINY=0.6628564
##XFACTOR=1
##YFACTOR=1.695191e-009
##NPOINTS=1970
##FIRSTY=0.74041015
##XYDATA=(X++(Y..Y))
4398+436770932+436116305+436443583+437501403+437878364+437819188+438298819
4384+438753416+438734113+439030309+439771152+440084894+439585361+438381307
4371+436993115+436736299+438122206+439355443+439277808+439297674+439839997
4357+439908983+439471791+438499976+437087874+436357650+436913510+438383136
4344+440109753+441321894+441624595+441034030+439731772+438645859+438364782
4330+438255712+438788823+440502431+441526039+440858647+439822241+439217858
4317+439191101+439897310+440706611+440796412+440315339+440093332+440620748
4303+441337786+441369080+440915819+440612028+440334115+440071497+440074486
4290+440229933+440398741+440259046+440404894+441867030+443352689+443025515
4276+441416055+440413755+440542304+440712940+440779218+441344362+442120858
4263+442370255+442118783+441972794+441922514+442423207+443757040+444108580
4249+443072666+442649609+443243408+443861785+443853206+443416963+443369425
4236+443500260+443505428+443399031+442314384+440950417+441150554+442275039
4222+443276530+444506533+445158699+444288675+442790323+441604483+440913428
4209+440627217+440576726+441113283+442540997+444100810+445205850+446045425
4195+446311418+445754468+444833038+443925708+443461618+443945785+444814192
4182+444971608+444799846+445186477+446063533+447048850+447263649+446057907
4168+444622388+444319160+444735009+445311615+446220984+447162139+447429820
4155+446776915+445887904+445494663+445594591+445574127+444800620+444222010
4141+444718730+445310630+445740017+446409975+446974379+447594796+448172737
4128+447901294+447124482+446704940+446622593+446546786+446649351+447324196
4114+448276954+448769490+448286026+446811373+445190063+444604210+445463792
4101+446840908+447363823+447087668+447287453+448110854+448502126+447945949
4087+447024519+446956482+447541491+447208306+446144861+446065748+447195155
4074+448039512+448559473+449697460+450423640+450218300+450115524+450218370
4060+450154905+449984901+449674394+449026025+448481240+448550120+448760981
4047+448647516+448576772+449180030+450222554+450844025+450638791+449663600
4033+448712178+448504903+448537041+448550050+448859994+449179854+449382065
4020+449626434+449393457+448626666+448568967+449664619+450828273+451461277
4006+451563244+450915754+449885079+449295745+449388429+449782549+450181240
3993+450410068+450441713+450970359+451968194+452360801+452269770+452220509
3979+452068227+451993123+451982504+451909791+452109857+452397404+452326836
3966+452181304+452212949+452316006+452689381+453204666+453403923+453100308
3952+452013903+450677643+450581267+451629734+452041082+451551149+452045970
3939+453705851+454692540+453953244+451898751+450546669+451295880+452550530
3925+452508161+452021498+452459674+452979530+453109239+453626844+454507769
3912+455119957+455081456+454164351+451429703+447470888+446434869+449115369
3898+452434253+454329080+454245432+453098761+453458564+454713742+454018644
3885+452338685+452065801+452503661+453562183+454536073+454150181+452807804
3871+451470384+451176860+451868231+451961618+452522296+454486426+455432081
3858+454523591+451894812+447472541+447870423+453084521+457016261+457599055
3844+455636859+452892401+449975443+447757134+448352726+451294122+454448522
3831+456349608+457050016+457557882+457371493+454446729+450970886+451733599
3817+453550967+455544597+458401605+460034343+459538361+457441639+455895117
3804+454891094+453498999+454522185+457429192+459992536+462242701+464276731
3790+465453675+465167324+463843898+463014204+462668641+461287938+460501949
3777+462260387+464304402+464515228+462799089+461069905+460912665+462378739
3763+464566879+465052312+463448091+462634324+462812380+461064490+456670804
3750+456505583+461821261+467005507+471101660+476095580+481795674+485784867
3736+486181976+486300961+490436108+496033426+498951228+497387055+493246458
3723+489766853+487211842+484513269+481314179+478279853+476998480+480657687
3709+488473314+495475491+500141569+503352614+508027975+515183629+521902935
3696+526945377+529938178+528971566+524509949+522439950+522869828+521382834
3682+516939606+510837446+503720363+494231353+487648437+486685341+484751485
3669+483210096+484554372+485346761+484554618+483231122+481473845+478757937
3655+476634212+475168173+471450458+467048087+468383995+471786562+474109615
3642+476007256+477259129+477472662+477501775+477721813+476557139+471876434
3628+467402194+467968778+468337899+464897428+457238620+449130664+445242699
3615+443599589+442540293+442697674+443632606+444708357+445956960+446521400
3601+445316080+443085992+441098902+439028059+436789744+434890943+432379813
3588+428525779+425426194+423837479+422564650+421334436+420021523+418198038
3574+416422512+415498445+414130927+410241661+406140832+405912953+407151043
3561+407204382+406142484+404899401+403651502+402883620+403028765+402225617
3547+400132411+399291500+399647822+399197163+398225453+397741848+397690408
3534+397814491+397635592+396702594+395662355+394962792+394478132+394684035
3520+395613200+396282314+396195150+395434125+393974661+392605702+392399026
3507+392556758+391813208+391021663+391157314+391697810+392469348+392934528
3493+392468926+391838559+391899704+392472020+392740193+392659885+393150487
3480+394081481+394299163+394022059+394083836+394378732+394775735+395067747
3466+394897990+394497541+394151416+393926878+393829657+393880254+394269487
3453+394950099+395435004+395159482+394286047+394064322+394906288+396112452
3439+397471109+398504210+398285508+397277969+397106102+397869377+398150138
3426+398177036+398881065+399578062+399791244+400251994+401369587+402725009
3412+403887045+404546772+404564950+404918635+406395257+408221063+409798597
3399+411449513+413117587+414101709+414676204+416143193+418163017+419406206
3385+420363078+422350835+425452811+428627324+431010432+433078639+435833575
3372+439208998+442459528+445237706+447758540+450807352+454954876+459255526
3358+462742304+466280979+470273196+474179691+478598447+483419656+487675405
3345+492247568+497847348+502843658+506120982+508858513+512079404+515155184
3331+517962686+521392187+524239737+525124388+525868782+527092034+527613261
3318+528069159+529208692+530430749+531007425+531674499+533568026+535974165
3304+537519808+537761083+537335740+536639025+534822712+531739372+529210978
3291+528192187+527247516+525340910+522499337+519499363+517210311+515089644
3277+512835963+510597015+508509997+507485933+507454147+507131017+506074499
3264+504751671+503317523+501872616+500987684+500710931+500443110+499870126
3250+498732597+497001514+495663848+495047194+494101679+492939397+492705998
3237+493165130+493055533+492002074+490433752+488892258+488244662+488861562
3223+489741607+489285147+487280336+485476224+484819662+484755107+485055452
3210+485489480+485937572+486605490+487101226+487340356+487561378+487690102
3196+487864185+488093927+487835001+486662522+485739053+486143932+486775459
3183+486949049+487072851+487136914+487574388+488974464+490540641+490979240
3169+490538110+490433857+491316083+492744464+493273919+492591513+492418943
3156+493155637+493327645+493035738+493470363+494495448+495202711+495565819
3142+496185427+496792587+497051443+497107243+497308892+498224766+499131006
3129+499224042+499212861+499363561+499487047+500363576+502311074+503647826
3115+503266540+502694048+502996679+503307397+503311933+503698563+504593587
3102+505437416+505758542+505708086+505630837+505636674+505975415+506623820
3088+507059324+507184568+507493246+507994502+508153746+508149808+508528387
3075+509093811+509563773+510212318+510949223+511019088+510314285+509508922
3061+508955769+508605635+508605073+509555581+511293238+512437167+512684208
3047+512818734+512769263+512371486+511933872+511695867+511706169+511729657
3034+511889921+512589027+513455536+513809607+513861927+514128975+514554212
3020+515099454+515800951+516429806+516751037+516665174+516751741+517663360
3007+518787107+519553933+520085181+520205326+520576943+521957927+523460358
2993+524323912+524830372+525497025+526434206+527396212+528548544+529776051
2980+530724343+531586773+532376102+533064837+533859933+534611675+535381420
2966+536188823+536354361+536166214+536408192+536357701+535536480+535120139
2953+535846355+536851256+537498817+538150737+539011339+539799789+540178790
2939+540384306+540731486+541053842+541453131+542061065+542584718+542826942
2926+542946173+543017163+542687810+541841098+540699665+539203599+537880771
2912+537889491+539090908+540291200+541079369+541800592+542281911+542253607
2899+542410812+543097577+543713070+543899846+544157013+544890191+545358817
2885+545395103+545433604+545288565+545474848+546451375+547742207+548836593
2872+549214363+548884905+548506221+548582661+549073895+549701660+550665213
2858+551923731+552768053+553027646+552554379+551161581+550129007+550456637
2845+551282746+551731189+551785759+551725810+552182340+553483122+554641467
2831+555078729+555553966+556184438+556792548+557799630+559000801+559568932
2818+559444462+559461586+559965056+560380554+560474962+560769541+561461474
2804+562211775+562757404+563040169+563362631+564154246+565210729+565834732
2791+565922951+565985326+566387568+567268598+568196357+568544170+568750283
2777+569686868+570876752+571278712+571233355+571190423+571077802+571475298
2764+572342685+572910289+573203286+573614951+574238286+574967947+575752495
2750+576478113+576794140+576844139+577409071+578418333+578927324+578913998
2737+578989137+579461912+580541602+581823186+582546518+582693070+582876505
2723+583553847+584454848+585117352+585543011+585870852+586304036+586828041
2710+587178561+587693811+588736862+589834624+590608097+591287759+591801673
2696+591643307+591089521+591062518+591626360+592171918+592621557+593156286
2683+593520625+593595307+593750929+594413222+595625363+596358049+595793644
2669+595120099+595521990+596707690+598046973+598868616+598862920+598482266
2656+598519185+599424160+600470552+600851768+600964845+601233405+601581077
2642+602226001+603333573+604170335+604027230+603646295+604052335+604825947
2629+605167712+605280157+605564469+606048004+606555237+606795668+607100654
2615+607865407+608561103+608858354+609117139+609563684+610103476+610580681
2602+611002262+611547539+612300899+612875149+613151585+613832654+614851761
2588+615482971+616022904+616576901+616627181+616790258+617708312+618532768
2575+618392827+617876312+618052398+618656324+619159970+619886397+620558676
2561+620829064+621034826+621069776+620901074+621075472+621556967+621850351
2548+622152173+622871778+623903825+624886013+625345638+625203376+624972368
2534+625063576+625637826+626666637+627609796+627970759+628162457+628661251
2521+629023973+628957026+629139301+629892520+630525700+630617118+630572183
2507+630677103+630841235+631379550+632434310+633393432+633940327+634355297
2494+635120682+636061169+636365031+636381768+636699412+636602930+636079383
2480+636241545+637109812+638001284+638904571+639744075+640193433+640481050
2467+641071404+641795158+642200213+642315119+642242125+642203729+642579601
2453+643055681+643236409+643375998+643636541+643943075+644388143+644895938
2440+645052686+644855784+645045302+645957450+646720795+646760668+646853845
2426+647639412+648613021+648964420+648914913+649390290+650146604+650329090
2413+650312704+650793074+651639963+652559705+653243446+653417563+653552230
2399+654130066+654918658+655837204+657275641+660341893+667538862+681685265
2386+703650636+731730508+763506929+797324517+831410032+864539026+897485746
2372+928946280+954729856+975016077+990457321+996646574+995264254+995172554
2359+997736074+994634942+981328395+959915052+936808214+923109762+925400010
2345+938988408+948954237+949679890+948742286+949224484+949228422+947421849
2332+944643285+941854242+938230055+933988230+928912174+920251804+908880097
2318+896924647+885172216+877243547+874271597+870705918+860396144+843021466
2305+824515448+810511095+800449769+790851232+781069858+771039404+759117075
2291+746116991+734318148+723909994+714888872+708175789+704192819+702191735
2278+700911804+700087489+699950572+699965199+699466615+698490897+697785848
2264+697469329+696452050+694642031+693309569+692962530+693049448+692860282
2251+692335398+692079707+692272741+692470979+692157694+691374236+690935778
2237+691228810+691642374+691602009+691285982+691213691+691551588+692032169
2224+692410432+692764433+693210837+693584739+693567862+693359498+693628339
2210+694085432+694096965+694333247+695163188+695772106+696000653+696192773
2197+696545297+697503927+698754675+699556909+699982779+700191776+700472502
2183+700966303+700887261+700277077+700234954+700643666+700716660+700723130
2170+701290839+702458467+703605700+703913430+703558092+703670748+704725649
2156+705951714+706406135+706041937+705732239+706214789+707073210+707435720
2143+707303304+707479320+708345406+709263109+709633213+709644043+709702621
2129+710050997+710621449+711007376+711169891+711592385+712192373+712558821
2116+712840813+713140455+713427791+713636858+713493401+713515764+714517782
2102+715829288+716322949+716246579+716574210+717652106+718653984+718696388
2089+718232685+717776717+717207811+717163790+718290911+719664934+720190872
2075+720042282+719623303+719431676+719994111+720671313+720972502+721689857
2062+722876752+723794666+724600486+725318193+725359542+724900199+724691553
2048+725300261+726512121+727219982+726874982+726311351+726387510+726830468
2035+727413438+728476356+729648554+730041021+729827453+730163733+731070114
2021+731364552+730895997+730711120+731664406+733334624+734351270+734278065
2008+734180598+734673204+735116304+735248017+735257581+735020666+735022213
1994+735608769+736049688+736295956+737083774+738304775+739419098+740134414
1981+740217253+739849891+740066624+741433965+742878239+742982246+741766870
1967+740808732+741415471+742770084+743596016+743957190+744312950+744891700
1954+745732681+746402428+746748905+747186097+747705285+747607748+747281946
1940+748323556+749919937+750478927+750694605+751101839+751027650+750788977
1927+750954093+750911900+750807823+751630802+752623960+753267477+754153675
1913+754862803+755159562+755444015+755787960+756107151+756541179+757325199
1900+758476653+759614744+759948282+759636685+759648007+760027675+760719152
1886+761280252+761339392+761839945+763101241+764333213+764976448+764968502
1873+764529763+763260169+761243614+760937291+762717353+764432859+765565396
1859+766680844+767748754+768271388+768469485+768802178+768672083+767765421
1846+766691884+766527682+768107467+770110450+771576453+772879802+773913044
1832+773209401+770603477+769685705+771342351+772831772+773765930+774787920
1819+775872216+776841042+777133020+776243164+775204860+775602249+776584719
1805+777185199+777619648+777620984+777565570+778205853+778522864+777068253
1792+775863285+778332854+781321963+781895509+781130476+780636675+780607280
1778+781218871+781943539+780926120+778222660+778405919+781609088+784492573
1765+785889028+785572297+785015347+785393046+785646839+786065536+786148586
1751+783581902+780186192+781015710+784108263+785673842+785161968+784372674
1738+784980045+784615566+781946071+783021225+786958485+789445143+790395264
1724+790677607+790876056+789490852+784047153+779209067+782354361+787645110
1711+790765861+791318241+789251687+786517426+785305496+783164189+780352503
1697+781142220+784592008+788799798+791251927+790752781+788733132+784925475
1684+780281478+782532838+787331333+789310476+787335271+784398271+783432116
1670+782651753+783862206+786555329+786170949+784357976+785437209+786752653
1657+785349798+779706525+771808586+773205041+775458863+773500957+774309871
1643+778736573+781065358+780135349+776693718+773996024+777068112+781511059
1630+784013398+785245300+785976157+785548669+786598507+790427331+792922849
1616+794141952+798405929+803200767+806199932+808409943+810557929+812414009
1603+814266362+815943402+817394287+819334050+821772185+824143866+825408819
1589+825252353+825392926+827221370+830221589+832364021+832042227+829308880
1576+827444853+830524537+834096826+834857359+834892661+836223364+838033383
1562+838029094+830817991+822050942+830420179+839932079+845252082+847889369
1549+849075983+849166417+846724977+841989983+837824316+841768539+850551340
1535+854682619+854711592+856410431+858428604+857611321+856773293+857190584
1522+857263367+859218109+862553202+866524499+871807934+875704619+874649367
1508+866981452+863933835+875025871+884217946+887561126+886104968+884781366
1495+888868765+892692455+890262407+886606575+891341288+899191900+903976822
1481+906020381+906543014+904746638+901302053+898536287+899271785+904393832
1468+909490914+910742295+909780992+911107407+912067162+907716689+904646640
1454+911709574+919900615+924185267+925808581+928163666+931024859+932899645
1441+934005881+934435337+934656360+937301242+940690834+941920415+943370034
1427+945985662+945712250+942787908+939958079+935075971+930351104+930407783
1414+931134561+929351827+926297390+925147554+925145444+923437462+919791124
1400+913788997+908077793+905844576+904722236+904229419+903379858+899558840
1387+894658871+893929068+896653485+898075326+897670693+898599014+900032670
1373+899104349+897109031+896412491+897671185+898469903+896115873+893699186
1360+894879611+897239971+898915393+900509102+901297834+901040525+901700709
1346+902202808+900561351+898212384+896686044+897389475+900129011+901891141
1333+902256815+903227189+905296837+907836518+910218747+911348330+911557538
1319+913162990+916535424+919376576+921133361+923311164+926225661+928633699
1306+930562351+933990972+938871603+942815545+945171263+947122418+949433552
1292+951592017+953349224+955542146+958225284+960786412+962868789+963784733
1279+963097687+962800647+964798847+966870957+967382690+967340356+966190802
1265+964401528+963983815+964545688+965560013+967742880+970486846+973391568
1252+976219709+977172784+976503178+976829331+978804185+980655131+980912299
1238+980389877+980289176+980616384+981468195+982462478+982590042+982335969
1225+983316891+985901507+988394916+988667625+987243533+986883976+987608575
1211+986785315+985550178+986383776+987390576+987783114+988601733+987827909
1198+985547858+984989712+986198055+987667364+990247972+993629267+994851604
1184+994026024+993597903+993262818+992657275+992836104+993444882+994183404
1171+995386825+996503188+997749857+999508822+1000973279+1002091821+1003069790
1157+1003768580+1005193164+1007385242+1008753990+1009097021+1008798012
1146+1008111669+1008104777+1009435974+1011518561+1012538441+1011637827
1134+1010356348+1010359513+1012062221+1014389107+1015755675+1016236888
1123+1016604462+1016755654+1017458453+1018610539+1017595018+1015708348
1111+1016169239+1015666788+1011885079+1010910978+1016071702+1021898235
1099+1022687459+1019273465+1017861609+1021742049+1026233940+1027913019
1088+1029524097+1032775437+1036210387+1037261491+1035451120+1033691171
1076+1033941728+1035664266+1037287791+1039011103+1042868197+1047179008
1065+1047771050+1045324757+1045686071+1051806199+1059461315+1062644513
1053+1060335840+1058680881+1061337367+1061851491+1057190617+1055475743
1042+1060260174+1064934902+1065768288+1063553636+1059351683+1057925201
1030+1060833931+1063995821+1064307981+1060920216+1057181686+1057795667
1018+1061831098+1064172681+1063711720+1063856865+1064504953+1064007213
1007+1063245204+1061892137+1060348357+1060471421+1060342521+1057781884
995+1054692778+1053390413+1054306006+1056337188+1057873655+1057586881
984+1055427995+1053510242+1053672686+1055918702+1059495632+1063113490
972+1063916427+1060267979+1056499210+1056348159+1056875152+1056450969
961+1057137031+1059228831+1062011333+1064391945+1064636947+1061831238
949+1057840463+1056761160+1058950144+1060190766+1059574604+1060713891
937+1062802878+1062507314+1061983064+1062599085+1063220732+1065174489
926+1067631963+1068118943+1067505172+1066092684+1063690272+1063855458
914+1067539982+1070778593+1072461751+1073741823+1073189654+1070512635
903+1070297379+1073301185+1073243169+1070090281+1067580276+1064553405
891+1062908291+1064208194+1063787879+1060378877+1056944982+1054709022
880+1053162711+1051017748+1048028710+1045457665+1045426372+1046825499
868+1044996986+1040257632+1036495965+1035676362+1036154341+1032722766
856+1025943229+1021186083+1017881862+1015193169+1015969243+1016680199
845+1011474961+1003215216+996610851+992965427+990999855+987900763+984535924
831+982162133+978564457+974601177+971848069+968695814+967199572+969725750
818+972071061+970049583+965720629+962968787+960987393+957192956+954058492
804+954910373+956846198+953927201+945250516+937506512+937122483+939241779
791+935486019+929636210+927626335+927602848+926315814+922084537+916739991
777+914720694+915430525+914860564+913346531+912437337+910542229+906009832
764+899841464+895849634+896267417+897827652+896565020+892458846+886627883
750+881614132+880824556+882381486+882239365+880623998+878997379+877432643
737+875813056+874692052+874333058+873995864+874257321+876566135+878828395
723+879176629+880077314+880257901+877348889+875587885+876957758+878130308
710+878122432+878800196+878348728+874250992+870319779+868944843+867762659
696+867076949+868952930+873005730+876706779+875844912+868099924+859370497
683+858952081+866068601+869182672+864594721+861208786+863587429+867759213
669+867305425+859088717+852453199+851579026+853380114+854741900+854377562
656+854533185+856546856+858959324+859620914+854549570+844266307+837243175
642+836642273+836364571+829581588+816751051+807800321+808548618+812332647
629+813621931+812965123+808697419+803472773+804161366+805961470+798206988
615+785333413+778729119+780056096+786497946+792710336+790085566+784629068
602+792051067+807623461
##END=
