##TITLE=Sample description
##JCAMP-DX=4.24
##DATA TYPE=INFRARED SPECTRUM
##DATE=25/8/2023
##SAMPLING PROCEDURE=Instrument type and / or accessory
##ORIGIN=Default
##XUNITS=1/CM
##YUNITS=ABSORBANCE
##RESOLUTION=4
##FIRSTX=4397.6552
##LASTX=599.8556
##DELTAX=-1.9287962
##MAXY=2.1233268
##MINY=1.3103914
##XFACTOR=1
##YFACTOR=1.9775022e-009
##NPOINTS=1970
##FIRSTY=1.3849052
##XYDATA=(X++(Y..Y))
4398+700330571+702341242+707097853+709968398+709844396+707023886+702866305
4384+700693654+700373010+699189659+697675597+699200450+703356705+706117776
4371+706973008+707068616+704786009+701243433+701373221+703842222+704323520
4357+704112349+703097791+702441432+705167177+706744656+704465787+702743509
4344+703534599+705481009+707366353+709010083+709294979+707569204+707388115
4330+710612700+711850245+708663818+706970536+709354177+711795026+711329221
4317+708502683+704726571+702561515+704290123+706258355+704368310+702735672
4303+705108341+707726663+707447071+707304201+707889848+706541262+707068676
4290+711730041+713907816+711104909+707732631+706973369+709423562+711757771
4276+710162508+707200153+707248801+708989526+709653059+710553321+713217216
4263+714818266+711243257+706286025+707460273+712150513+712406172+708954381
4249+707277496+708370241+711331692+714318763+713035343+710131523+712128872
4236+715509890+714035133+709378712+706125553+706675874+709254831+710925447
4222+712247930+713472815+713207451+711711233+710495148+711486679+713846990
4209+714576352+713975574+714228158+715811425+715691462+712726515+711026059
4195+710470432+708734590+708369277+710174565+711359483+711311377+711790022
4182+713474081+715143010+715245129+713940790+712958181+713475227+715459132
4168+717758799+719755123+721377573+720822550+718435292+717731431+718000051
4155+715638594+712359333+711369248+711831738+713782307+717172549+718555737
4141+717771639+717230903+716622590+715504043+714107894+713443880+713945975
4128+713529300+712084986+711783572+713580360+716337332+717252002+716323828
4114+715796173+715107141+714125617+714748881+716354753+717253931+717460339
4101+716598235+715919331+717238981+717767540+715922345+715105996+715872009
4087+716141413+716373260+716893199+716900855+716709337+716316112+715985582
4074+717381489+719493074+718497504+715823059+716712712+719824508+721167307
4060+721009969+718273554+713595431+712466937+714830805+716390983+718141836
4047+720494672+719649990+716337090+714504374+715293837+717405904+717730647
4033+716008730+716044538+718493887+720216829+719857182+718369765+717457928
4020+718091379+718484061+717665059+717108951+717326210+718129598+718184998
4006+716995439+717539189+720689566+722439273+719814080+716015904+716119651
3993+720230814+724085173+724205076+721146208+717714552+716283680+717617376
3979+719779598+720482555+719720038+717624851+714847564+714242265+716000472
3966+716701018+715317347+713808349+714387968+716983382+718260171+716648150
3952+714846418+715001646+717254293+720433364+721852300+721602970+722207787
3939+722149373+720498108+719487588+719242478+719595555+720806695+720811759
3925+720241725+722209897+724240643+722589076+719804253+719185150+720866315
3912+724488164+727206253+726990983+726192056+725565959+722143104+717364309
3898+716060995+717712381+718893260+718949504+720602397+724349634+725638901
3885+722709280+720535604+720745750+724567677+729290891+728464897+724288206
3871+721244469+717304388+715264600+715090202+714791380+716975063+721712444
3858+726855649+729778820+725690383+721730107+723697676+725534552+727085266
3844+728430234+726003250+721622562+721042281+722209777+721965812+722975910
3831+725789126+727695930+727425803+725659699+721952731+717772905+718223459
3817+719705269+720791745+723150730+724403888+724932026+725585973+725934528
3804+727208785+728748829+729493441+729466736+728969403+729457030+731171532
3790+733559574+735316515+734489255+731679475+730099886+730287124+730905746
3777+731246705+731640352+733018476+733690387+732101816+730994241+731734212
3763+733962263+735778884+735279200+735164301+737649940+739777258+736130212
3750+727563006+723504530+722599686+721616172+724567134+730680710+733582421
3736+728064077+720559476+721297518+726869333+731291857+731843926+729907825
3723+729440935+730083730+729595560+728894231+729119266+726904538+721790028
3709+723523157+730764202+736315219+736799893+733975645+733912348+736208700
3696+738014470+738824791+736466408+730500103+729659339+733928384+735203424
3682+733022093+731161706+729624858+724951437+723062476+726888503+728633869
3669+729787923+733020646+734660337+734073123+732312444+729739154+725859476
3655+723562341+725982151+726803685+717624730+711829447+716832253+721411874
3642+720389117+716975123+715975153+716286996+715004841+712039050+705275385
3628+698669178+701731542+706645732+707658845+705621348+702009747+698558860
3615+695455745+694761046+698351669+700762557+699068973+697787603+697311610
3601+694755561+691167651+689983819+691167290+692158157+691044253+687435727
3588+681804292+677887118+678177681+680249720+682414293+684693645+685003377
3574+682017211+678419174+675784335+672523098+669137075+669274701+671982783
3561+674298968+674244050+672082009+670649329+672281424+675922021+677558035
3547+674227593+669059612+668096414+670369978+671726763+671163661+670237899
3534+669275364+666286123+662649806+663038992+666400720+668056386+667505824
3520+666077243+664975515+665381821+666392582+666400479+665195065+664102742
3507+664712381+666455578+667648332+667982480+668156335+667715427+665726639
3493+663408586+663226652+665538737+667559114+667719828+667014278+665158715
3480+663298871+663771669+665092765+665221951+666243925+670032274+674049578
3466+675674198+674834701+672361239+669723506+667675520+666735229+667585578
3453+669283804+669841479+668585066+667758770+669269155+670668137+670069348
3439+670934526+674634200+675876989+672747772+669403525+667443793+666227166
3426+666429355+667701200+668894498+671383995+675682758+678717453+679466587
3412+680122041+680542031+679410283+678780569+680228018+681920999+682798355
3399+682873105+681814721+681390089+683138229+684964375+685112911+684119512
3385+682570184+681840823+684169908+689667937+694562475+696014084+696276133
3372+698135314+701871700+706320929+709630453+710445415+710896632+714953541
3358+720678836+723841390+726538501+729791540+730375318+730008919+733047170
3345+738352415+742095552+744065593+745640782+747153336+749765629+752970382
3331+755324725+757647118+760490355+764089718+767177220+768331152+769309542
3318+769437040+767636695+766819140+766552088+764141500+762254469+763970900
3304+767688116+770951162+772362924+771567131+769940099+769295556+769875295
3291+769573821+766187558+761012464+758428805+759191020+759248891+758690673
3277+760373105+761414550+759168173+756266643+754186526+753475611+754445983
3264+753861361+750208949+747355284+747013420+746550629+745871604+746518257
3250+747512863+747750618+747475909+747731689+747456559+744888573+742555811
3237+742443565+742028397+740243787+740374299+742793506+744206353+744474310
3223+743844054+741537394+739991081+741402602+743848213+745400314+746466836
3210+746328005+745708600+746773675+747326830+745079067+742691749+743182270
3196+745706309+746374242+742679210+739349492+741991685+745877271+745777262
3183+744818223+744261452+743054651+742821779+745212533+748584389+749724758
3169+748375208+746667276+747479707+750092241+749945393+747881251+748037262
3156+750789713+753582553+753392662+751359084+751017039+752224382+752922638
3142+752705861+752127146+751102882+749693652+748851200+749015712+750030512
3129+751395193+752113221+751980719+751021078+749668333+749893670+751986929
3115+754370268+755854007+755394050+754081091+754404267+756192314+757101921
3102+756094656+754534297+754000915+755551689+758935964+761006013+759985908
3088+758729254+759417924+760623218+760509886+758883096+757209104+756545451
3075+755510757+753865279+754677529+758857717+762962973+763470131+760384739
3061+757664238+757852984+759173236+760267369+760705624+759753036+758986360
3047+759726150+760263209+759914714+759831163+759198857+757654412+757588463
3034+759508107+761398575+762978827+764578370+765224058+765353184+766186714
3020+767659120+768618339+767209893+764512541+764304686+766230600+766390289
3007+764459070+762531288+762071933+764410362+767678531+768914991+768996795
2993+769655625+770689776+770537260+769441983+769845094+771658761+773834366
2980+777242150+781121527+783245529+783286642+782585855+782664343+783039001
2966+782398979+781273499+780097443+779294356+780253636+782598153+783620850
2953+782777494+782459683+782899506+782876780+782313437+781049006+780797868
2939+784109984+787727854+787339874+786151821+786371371+786252735+786518341
2926+787132682+786628839+785422701+784931276+785163064+784515265+782762966
2912+781026159+780720767+781845944+782716247+783193927+783773124+784612381
2899+785546522+785553877+785216112+785750519+786061156+785564185+785794646
2885+786339843+785929981+786781656+790458904+792957022+790146881+784941886
2872+782813362+784846278+788352986+791275012+793713631+794656513+793355611
2858+792156889+791816894+790672787+788845677+787461947+786766103+786801067
2845+787291347+787254996+786436356+786379449+787837147+789076078+789990266
2831+792374268+794722463+794006062+791605241+790946411+791507643+791326674
2818+790910362+790965520+791432109+791841550+791807851+792141155+793852703
2804+796035361+796513946+795549241+795719781+797580890+798211991+796766289
2791+796538963+797640570+797528203+796837604+797557018+798999826+798995244
2777+798904579+800629570+802012939+801827690+801835226+802833448+803560036
2764+802898855+801580772+801551656+803106046+803656669+802253709+801243550
2750+801586620+801998893+801828715+801710440+802267393+803237825+804025961
2737+804272819+803851021+803792607+804879565+805477872+804544514+803340185
2723+803475821+805712070+807854459+807499454+806755987+807617247+809304983
2710+811067108+811945850+811870798+811989495+812576589+813335127+813895334
2696+813866097+813674217+814067381+813876707+812440772+811731244+811890812
2683+812066536+812569475+812845148+812588103+811458946+809695133+809975568
2669+812789990+814769796+814626564+814431067+814811934+814312129+812547532
2656+811489992+813463650+817570051+820211280+820273793+819637629+818934129
2642+818052072+818098369+819374495+820482492+820282052+819396498+818831407
2629+818699268+819421395+820729832+821094724+820682932+821404577+823265385
2615+823393366+820857029+818766603+818793309+819336758+819890937+821234821
2602+822383750+822950709+823493314+822900494+822111513+823144820+824552724
2588+825166462+825413923+825277744+825777549+827185634+827787677+827395960
2575+827090990+827032515+827587177+829058016+829965030+828940224+826953304
2561+825607732+825519719+826343785+827675853+829073207+829517190+829493318
2548+830291462+831629980+832508300+831337910+828171136+826138341+826768477
2534+828399487+829222287+828211465+825908242+824571713+825032755+826527828
2521+828251131+829164656+829249354+829531778+830243778+830347344+829693155
2507+830343787+832552367+832973683+830562071+829008765+829943510+830553631
2494+830413836+832208514+834965244+835611898+834803566+834591973+835345026
2480+835832231+834587151+833029685+833178343+834675887+836335050+836363925
2467+834641164+833645775+834170235+835155316+835796724+835639386+835520629
2453+836464959+837395423+837448593+837873345+838511076+837592246+836033575
2440+836250473+837981070+838959580+838687283+838135997+837130601+836636403
2426+838004641+838863188+837529974+836715072+837981010+839405431+839393013
2413+838289115+837310003+837477649+838512583+839095216+838189468+836541940
2399+835685744+835956594+837406334+838873436+839081231+839960033+842181211
2386+843346779+843007809+842180488+840170118+836121890+831728904+829400603
2372+828995985+828168122+825553297+822915564+821146808+818800422+817589763
2359+819259897+819937596+818945402+821023711+825692550+829522977+831545765
2345+831564151+830405577+828565928+826421610+825496028+825337665+825777006
2332+826979527+827958519+829524544+832027304+833737104+834038517+834268617
2318+836006930+838397383+838698616+838434758+841030172+843425086+842987132
2305+843311634+845419481+846999854+847474399+847306753+846646657+845604730
2291+844803331+844302501+844271998+845980773+848880374+851103000+852055950
2278+851834410+851127233+850621099+850130639+849823860+850194960+850944275
2264+851701909+852049258+851622878+851240444+851081238+850730271+851242615
2251+852765297+853824585+854607357+855801739+855644040+853567660+852184593
2237+852978999+854735639+855349498+854564556+853444563+852449717+852643465
2224+854252472+855593462+855655071+855437451+856063246+856768072+856817745
2210+856423315+856027981+856091157+856219017+856233304+856404205+856686570
2197+856995579+857193186+857353960+858156505+860319932+862373645+862315292
2183+861486886+861604799+862139809+862665052+862783206+861569534+860520674
2170+861450535+862046853+860635874+859497253+859661403+859831582+859885414
2156+860276167+860414215+860283401+860257781+860217391+860416324+860909799
2143+861663936+862528632+862514647+861685638+861403093+861971861+862821908
2129+863506600+863332382+862123593+860825946+860468590+861442096+862971349
2116+863480256+862589458+862329760+864044081+865188549+864060417+863168835
2102+863884271+864436039+863812776+863487490+864032084+864081757+863540961
2089+863433175+864495418+866260497+867436855+867985548+867870951+867220922
2075+866757769+866262908+866472150+867750988+867745322+865881801+865277104
2062+866987206+868071632+867167391+866385704+867133753+868136798+868215648
2048+868096348+867881621+867202174+866831314+867193252+868158500+868893347
2035+868078806+866593258+866351464+867026450+867931656+869336184+870540633
2021+871003846+870762233+870080073+870437188+871720307+872240728+871697881
2008+870419284+869367591+869894101+871638865+873101324+873242868+871958122
1994+870695741+871367894+873969517+876496932+877065398+875579127+873518180
1981+872466788+872734564+872815524+872109311+871696917+871546813+871285547
1967+871845815+873650983+875245220+875320755+874117209+872814137+872765007
1954+874395716+876214447+876409703+875434810+874788217+874752228+875812963
1940+878320666+880165499+879252939+876648483+875850037+878069046+879829604
1927+878417661+875648633+873864685+873671298+874297274+874852237+875156665
1913+875429625+876256042+877279944+877713920+878372750+879935641+881732309
1900+882553963+882341828+882569154+883777703+884072184+882150731+880300472
1886+880170804+880338631+880190456+880228435+881027965+882157001+882538832
1873+882062477+880634620+878576386+877614092+878168753+879682876+881503355
1859+882439245+882872919+883986582+885293151+885951137+885662081+884272624
1846+881524273+878964426+880407173+883888261+885168667+884600562+885073300
1832+885734541+883898509+881706809+881543684+881482135+881612527+882762842
1819+884789127+887654246+890254663+891303523+890289266+888233623+887579736
1805+889113571+890829098+890055248+888100821+888024985+888150373+885604331
1792+882647039+884303609+887856977+889384241+889284352+889528557+890096240
1778+889746359+887622597+882869241+877647247+878580063+883815440+887993698
1765+889858003+889631581+889278263+889151911+887853963+887526627+888207943
1751+886912768+885177468+886149226+887199533+886627028+885536332+885181326
1738+886023055+885855227+882827164+882587420+887207551+892002622+893763060
1724+892868162+891949875+890794917+885627841+878726007+879777881+885413174
1711+890046206+891431564+888734091+885207489+884129875+881712656+878422484
1697+880390475+884508149+888274736+890325978+888845614+885602944+881436863
1684+877566046+881069439+886779784+889471470+888187628+884828250+882311445
1670+880052891+880052891+883532472+885702109+884042404+882337005+882776587
1657+883395028+881271145+873604444+871220804+871775345+868686336+867822062
1643+871588468+874111121+873490389+869634282+865332866+868762171+875164622
1630+877551398+875766124+873777757+872904139+874534004+878582052+881042794
1616+881835513+885015730+888725109+890101666+889902069+890823793+892581337
1603+894172922+897495226+902510993+905535921+905636352+905904550+907308958
1589+908797158+909835167+909634606+908997176+909664748+910786188+909403000
1576+906212957+907340184+909611096+908639820+908036330+910026263+912159972
1562+914258354+911981655+902006124+903867415+910872332+914852622+917240121
1549+919716356+922034469+922298085+918392245+909091941+904066348+909421025
1535+914453912+916000164+917999261+920939493+921728654+921417656+920986754
1522+918675393+917807442+919333681+922262880+926217670+927557575+924852748
1508+917633888+912648564+920601789+928117421+930112057+929314275+929807448
1495+932790842+934687217+930477069+923249528+924093065+928867037+931109918
1481+931019916+929839519+928400509+926100541+920799938+917861093+922722175
1468+928565624+929384625+925573007+922517334+919397580+911591867+906707818
1454+914137548+923002128+926830806+925652399+924651826+926251489+927316806
1441+927672233+928904955+930370369+932868125+936092650+937690324+938717723
1427+939821078+938697287+938450911+941368959+940516621+935697677+934357169
1414+934755156+935339537+935299570+933122398+929186777+926183068+925769709
1400+924633801+920288198+914781428+911603743+913406559+916507625+913779589
1387+905776329+902644157+905885380+909195326+909638284+909028101+909681386
1373+912365415+915215946+915915286+915501566+915161149+913305706+911600909
1360+913812684+918297420+921497651+920910497+917471486+914892529+915204553
1346+917385221+918250460+915488364+910988859+909086093+910031689+910827421
1333+911855484+914041517+915506629+915704598+916200605+917230234+917396012
1319+916333408+916232856+917731666+920436855+925564326+931092858+934016632
1306+935751932+938072697+941231454+944880068+946939628+946982369+948891584
1292+953729577+956317576+955415023+955835133+958743716+962504758+965773530
1279+965932676+963508224+962913656+965510456+968511874+969521791+969471275
1265+970159282+971077087+971846958+973688295+976212153+977258541+976890455
1252+977539640+978688207+978227587+977388089+977978800+979946188+982351591
1238+983973739+984460704+984714253+985310630+985719709+985618675+985046230
1225+984689838+985792591+988384810+990979259+992132710+992664826+992619252
1211+990717029+989546037+991315275+993836783+994195224+991884164+989771675
1198+990987096+995785001+1001850773+1004870517+1002053504+998645117+1000868284
1184+1004087384+1003145586+1002230132+1003298765+1003357721+1002841580
1173+1003450918+1003118338+1002265518+1004158698+1006386207+1006472833
1161+1007997806+1011664565+1012807406+1010065987+1007663960+1009658897
1150+1015393416+1019683016+1018754782+1014909948+1013039615+1013954828
1138+1015572094+1017927100+1020397608+1022644347+1026018493+1027353756
1126+1024041701+1019514104+1016343834+1015190142+1016351068+1018208500
1115+1019064395+1019244519+1019803341+1020617881+1020804999+1020870828
1103+1021906365+1024484779+1029445809+1036579310+1041555410+1039131682
1092+1032469834+1028766664+1029140899+1032547840+1038709461+1044160590
1080+1046040809+1048168429+1052549901+1054254697+1050943245+1046735267
1069+1047337733+1051053200+1049448353+1045009371+1046394187+1050204781
1057+1049587726+1049812461+1057771835+1067594428+1068032563+1058885257
1045+1050175483+1047642522+1048609699+1048849865+1047343158+1046504384
1034+1047973716+1048435120+1045319225+1043953217+1048816469+1053484284
1022+1052057391+1049371552+1048670223+1047859540+1047050666+1047726195
1011+1048190613+1046489916+1044616087+1043346652+1041805343+1042662443
999+1045892634+1047150736+1046072639+1045412422+1044844197+1042486056
988+1040094277+1040319373+1042947701+1045337792+1044579073+1042229492
976+1041390718+1042458205+1044173732+1044481415+1043531841+1043779121
964+1046033817+1047192572+1045382642+1043702562+1043135180+1043182804
953+1046545858+1054025623+1060787661+1061130549+1056281404+1052768365
941+1053185643+1054110863+1053546857+1054317874+1057685630+1061930019
930+1066197194+1068837459+1068251872+1065673458+1060131905+1052772344
918+1051653496+1057834046+1062043712+1061549996+1063181007+1066321377
907+1062832211+1056441153+1057995604+1065666706+1069272218+1069979094
895+1073741823+1073521068+1065163827+1057088952+1053369385+1053962446
883+1059158338+1064100319+1062230950+1056777410+1053973177+1053202522
872+1054749860+1057687439+1056797786+1052701693+1049361063+1047278414
860+1044191334+1039727999+1036173727+1033274367+1029855250+1027169412
849+1028311650+1035423327+1044115016+1044792112+1036437886+1028606553
837+1025706108+1025217938+1024293201+1021865614+1019295278+1015726176
826+1009480762+1006369870+1010727289+1013626528+1007660825+1001579983
814+1002075206+1004939662+1007356759+1008716859+1006447092+1003454777
802+1001568770+995955360+988693699+984637633+982596278+981083784+978909987
789+974632624+969351432+966399566+967282166+969632350+969998809+968510910
775+966672768+963159730+959022464+955049468+950378458+947560782+946582995
762+946234320+944509510+937892813+932221833+934251795+939063264+938669376
748+934263008+933107206+933945800+930493225+926311953+923527793+919528092
735+920809824+927531714+927552270+920652728+915862720+914943950+915628521
721+918584607+923644682+924890726+921680790+919746557+918936960+918054480
708+919177548+921378653+921581203+917696943+911862356+909733470+910884509
694+907000250+897146068+893506074+900496524+907760295+909300881+907267483
681+904142967+902752666+903969052+905245057+904460356+905430728+911530017
667+916648204+912264803+901331922+892180517+892661814+897954520+897288396
654+892654038+895598067+905318059+908354442+906276314+902267872+887367179
640+870810459+866891838+872094663+890142658+934082883+975020182+960233062
627+922078355+906955520+922384892+942628265+954061253+975849371+983047555
613+966784351+983913879+997678302+972445264+955409657+963842372+993288632
600+1001588784
##END=
