##TITLE=Sample description
##JCAMP-DX=4.24
##DATA TYPE=INFRARED SPECTRUM
##DATE=25/8/2023
##SAMPLING PROCEDURE=Instrument type and / or accessory
##ORIGIN=Default
##XUNITS=1/CM
##YUNITS=ABSORBANCE
##RESOLUTION=4
##FIRSTX=4397.6552
##LASTX=599.8556
##DELTAX=-1.9287962
##MAXY=1.800845
##MINY=0.31114966
##XFACTOR=1
##YFACTOR=1.6771676e-009
##NPOINTS=1970
##FIRSTY=0.4455182
##XYDATA=(X++(Y..Y))
4398+265637249+265340073+264875936+264221861+263724423+263727053+264091735
4384+264313284+264308629+264443428+264614441+264506012+264083881+263276420
4371+262303792+261755996+261930065+262533124+262804002+262393297+261975022
4357+262263900+262928690+262894573+262004964+261601811+262228716+262540588
4344+261715144+260834509+260833194+261308437+261735508+261658051+261033402
4330+260615198+260514588+260596789+261080295+261462676+261380155+261046160
4317+260297356+259375958+259093975+259416170+259570995+259327038+259090954
4303+259194603+259587378+259892817+259899747+259778933+259729676+259896993
4290+259970363+259289580+258069975+257512441+258128330+258826260+258774498
4276+258535410+258619033+258778176+258398123+257394310+256712302+256918853
4263+257432177+257731094+257819906+257791972+257800893+257797907+257544426
4249+257066731+256632712+256491570+256624805+256746543+256746668+256910040
4236+257299226+257364475+256648118+255657721+255434786+256059790+256731031
4222+256889925+256447306+255872163+255650507+255508689+255053738+254491691
4209+254235598+254368229+254488741+254445099+254604527+254862450+255016529
4195+255140506+255061397+254812624+254567993+254474277+254506297+254183960
4182+253668948+253560963+253663297+253730341+253828518+253794436+253413548
4168+252568682+251756441+251788977+252446962+252968139+253151644+253310343
4155+253578342+253525140+252939726+252245741+251819114+251544399+251317199
4141+251318958+251616685+252023960+251930333+251086374+250433773+250633964
4128+251055668+250961757+250573885+250490689+250616088+250568946+250527063
4114+250601375+250355606+249725413+249315223+249390654+249494072+249369367
4101+249139412+248848687+248879392+249364533+249599410+249277552+248873795
4087+248717015+248514337+248044939+247660107+247431076+247157392+247026893
4074+247159577+247374978+247570851+247556955+247120982+246633158+246519078
4060+246695351+246914874+246927402+246842233+246851846+246741622+246401746
4047+245863261+245412078+245461175+245584868+245365877+245222851+245285239
4033+245303258+245243304+245007397+244587416+244303887+244249548+244101120
4020+243804423+243670549+243855440+244257384+244542868+244431116+244142949
4006+244054262+244080045+244120133+244142540+243752252+243109336+242641947
3993+242185948+242153981+242968229+243626942+243283317+242612290+242319041
3979+242127593+241891295+241732365+241549322+241519327+241788037+241883210
3966+241466836+240998292+241021925+241286548+241355422+241179540+240625862
3952+239646091+238716057+238662677+239122923+238840318+238537456+239390176
3939+240062784+239136410+236957451+235247889+235718513+237226960+237463809
3925+236711167+236628308+236790419+236089823+235610013+236680959+238026727
3912+238454526+238100559+236513731+233362286+230493073+229809109+231005952
3898+233543641+235333254+234641845+233035097+233218051+233651110+232854915
3885+232190818+231733966+231802929+233584368+234382393+232608524+229866025
3871+228109818+228868058+230311736+230017865+230151153+231963689+232603904
3858+230658897+226470677+222727616+225730224+231121684+234134865+234118979
3844+231611641+227803366+224156403+223172243+225758513+228549736+230199824
3831+231256288+231424102+230857311+229693199+226954254+224630243+225546222
3817+227322241+230316409+233649777+234424347+232297132+229399897+228135122
3804+226891848+225779979+227033985+228739780+230945891+233762755+235304734
3790+235340539+234454537+233217642+232780692+232714661+231997362+232280980
3777+233790867+234195441+232779910+230574226+229525740+229891737+230780085
3763+231083338+229569560+227642073+227364408+226680836+223233512+218858961
3750+218891639+220705685+221441446+223653706+226300588+226195090+222811328
3736+218473222+219091954+224398476+228495841+229367290+228247265+227665813
3723+228790032+230906479+232982500+233880904+232751355+230245118+231493545
3709+239929869+250985657+261849339+273457507+287795132+302191573+313698136
3696+322262648+326811339+326887606+325924076+327935647+330410823+330500665
3682+327129874+319747491+309602565+299540977+294751333+292804176+288661107
3669+286143569+286109843+284127875+279899834+274970948+269743180+264395823
3655+260414901+256410079+248967013+240888779+240904274+244565897+246076352
3642+245249256+243605601+241822989+239472519+236415430+232481952+227096552
3628+224212857+226168685+227305200+225262995+221054357+218237457+217782773
3615+217343868+216920316+216382666+215316535+215269037+215941166+215353229
3601+213678158+212154162+210665456+209133500+208394967+207704251+205325937
3588+202727405+203290892+205067942+205679122+205236272+204347463+203262194
3574+202122836+200789115+198117179+193525077+190652772+192180925+194419057
3561+195473175+195875920+195614496+194422273+193194796+192699615+191890822
3547+190438277+190020926+191144683+192259200+192289710+191543767+191062624
3534+190889816+189961541+188383899+187480359+187268227+187113296+187527679
3520+188512745+189136559+189117084+188538529+187507777+186663462+186433117
3507+186303063+185804932+185520905+185899412+186229337+186384447+186874314
3493+187187323+186672258+186065610+186222922+186557627+186264823+185962600
3480+186494813+187175666+187200419+186942460+187028944+187468578+187762164
3466+187560144+187013591+186704794+187068570+187664112+188020016+188291231
3453+188537889+188428358+187778299+187270093+187572156+188158778+188514647
3439+188727222+189108430+189841117+190370753+190375728+190394582+190566910
3426+190579508+190461679+190658884+191480383+192466196+193217612+194067293
3412+195012076+195682215+196365734+197242105+198006066+198820368+199768954
3399+200504342+201049206+201857858+203338247+205206046+206846378+208387859
3385+210310885+212560922+214755998+216873618+219122837+221573491+224275458
3372+227176443+230062466+232940031+236131261+239743930+243456338+246975202
3358+250468957+254420275+258934725+263552184+268002539+272597946+277462667
3345+282045031+285999264+289858270+294072487+298371571+302709303+307063810
3331+310660735+313124716+315232775+317631294+319898105+321357651+321996782
3318+322538146+323809762+325682092+327054781+327492655+328012695+329257800
3304+330528315+331113213+330857582+329895829+328321422+325927701+322840013
3291+319428708+315612934+311573160+307897872+304725104+301734117+298758660
3277+296006263+293518525+291352342+289702556+288199599+286444139+284556652
3264+282866708+281456898+280018853+278720849+277948998+277311378+276329083
3250+275026459+273596571+272255636+271118214+270260181+269654528+269003065
3237+268203387+267405539+266698280+265983789+264828971+263435048+262612732
3223+262075544+261195299+260378971+259919081+259519499+259108350+258727604
3210+258442920+258270468+257949516+257428890+256838305+256261313+255900718
3196+255683060+255301319+254748264+254262376+253953170+253562278+252883770
3183+252143655+251669691+251504915+251351796+251107128+250971654+250891514
3169+250721727+250488450+250372807+250466665+250398554+249932462+249431062
3156+249308222+249516977+249745919+249933564+249975518+249691064+249385537
3142+249439680+249663006+249618476+249366026+249152526+248822388+248416836
3129+248217179+248120815+248010733+248085347+248289127+248302809+248163497
3115+247958775+247597167+247250788+247032241+246708696+246202498+245824613
3102+245816297+245881031+245805013+245935103+246222808+246151073+245743815
3088+245381639+245181875+245025113+244724027+244200931+243595935+243052421
3075+242604862+242307171+242024850+241485281+240786960+240241296+239901118
3061+239562060+239086905+238694236+238622714+238639151+238373160+237761714
3047+237056747+236630760+236441356+236104163+235717305+235600115+235427165
3034+234733180+233859670+233494934+233655197+233843980+233824255+233688070
3020+233487400+233194667+232828190+232418498+231956848+231566631+231499605
3007+231727711+231991374+232209529+232465569+232717824+232826253+232940031
2993+233318555+233829906+234207880+234490929+234905135+235524169+236152585
2980+236527502+236631240+236584009+236367559+236005649+235632669+235349442
2966+235122419+234741958+234147215+233491398+232911209+232549956+232446858
2953+232432535+232291890+232100904+232188401+232454232+232394473+231958465
2939+231610895+231508009+231266310+230730170+230185342+229753118+229363683
2926+229033313+228657828+228039309+227336350+226726059+226025161+225344148
2912+225030375+225003312+225016053+225011575+225025346+225076984+225127769
2899+225191792+225331425+225322327+224906966+224388472+224184781+224243669
2885+224338788+224417116+224412514+224140979+223665789+223315660+223216382
2872+223095408+222678679+222177208+222027838+222240591+222387758+222266624
2858+222048024+221771389+221299629+220614404+219901689+219456885+219443131
2845+219591595+219551347+219497968+219644708+219832495+219936695+220025240
2831+220237443+220455705+220422583+220271454+220266869+220413467+220578172
2818+220664869+220749114+220948007+221114702+221053095+220913161+220907972
2804+221025304+221215686+221380426+221391283+221298936+221189778+221114436
2791+221197970+221375220+221368858+221224606+221241043+221343004+221302596
2777+221235285+221241682+221227485+221203922+221153315+221008370+220897400
2764+220907173+220999734+221154861+221262775+221313169+221383607+221367686
2750+221224144+221108643+221127816+221250638+221388956+221469700+221543265
2737+221693595+221738445+221545682+221405090+221523150+221721528+221868624
2723+222027660+222188438+222299692+222405687+222496738+222493379+222486165
2710+222621835+222807987+222879598+222836560+222792066+222788068+222783181
2696+222849070+223050469+223209896+223131000+222913538+222764541+222761733
2683+222871317+222947531+222958388+222992754+223013739+222955100+222810599
2669+222655508+222573377+222545870+222550046+222578193+222601364+222599658
2656+222587095+222574941+222519216+222357692+222141722+222063235+222192205
2642+222371765+222444389+222441048+222467791+222488777+222462958+222421822
2629+222332904+222202351+222136302+222184227+222312966+222472944+222551663
2615+222520176+222554133+222714236+222844432+222871300+222913786+223054947
2602+223203144+223281649+223310809+223336272+223381567+223414316+223434502
2588+223455505+223417745+223316495+223206467+223070442+222969405+223018999
2575+223114172+223106158+223011607+222864174+222637596+222345804+222117876
2561+222076633+222211805+222361832+222346746+222187496+222047242+221993561
2548+221966285+221976324+222054314+222075940+221985991+221908054+221927760
2534+221995409+222053639+222106628+222134757+222156044+222211023+222225736
2521+222175911+222214435+222372050+222487817+222564670+222678679+222813034
2507+222964696+222996414+222875316+222898434+223118295+223312071+223478730
2494+223669858+223789233+223791312+223773241+223827935+223903508+223952001
2480+223963303+223888564+223807873+223817700+223846149+223812813+223760305
2467+223800357+223922415+224013643+224045433+224025300+224016042+224139309
2453+224234571+224029867+223727662+223633697+223662057+223664207+223628580
2440+223622058+223664669+223665398+223623213+223602423+223605266+223627478
2426+223717071+223913868+224100127+224172573+224235566+224353395+224453597
2413+224530681+224666635+224880579+225090347+225207181+225251462+225345534
2399+225516636+225671603+225804003+225948362+226039874+226036001+225974270
2386+225788899+225239788+224046499+222111212+219687514+217160434+214642007
2372+212005627+209298241+206847018+204861301+203368775+202468220+202261206
2359+202780003+204076017+206341549+209824394+213620869+215496113+214388473
2345+211756144+210045961+209693291+210089407+211044692+212031055+212494749
2332+212688827+213324333+214399970+215376880+216158611+217178896+218713394
2318+220394027+221740151+222741938+223685033+224759213+225911721+226965431
2305+227779182+228385884+228993332+229654071+230148221+230396745+230614313
2291+230962204+231416159+231931153+232413291+232682800+232722000+232705581
2278+232712475+232722462+232762709+232790661+232747445+232754749+232878157
2264+233011553+233134677+233293944+233445997+233548367+233700260+233914098
2251+234024730+234069083+234181208+234317411+234438012+234559839+234681791
2237+234809588+234963596+235150708+235361027+235584709+235756682+235760751
2224+235634765+235575220+235608307+235627444+235633984+235691876+235833250
2210+235957494+235985872+236002468+236026404+236053360+236159604+236315335
2197+236437358+236547972+236684015+236824696+236907768+236934493+237037325
2183+237225148+237382407+237515092+237609287+237617888+237622597+237690138
2170+237774614+237844573+237990815+238269333+238483561+238482868+238438729
2156+238527790+238704578+238826121+238908642+239100676+239295251+239326064
2143+239368604+239544859+239681879+239706294+239713135+239756528+239846850
2129+239959260+240085565+240268519+240447830+240537459+240644076+240863013
2116+241071040+241174352+241263838+241418468+241595576+241766980+241999013
2102+242294572+242543025+242734313+242995754+243410102+243925789+244437708
2089+244993448+245658593+246307888+246911072+247482359+247915347+248231590
2075+248486528+248737325+249123047+249551059+249789649+249922067+250256221
2062+250816421+251317607+251629390+251883173+252177648+252442839+252630520
2048+252840093+253103560+253267057+253348938+253646985+254177172+254631021
2035+254894773+255062480+255233707+255419930+255546005+255586483+255585471
2021+255480311+255211904+255131764+255494402+255862976+256011191+256194856
2008+256442206+256652845+256874163+257100439+257273709+257485379+257650208
1994+257494832+257427894+257950973+258701430+259520494+260473487+261324039
1981+262044394+262756184+263487272+264294289+265239267+266079904+266563588
1967+267299864+268912512+270727322+272097541+273231942+274272200+275151876
1954+275878042+276448476+276829737+276844557+276267654+275399813+275333657
1940+276316858+277142390+277341159+277296451+277298655+277428958+277591602
1927+277360297+276463260+275801598+275920724+276156240+276864761+278128025
1913+278769822+278581732+278574163+279411761+280438372+281023537+281317604
1900+281432430+281204750+280857891+280802503+280590514+280231589+280682186
1886+281426051+281619808+281632265+281759032+281877572+281880095+281672157
1873+280656936+278324093+276407429+277539182+279984221+281270461+281511664
1859+281591413+281896176+282325148+282638175+282555351+281795139+280250602
1846+278486311+278646413+281041040+282636576+282816758+282882789+282770504
1832+281232328+279233569+279164001+280128988+281300989+282977731+284103745
1819+284398877+284537408+284403959+283546051+282886538+283549214+284646459
1805+284895604+284004840+282895210+283030897+283789332+283334666+281788796
1792+282082453+285071059+287212223+287543019+287199482+286824458+286918530
1778+287336805+286515572+283975289+282076909+283726091+287037443+289607472
1765+290297957+289601963+289518696+289874067+290055066+290328396+289215905
1751+286353071+284687488+285968913+287838063+288783805+289100652+289583661
1738+289531134+287452803+285723766+288208875+291646568+294341925+295770374
1724+295835890+295021801+292354076+287618681+285976092+290333442+294711689
1711+296561096+295880722+293734530+292255598+291253330+288964485+287009278
1697+288263587+293161199+297789959+298679337+297349064+294956196+291078728
1684+289807680+294265356+297924989+299058786+298668143+298407536+297772243
1670+297226402+300477391+304362323+305216926+305543315+307893678+309596132
1657+307958643+303024853+301561895+306069504+306287037+305905883+311165742
1643+316389246+317941548+316337181+312880884+313510384+320563108+325581019
1630+327562027+328891963+330326667+332043230+335467223+338301234+338816974
1616+341047003+345951403+348829696+349626087+350297878+351492268+352397621
1603+353013012+353945339+354774496+354852504+354760245+355354277+356279319
1589+357134988+358018840+358854750+359579210+359956988+359054052+356795272
1576+357106735+360541744+361794881+361938706+364251363+366982241+368193370
1562+366834826+361881738+361036979+369804525+376811262+381783825+385657562
1549+389321975+391231443+389879296+386778458+387124571+399113610+410195412
1535+415156532+420982987+429719295+436123364+440242070+444503288+448578175
1522+454979578+465006409+474577738+485340756+496235446+503692958+506690058
1508+507817315+521006608+541135007+553072123+560913491+568464542+579792273
1495+593497305+602959032+609050182+618132069+632035444+645159168+655387113
1481+664624803+673565601+680694059+685749037+692231896+706376367+722845932
1468+734804194+744613704+756832537+768623695+775443320+779739685+790133881
1454+803710086+813067115+818154931+823115944+832941447+844198242+851903212
1441+855906524+857017469+858277322+864371385+871481932+875095382+877552326
1427+880679889+881740440+881247018+878926472+869766115+858827819+856510969
1414+856998420+853489312+847437468+841899091+836041076+831168697+828672589
1400+824452064+817470665+812313975+811108710+812724236+813465577+810631210
1387+806567411+805592722+806746100+807536627+807589224+806730747+805136474
1373+805311254+806920809+806720015+805580425+804877822+803222066+802784511
1360+806131633+809322953+809250525+807841693+808149530+809887452+811083620
1346+811812451+812866463+813244027+813074081+815190847+819694830+823847618
1333+826961676+829116256+830378668+831806833+833634029+834957496+835480131
1319+835674671+836722001+838916526+841452154+844030357+846055291+847350682
1306+849334107+852921045+857157492+861258607+865515453+869410939+872668361
1292+876180597+879788716+882570841+884707083+886602300+887319190+886996497
1279+887074398+886807288+885413169+884092616+883528401+883301876+882687764
1265+881211622+879205452+877794275+877890301+878744940+879231822+879737611
1252+880480303+881183475+882135917+882884863+883428465+884494774+885221828
1238+885578212+886687309+887833153+888414853+888577906+887741534+886232696
1225+884571680+882540349+880715854+879155129+876801390+873731542+871051485
1211+868548766+865079248+860933568+856982427+853192349+849638035+846943691
1198+844903618+842620388+840555295+839853900+839873162+839006013+837596755
1184+836821510+836272079+835283316+834179835+833759623+833754434+833582071
1171+834050118+835101286+836345289+838728597+842054182+845194966+848003674
1157+850386200+851857580+852350717+852617259+854312605+857703085+860828515
1144+863081609+865142508+866976171+869678121+875212092+882177284+886013350
1130+884998359+882207847+882079765+885653909+889717637+892600195+895246704
1117+896789731+896679773+897619350+901123483+905124378+907813960+909532548
1103+910919488+912344810+914974900+919339500+924042785+927225504+929063362
1090+933097663+940488540+946900463+950256754+953894655+959791123+965381245
1076+969237497+973613825+979510221+985640250+990756639+994232270+996761926
1063+1000685915+1005897975+1009370763+1012061268+1016170415+1018747267
1051+1017136148+1012683981+1008307155+1008013675+1012828624+1017862563
1040+1018558911+1016459133+1017720478+1024152303+1028893118+1029317807
1028+1031691946+1037600497+1042819735+1045174896+1043224381+1038086100
1016+1036918861+1041672754+1044715663+1043360921+1042321765+1042334487
1005+1042726837+1044539746+1045602713+1043891303+1040850242+1039103151
993+1040358029+1043005248+1044892433+1045692200+1044508827+1041440827
982+1039508294+1040616467+1042439114+1042587311+1042512893+1044041277
970+1046424941+1047516837+1045932443+1043893933+1045029542+1049089148
959+1052860177+1054033386+1054195870+1054772169+1053156145+1051064611
947+1053735642+1059392435+1062092821+1061335132+1061278483+1062409188
935+1062468182+1062361068+1063801672+1066288327+1069088150+1072093672
924+1073741823+1072093388+1068658343+1065900811+1065066145+1067531050
912+1071420353+1073282163+1072447853+1068309422+1063923499+1064514297
901+1067729712+1067888429+1066733060+1068496072+1069367201+1065479391
889+1061862387+1062568686+1065011628+1065479106+1063608554+1060279627
878+1056374829+1052702811+1049023330+1045687864+1040799635+1033704725
866+1028774986+1026549969+1025321816+1023714891+1018604970+1011469617
854+1005495817+1000309417+994773100+988495016+982962538+979411352+977102960
841+974675939+969687348+960754155+951236703+945569177+943278342+941409494
827+938512223+934133692+929898099+928206448+928013188+926399581+924291131
814+924243438+925016195+925177470+925518572+925410605+922508643+916213927
800+910057529+908014186+908175034+905703022+901427695+898782040+898005515
787+897659793+896106034+892786490+889439084+887818724+885650640+881027175
773+877115127+874739922+871956802+869220593+866894574+864547445+862502254
760+861018364+859170058+855884703+851967893+849339793+848264174+847095727
746+845628895+845539479+847457583+850294012+852441839+852694734+851108278
733+849542151+849585082+850007568+848622903+846716669+847612462+851279078
719+854751439+856448634+856840485+855496831+852619320+851182199+851551377
706+850120866+846017975+841468928+837812760+836721006+837694202+837018893
692+835240741+835152462+836262768+836343157+833390161+829631001+827568965
679+823737874+817924710+816227871+818612316+817992376+812786216+811693324
665+817421906+821338290+820256060+816798839+815082453+814516319+814457040
652+816720227+817158350+812751814+809860443+809054350+803532036+795885848
638+794598914+803090572+819667679+830088386+820370780+803253198+793095051
625+785553845+776756339+775580856+783633466+789214988+790778912+793894889
611+795992820+794407431+790649692+784173799+773314826+767991885+776357096
##END=
