##TITLE=Sample description
##JCAMP-DX=4.24
##DATA TYPE=INFRARED SPECTRUM
##DATE=25/8/2023
##SAMPLING PROCEDURE=Instrument type and / or accessory
##ORIGIN=Default
##XUNITS=1/CM
##YUNITS=ABSORBANCE
##RESOLUTION=4
##FIRSTX=4397.6552
##LASTX=599.8556
##DELTAX=-1.9287962
##MAXY=1.8905611
##MINY=0.97219247
##XFACTOR=1
##YFACTOR=1.7607222e-009
##NPOINTS=1970
##FIRSTY=1.0383134
##XYDATA=(X++(Y..Y))
4398+589708795+589633304+588512384+587668377+587921999+589582187+592138923
4384+592728157+590390515+589373250+591022877+591266682+588440617+585938046
4371+586728635+589271422+590191463+588521051+586423218+586800198+589352804
4357+591221726+591594102+590936418+589817597+590163094+591763567+592503310
4344+592288550+591600196+590788077+590683202+591202159+591569390+591483947
4330+591013940+590977380+592271556+593828834+594024907+593517188+593438312
4317+592716580+591539668+591724502+592379274+592607846+593176566+594052598
4303+594502496+593339802+590975281+590104936+591501008+592789024+593002023
4290+593368373+593776836+593330391+592460385+592258489+592358963+592225585
4276+592993492+594564040+595439665+595545217+595814411+596049008+595514344
4263+594747790+593813397+592380899+591791597+593091596+595234249+595997756
4249+594283606+592355984+592539938+592992612+592025652+591172640+591161401
4236+591553344+592706627+594900600+597028155+597472907+596739055+596869319
4222+598122602+598590171+597604390+596835670+596882928+596738852+596230999
4209+596155034+596874871+597403848+597181100+596735602+595873856+595018000
4195+594904324+595126734+596044675+598103916+600016508+600042439+598683875
4182+598435127+599329981+598760449+596299380+594107777+593843593+595600600
4168+597925243+599044673+599040340+598898905+598452866+597695250+597681641
4155+597804661+596455101+595105813+595590918+596588480+597454559+598862141
4141+599484484+598837361+598880896+599977374+600640813+600475952+600766812
4128+601686920+601661192+601036886+601065051+601648396+602893486+604076492
4114+603788611+602133500+600332147+599620435+599804998+599780489+599124497
4101+597921519+597252190+597928493+598659298+599014003+600712513+603375273
4087+604352930+603425443+602752390+603043588+603060649+602411970+602152525
4074+603121651+604737019+605176017+604606620+604507365+604856925+605885089
4060+607092536+607044195+606647513+607433903+608435325+607754689+606228691
4047+605429436+604918265+605220702+606630586+607355840+607122665+606321785
4033+604920838+604680824+606298901+607765657+608170464+607800118+605999510
4020+604273987+605460851+607621852+608170599+608515284+608874525+608116774
4006+607232075+606885901+606013390+605201068+606188000+607650829+607161189
3993+606105604+607247783+609072156+609025169+608747985+609907362+611325844
3979+611738708+611232479+610079467+608441960+607810003+608421174+608383666
3966+608506956+610353875+611916298+611806616+611724896+611954415+611030719
3952+609649880+609488879+609773645+609561255+609583868+610665181+612658680
3939+613667143+612845545+611333495+609911695+609831803+610936136+610390435
3925+608794702+609560172+611787388+612464638+611484747+611562472+613464909
3912+614945477+615163824+614601604+612522391+608841215+606183803+606704249
3898+609708107+611980956+611053536+608766604+609976014+612720156+612527265
3885+611669446+613616906+615746221+616881359+617931324+617114670+613632749
3871+609410747+608398899+611514673+613370799+612756378+613067143+614203974
3858+615274725+614891177+609125846+605564507+610186373+616048387+619100180
3844+617644798+612181159+606080417+604046905+607322123+611475540+614550893
3831+617574723+620645812+621838770+620454749+617104108+613934577+615263080
3817+616892733+617009389+619161791+621685554+622308844+620720761+619001398
3804+617303160+613705735+613237150+616354142+619220829+621983387+623690495
3790+623536534+623139649+622577767+621429630+620687315+619605122+619352380
3777+622129223+625138362+625776614+624270860+623178647+623983318+624547096
3763+623907150+622360232+620744999+621528343+623312770+621551769+614939586
3750+611775133+614282985+615409119+615635185+618542631+621296793+621757659
3736+619861926+618299977+620213111+623480069+625649803+626607826+627105659
3723+627383519+627879728+629079118+629717777+628454270+624545539+619983050
3709+620696726+625676885+629987580+630883653+630733551+633802473+638371055
3696+640798068+639593736+635706128+631643706+630542962+632428811+635004368
3682+636141266+635244178+633396515+628860160+623434707+622886975+623462262
3669+623974178+626020216+627762124+628595232+628998481+628452781+625753053
3655+622965445+622535113+619722725+610621038+607570125+612345681+615100047
3642+613942972+612307293+611622594+609854620+607069042+604590235+600228153
3628+595648873+596685772+598875141+598121519+593524365+588946981+588568308
3615+588628159+587553753+586805886+584966550+582867432+582580634+582371223
3601+581315368+580289911+578589100+576127693+575033652+575314762+575071972
3588+573436361+572076036+572336226+572635481+571557012+569448956+567158707
3574+566158809+567760230+569733316+567450278+561695711+559934710+561910301
3561+563254478+562361655+560650281+559475570+558605259+557949132+558087284
3547+558808102+559070052+558763451+558750012+559011284+559049944+558699301
3534+557367751+554791009+552639453+552831870+554322492+554932986+554922966
3520+554546764+553345479+553144023+554610407+555450725+554775539+553679703
3507+552852893+552155500+552626319+554947069+556700148+556760203+556200826
3493+554847712+553041112+552715384+554232140+555935762+556498151+556095613
3480+555692329+555099777+554176115+554539655+556654718+557939586+556941753
3466+555706682+555764130+556825233+557484644+556594732+556322085+557878347
3453+559002009+558561793+557030209+555961862+556434441+557091854+557719647
3439+559158035+560646456+561274316+561345034+561480410+561591750+561835013
3426+562507254+562839143+562632068+562589414+562839854+563670016+565777597
3412+568672856+570791203+571420587+571046518+570903254+571180776+570520249
3399+569880439+571511514+574569332+576964050+578419635+579274543+579615775
3385+581062693+584845494+588497963+589674469+590104936+592239532+595993761
3372+600193082+604293079+607939049+610348526+612246358+615841481+620078717
3358+622393746+624043914+627070317+630797938+634149663+637181956+639929890
3345+642895697+646612960+649661705+651557100+654223991+658062107+662013492
3331+666746733+672425741+676686673+678536299+678510165+678180037+680908336
3318+684745639+684465477+681613752+679988093+681052344+684912396+688033653
3304+687033112+683999668+682066697+681705424+683101564+684532166+682552140
3291+677903057+673787351+672068124+673029464+674118225+672669952+669712879
3277+667663929+667085798+666803605+665462102+663668265+662909091+662369890
3264+660914847+659176933+658194402+658664950+660118774+661462443+662170703
3250+661556891+659275376+656582487+654239496+651919456+650718374+651199348
3237+651981880+652911737+654393930+655541797+655576123+654243964+652545861
3223+652443559+653600566+653575379+651600093+649464820+648795017+649031306
3210+648964279+648980799+650048977+651368407+651157981+649418307+647826635
3196+648286892+651227040+653869828+653434757+651454054+651083709+652440851
3183+652555475+650359268+649095761+650673824+653168812+654512075+654028595
3169+653179577+653594134+654231168+654269421+654714512+656157775+657399074
3156+657550597+658378965+660033805+660180860+659191693+658898193+659451612
3142+660509296+661815659+662406586+662237189+662522497+663466369+664420600
3129+664496362+664622360+665966977+666135833+664893247+665075914+666919718
3115+668652148+668498729+667449779+668012406+669303942+668729805+667057430
3102+667184173+668975303+670517888+671383764+671885118+672300555+672158104
3088+671712539+671901232+672172796+673091143+675493376+677010166+676000485
3075+673934135+672353364+671359932+670309696+669728383+671239689+674733255
3061+677910166+679420727+679385859+677942596+676501974+676714838+678020524
3047+679075229+680182879+682084435+683282200+682581591+681742526+681817611
3034+681602039+680894524+680945167+682041036+683529052+684738665+684879559
3020+684054373+683436296+682836703+682020522+682521470+683633859+683888023
3007+684401157+685405828+686401630+687297025+687936226+689280775+691067030
2993+691892486+693022682+695037847+695735274+695254570+695509817+696857142
2980+698587946+699762353+700266347+700262691+700453619+702120916+704613332
2966+705928226+705373250+703883542+702441498+701913130+702026739+701218683
2953+700109746+700137234+701505615+703864179+705319154+704960861+704761741
2939+705783947+706674739+706818612+707537230+709399924+710936483+710840207
2926+710066951+709684351+708491258+705945897+704276095+704971490+706547116
2912+707467156+707495524+705951314+703858356+703826806+705438179+707250297
2899+708889971+709313262+709342036+710537905+711923213+712802968+713818337
2885+714869724+715393217+715413935+714738648+713367897+712687329+713171824
2872+714004457+715054084+715527611+714678526+714231810+715467354+717048599
2858+717843114+718002695+717319283+715932757+715070266+715219419+716021924
2845+716719757+716385025+715856995+715987462+716078864+716801815+719011225
2831+721121244+721846294+721837493+721739659+721704250+722072631+723218196
2818+724784546+725937016+726696935+727387049+727702621+727472086+727243854
2804+728078247+729665789+729918463+729075538+729965314+732365922+733053194
2791+731634982+730644867+731115618+732170730+733246491+734480410+735507017
2777+735348114+734112570+733243444+733316836+733616971+734205461+735601398
2764+736661248+736325500+735694830+735862874+737015547+739361111+741942762
2750+742920148+742590426+742513513+742687514+742867338+743022517+742553120
2737+742052173+742526445+743489816+744196450+744436667+744238495+744146484
2723+744921975+746432265+748029827+749617300+750760698+750742554+749628878
2710+748094891+747246753+747787105+749114389+750302269+751567942+753095497
2696+753976539+753984325+753288253+752065979+751769973+753197664+754478299
2683+754095023+753880534+755254670+756832530+757600911+758102265+759189468
2669+760318784+760503821+760494748+760596170+759925283+759118717+759279245
2656+759683848+759827585+760071932+760344850+760876739+761191363+760633882
2642+760519460+761841464+763364009+763661503+763078565+762799283+763192986
2629+764049926+765288246+766288110+766417223+766209234+765527650+764092038
2615+763697793+765346540+767481135+769267323+771139427+772049041+771779508
2602+772243489+772777883+771905913+771422839+772391491+773501443+774193386
2588+774464882+774131030+773650529+773681606+774214442+775203609+777059532
2575+778831569+778766775+777394129+776569350+776969756+778148225+779556416
2561+780396091+780219449+779835969+779344094+778450120+777974765+778020872
2548+778337460+779239219+780281940+780946260+781212069+780998325+780853166
2534+781119381+781236781+781382481+782116401+783268939+784579230+785640096
2521+785552892+784497645+784284375+785157835+785775099+786401774+787064198
2507+786728788+786060949+786031226+786733934+788507460+790750926+791870356
2494+791350451+790228786+790051197+791061352+791710099+791082476+790335218
2480+790635218+791448217+792154445+793261486+794131086+793588432+793318832
2467+794572657+795408675+794936773+793810301+792680985+793041649+794889853
2453+796260875+796840292+797574686+798037651+797820928+797624381+797567442
2440+797525668+797601768+797549635+797445370+797699669+798172384+798123027
2426+797834537+798406033+799154983+798971097+798812058+799581117+800486939
2413+801224379+802330607+803405285+803749835+803266558+802641237+802925597
2399+804010227+804704946+804208399+803053627+802435617+802954710+804000207
2386+804258568+804048006+804385921+804183958+802341711+799741103+797198180
2372+793764736+789085930+785434341+783399948+781638744+780474493+779012882
2359+776897515+777168469+780389659+784660408+789919105+794663313+795930002
2345+794265345+793111385+792378006+790587892+789152958+789200554+789399809
2332+789043140+790270899+793293984+795550584+796748823+798154036+799636025
2318+800844352+802567709+804717471+806368181+808161748+810563101+812758360
2305+814199659+814619293+814681176+815208867+815932292+816994580+818506766
2291+819703854+820348606+820543731+820579276+821386114+822558964+822451855
2278+821191463+820198302+820284896+821287739+822006357+821710285+821146845
2264+821429174+822765937+823838584+823687399+823476093+824129444+824987195
2251+825443796+825594033+826069456+827196131+828112786+827814140+826830187
2237+826778122+827878527+828675074+828482996+828037092+827853544+828282115
2224+830090781+832132283+832073989+830482588+829468845+829461059+829912582
2210+830892947+832181233+832679608+832281978+831771822+831784280+832476223
2197+833187868+833929370+834612444+834054353+833298633+834000460+834894569
2183+835476086+836343384+836176830+834946567+834719485+835947717+837404250
2170+838259158+838507025+838128758+837560918+837599375+837564642+836604589
2156+835644129+836049071+838039050+840149610+841168432+841731397+842106346
2143+842047578+842078451+842193414+841824491+841241688+841104518+841227064
2129+841241011+841328892+841669041+842417788+843666805+844823473+844601876
2116+843198085+842509257+842599169+842415350+842596190+843749270+845025301
2102+845957461+847092802+848048184+847661725+846388266+845443649+844844530
2089+844785220+845444258+845896120+845956039+846336336+847541820+848954141
2075+849356172+849282983+849563484+849762130+849361250+848472354+848160371
2062+849256849+851248859+852968696+853441207+852362738+850872150+850520965
2048+851162671+852193070+853458878+854206948+853929494+853340665+853125838
2035+853115818+853076414+852908438+853191647+854625770+855950346+855652445
2021+854865783+855383521+856239581+855959554+855713785+856245674+856736466
2008+856877359+856840596+857061313+857834773+858439444+858939037+860198007
1994+860737818+859533011+858408164+857705321+857068151+857692186+859400039
1981+860282164+860248786+861036802+862431452+863489475+864579792+865138018
1967+864390151+863147904+862325156+862333348+863430707+864707483+865005317
1954+865030977+865684531+866549663+867065167+866503691+864405114+862192725
1940+862205995+864373022+866996175+869123256+870258665+869942890+868995633
1927+868612424+868328808+867422377+866288119+865646142+866822919+869246885
1913+869701793+867826507+866581010+867252235+868603351+869674508+870195023
1900+870873289+872065231+872710593+872571054+871762591+869950608+868749526
1886+870006465+872717905+874428331+874598947+875027180+875490416+874948981
1873+874591973+873963538+871801386+871888793+875753313+878906324+878900569
1859+877676670+877864754+878886758+878985471+878478701+878008559+876988045
1846+874840247+873836185+876970645+880511401+880744102+879398267+879463331
1832+880059540+879493866+879233812+879761909+880192512+881907000+884085130
1819+884667052+884347756+884433200+884256558+883118035+882257236+882100297
1805+882071319+882512280+883016274+882936721+882880865+882854460+881522301
1792+880074096+882632118+886491763+887606116+886959400+886798466+887149041
1778+887789799+887711871+884293796+878331646+877677347+881464549+884116815
1765+885856083+886693117+886434417+885858453+885478155+887409704+889979710
1751+888153644+883463803+883412483+885943219+885778223+883467120+882011874
1738+882555882+882279917+878712350+878475519+882774704+886898737+889864544
1724+891300765+891473819+890464002+885870572+879588856+880637467+885842407
1711+889340509+889625952+886111059+881873012+881521015+880604901+875938079
1697+874323253+877493529+882602801+885482014+885480593+884992509+882057778
1684+875453720+875275656+879358186+882099890+881659539+879490413+878486013
1670+877821017+879423182+883837195+886060619+884457032+882949653+882626769
1657+881265361+875176943+862706401+860474311+862170654+861092726+864930097
1643+871830025+874969021+873171527+866223461+858506607+860284331+866214592
1630+870215876+871899287+872516281+873023525+875417362+879387028+881644914
1616+882537128+884708217+886454052+887406590+889425952+893338949+897693652
1603+900370428+901589656+903210440+905015788+905984033+907260810+909461350
1589+911289379+912575093+913741578+914825057+915980236+916498855+914908605
1576+913199804+915161821+915302985+911264870+910853293+914940765+917978813
1562+919017337+913409012+900493380+902838944+911472520+918028102+921938391
1549+923203116+921566963+917135889+912054037+907512807+911386739+921340355
1535+924855586+922808668+923872649+926733717+926019499+923693231+922226001
1522+920589374+921535819+923829385+926956939+932912928+937324909+935991193
1508+927861610+922604809+932209204+941794778+945120774+941945014+937389567
1495+938628632+940998773+937076229+930416111+932447728+939583675+944726665
1481+946314409+944786787+940615225+935225587+930358088+930119768+935433982
1468+938719085+936734049+934646102+935875621+935644680+929474473+924074883
1454+927695260+932747863+936325925+938904529+941032151+942388887+943218270
1441+944809265+945739799+943348264+942695793+946712310+950350155+952512645
1427+954784547+955746902+954406889+951257670+945791593+942667831+945297687
1414+948238376+948794977+948094706+946793691+942917052+937594035+935132967
1400+933568987+930164588+926773527+925579147+926444482+926417603+922785310
1387+916502578+914320792+918031352+922201966+923687070+922841979+919785650
1373+917014088+918345502+922690253+925780230+924803318+921535548+920684025
1360+922932365+924501355+923748410+921902237+920907789+920596618+920144756
1346+919750918+919709482+919043403+916167440+914025329+916149092+919475292
1333+920911581+920770145+921177322+923446109+925728301+926199932+926438185
1319+928222612+930757140+932611168+933769393+935672980+939366140+944244675
1306+948722803+951657670+954286036+957781295+960990501+964225706+968146421
1292+970592797+971511416+972702072+974093946+976609585+980234024+982188322
1279+981931653+981702743+982506331+982893399+982400644+982468146+983261713
1265+984677488+986867534+987883986+986368617+985068551+986526166+989238487
1252+991889197+995136927+996669830+994485810+992807070+994687841+997319931
1238+998250669+998575584+999630898+1000436720+999914784+998911061+998951819
1225+1000580458+1002215866+1002320402+1002007132+1002372332+1002576529
1213+1002193794+1001261094+1000496097+1002058182+1005528390+1007766235
1202+1007433737+1005973142+1005632655+1006555809+1007531841+1008527982
1190+1009386410+1009572463+1010088712+1011497039+1012593314+1013066909
1178+1013253910+1013437796+1013879570+1013529468+1013074560+1014989860
1167+1017407123+1016866839+1015853367+1017760475+1021655801+1024788500
1155+1024832779+1023513687+1023798724+1025069746+1026110504+1026385588
1144+1027445912+1029892153+1029511179+1025827701+1022743478+1021725401
1132+1022952821+1025609488+1028432371+1030193913+1029959858+1029657895
1121+1030825396+1031401631+1030140698+1029224449+1029742390+1030700277
1109+1032567913+1034796280+1034800004+1032632165+1031352207+1032881725
1097+1036362089+1040121057+1042526878+1043238117+1043679214+1045417195
1086+1049903381+1055989633+1058295183+1054088957+1048610626+1046837438
1074+1049432359+1054432356+1055936756+1053979478+1054763161+1057119084
1063+1057175888+1055958150+1054216039+1050104938+1045778265+1047181310
1051+1054440616+1061187396+1062800529+1060043388+1056783471+1056959978
1040+1059071080+1058736686+1057722807+1059239462+1062782588+1066052999
1028+1066571482+1065088747+1064678931+1065793216+1066778185+1068711900
1016+1070482786+1067287054+1061407436+1057920302+1058558623+1063237699
1005+1065951983+1061349752+1055170947+1054001212+1055838177+1056212720
993+1055245625+1055518949+1057521656+1060164444+1062630184+1064386852
982+1064519486+1062271214+1059831472+1060078798+1062514883+1064556588
970+1064722736+1063920366+1061262413+1055821319+1053860386+1059530728
959+1066260649+1069062273+1070948392+1071528757+1066912917+1059755304
947+1056042917+1056176227+1057077649+1058231812+1061564714+1065450900
935+1063770333+1058499178+1058119490+1062280557+1064774123+1064495451
924+1064995924+1065845281+1065093961+1065994976+1068539727+1069914337
912+1071668297+1073741823+1073155974+1070254418+1067884413+1065192200
901+1061336143+1060070673+1061925242+1063702831+1064806486+1064536073
889+1062944944+1064240948+1067759768+1066495246+1062348939+1062835059
878+1065137292+1063289629+1060562210+1061906691+1065871685+1065240000
866+1055085910+1041510291+1033096281+1031692288+1035124513+1038326881
854+1037510903+1036819163+1039394517+1039493366+1032186736+1022488231
843+1018202519+1018826892+1018804956+1016921545+1014846732+1012326490
831+1008700155+1005759127+1004249582+1001710856+997968204+995981476+995785877
818+994964550+993745526+990668480+984692924+981212764+980250882+976485482
804+972053392+970818322+971119947+970239649+968151702+967953395+972133622
791+974519132+968568154+961329837+957345005+950919755+943330389+940921792
777+941888075+941862347+941635468+941406220+939169661+934783136+929987879
764+927366959+926218009+922921329+917363309+912295472+911083963+914016053
750+914978883+909855054+902448152+898424458+899544024+902405227+903202180
737+902213826+901288843+901295478+901738674+900821342+897749035+894116065
723+891985463+892227237+894837391+897109970+895115861+891026358+890134077
710+891998057+892036174+889907604+890420739+892557501+889400969+881706661
696+876826975+877976061+881255341+880591428+876329413+873044310+871663268
683+871581142+873053586+875132664+876039298+874797457+870846816+862705724
669+852929765+853491579+863684871+869999694+869021631+863656841+862227729
656+868104570+875124539+876240246+871071529+867420414+867228674+860235719
642+845979871+836631738+833515355+829207775+827210349+837938237+861715813
629+878538958+867702539+842456582+822636757+810930264+809266893+819398031
615+833401611+836074867+826093356+822274062+827351852+825223891+826021656
602+841782446+849036877
##END=
