##TITLE=Sample description
##JCAMP-DX=4.24
##DATA TYPE=INFRARED SPECTRUM
##DATE=25/8/2023
##SAMPLING PROCEDURE=Instrument type and / or accessory
##ORIGIN=Default
##XUNITS=1/CM
##YUNITS=ABSORBANCE
##RESOLUTION=4
##FIRSTX=4397.6552
##LASTX=599.8556
##DELTAX=-1.9287962
##MAXY=1.7884781
##MINY=0.31693164
##XFACTOR=1
##YFACTOR=1.6656501e-009
##NPOINTS=1970
##FIRSTY=0.43508914
##XYDATA=(X++(Y..Y))
4398+261212814+261278032+261237882+261259657+261694529+261898823+261519471
4384+261010846+260743499+260901184+261508234+261969212+261713119+261053573
4371+260491844+260301917+260379749+260309181+260000002+259513332+259306836
4357+259823226+260357115+259987263+258918734+258295474+258509913+258839454
4344+259023619+259048579+258494365+257534603+257236142+257838272+258214010
4330+258087762+258257989+258708053+258823243+258475614+258075971+258062355
4317+258085186+257583253+257145714+257361817+257602487+257280998+256773178
4303+256678349+256758972+256520432+256331596+256472534+256473107+256225441
4290+256127034+256168723+256103845+255993396+255879476+255724439+255679762
4276+255855840+256187044+256410215+256298549+255901072+255276344+254799979
4263+254854175+255003611+254960920+255040076+255245193+255316816+255129394
4249+254674697+254149719+253987776+254376343+254774894+254605848+254155516
4236+253861116+253653440+253461921+253308977+253246354+253257931+253187417
4222+252974141+252494233+251913091+251677503+251711910+251904127+252206131
4209+252234061+252171671+252478148+252872119+252991085+252711124+252027834
4195+251477592+251476590+251756909+252141236+252538570+252445065+251794698
4182+251278594+251075624+250818350+250557552+250506219+250679005+250904716
4168+250844795+250358840+249637011+249136294+249167087+249381204+249360306
4155+249175622+249124128+249302908+249399687+249347030+249388504+249358481
4141+249200492+249128708+249125470+249119744+248949374+248588146+248252343
4128+248087197+248171649+248288807+248282420+248288557+248156852+247612621
4114+246870574+246464043+246299720+246007109+245869392+246108433+246537169
4101+246932732+247015197+246664973+246022246+245365992+245047097+245227237
4087+245648082+245764722+245348547+244863862+244672915+244643733+244704925
4074+244600988+244204191+244026341+244058261+243737022+243289285+243268602
4060+243520508+243801202+244116053+244107214+243606248+243077566+242647399
4047+242149044+241911739+242112830+242271625+242112526+241972680+242099519
4033+242181394+242101809+242052283+241710862+241139972+241112865+241505583
4020+241678173+241569369+241296762+240955771+240615602+240346430+240309214
4006+240442208+240466076+240242136+239923868+239751189+239794166+240049633
3993+240344086+240364645+240093773+239700536+239398693+239389979+239429199
3979+239063606+238378384+237988439+238120753+238336498+238344943+238245569
3966+238111878+237776505+237410016+237379761+237455212+237364731+236920769
3952+235978059+235009853+234796040+235036906+234788436+234627423+235301265
3939+235927836+235666393+234292246+232796145+233080382+234356175+234302158
3925+233340841+233131751+233017491+232309349+232342879+233783282+235253940
3912+235788293+235319980+233343846+229719992+226513208+225790967+227080698
3898+229614642+231481114+231097449+229791293+229947350+230193297+229193440
3885+228114838+227210382+227198304+229210097+230214053+228656527+226204923
3871+224466489+225034892+226609683+226710470+227242838+229094370+229464222
3858+227193563+222521989+218768326+222718035+228368497+230943898+230235666
3844+227260122+223880856+221104900+220264874+222314796+224709878+226299126
3831+227351928+227582488+227388875+226451444+223294346+220336515+221237804
3817+223393577+226608699+229840497+230487340+228403637+225538238+224101951
3804+222490785+221019160+222695902+225209896+227613066+230076604+231415950
3790+231512283+230490453+228707073+227680931+227364577+226771662+227390253
3777+229166315+229691204+228380163+226392739+225594581+226033587+226818916
3763+226954217+225340152+223569100+223666023+223259671+219973212+215720246
3750+215815308+217965265+219051150+220769097+222690785+222449418+219354299
3736+215120836+215290598+220385558+224690966+225999627+225322135+224806156
3723+225767081+227703189+229603406+230412908+229173919+226681789+228687391
3709+238087795+249709922+261382362+274205063+289492465+304061222+315301241
3696+323809856+328795941+329471483+328774220+330775796+333490882+333968070
3682+330725841+323061170+312553448+301975051+296401668+294534749+291231293
3669+288842705+288252957+285859754+281138260+275701987+270339555+264663954
3655+260006157+255797958+248168625+239169975+238765520+242835053+244917288
3642+244480215+242574595+240310431+238027999+235256892+231274870+225879444
3628+223648560+226112581+227226842+225125534+220806492+217662295+217141700
3615+216710353+216115398+215823503+215271758+215415647+216181546+215587485
3601+213760394+212547117+211943574+211104532+210415642+209415069+206695205
3588+204009910+204931614+207091305+207711274+206920917+205577294+204295936
3574+203525512+202887382+200829123+196652593+193981200+195676192+197885749
3561+198307990+197972044+197671864+196754741+195519384+195275923+195352538
3547+194583402+193911832+194399934+195186408+195154739+194636846+194588537
3534+194499505+193396766+191865847+191097569+191148812+191555451+192211991
3520+192929043+193513388+193854415+193638992+192824051+192015462+191783005
3507+191644358+190876831+190275042+190884776+191932585+192563092+192836755
3493+192650746+192017090+191549868+191558206+191770534+191914836+192115426
3480+192607375+193234680+193611492+193469767+193145630+193186353+193637883
3466+193962360+193524911+192855685+193018773+193964185+194970717+195552127
3453+195724448+195555580+194941731+194425466+194652090+195194621+195503961
3439+195644129+196129888+197209581+198082529+198245492+198256120+198395895
3426+198458965+198445743+198639641+199104519+199649877+200344921+201353135
3412+202461707+203319267+204014723+204719000+205415118+206178118+206969316
3399+207893382+209151318+210384366+211411814+212731318+214460270+216191977
3385+217810551+219543653+221600159+223940688+226424229+229083957+231870809
3372+234619103+237440952+240639649+244197105+247763811+251295789+254840952
3358+258256397+261949298+266434434+271325672+276014404+280508827+285082136
3345+289708443+294471572+299562255+304049735+307101340+309832672+313393134
3331+317490615+321127083+323633259+325455197+327166202+328838525+330612439
3318+332232051+333298218+334336115+335619780+336562204+337268950+337811051
3304+337730393+337585572+337712035+337006649+334917042+332287875+329669121
3291+326541940+322750989+318813536+314953057+311420113+308316728+305336729
3277+302369826+299551985+297398860+296273023+295417520+293914459+292046556
3264+290371424+288689852+287029231+285737370+284751093+283925524+283077894
3250+282020440+280895050+279959694+279070178+277772002+276275203+275206406
3237+274366416+273405384+272761225+272472891+271732757+270479097+269462045
3223+268608367+267613573+266911371+266435328+265667194+264740193+264085639
3210+263837866+263853057+263982186+263841481+262935432+261591613+260714961
3196+260555469+260576027+260415659+260020740+259381662+258739561+258288889
3183+257896654+257467776+257174610+256980157+256682733+256545177+256653121
3169+256621810+256371675+256056377+255597529+254915367+254421718+254396508
3156+254501249+254625243+254804202+254829967+254607315+254123435+253644476
3142+253584340+253737981+253719284+253673855+253708459+253478686+252743419
3129+251925115+251669183+251838981+252028997+252227745+252196380+251954315
3115+251919926+251997704+251925759+251774515+251726313+251651309+251149591
3102+250282941+249748730+249919620+250188845+249984229+249534917+249186500
3088+248961505+248674906+248220709+247690310+247256368+247013569+246792957
3075+246405642+245940979+245481021+244835700+243913351+242981412+242388014
3061+242115174+241782789+241462409+241448382+241305440+240733334+240107389
3047+239637161+239397780+239340704+239026497+238423025+237955249+237472478
3034+236638089+235827639+235449091+235361848+235379687+235396524+235335958
3020+235126582+234708099+234215238+233748624+233412428+233379738+233455316
3007+233293873+232997505+232946423+233147389+233311676+233318332+233304573
2993+233624559+234343347+234991996+235252669+235376931+235760489+236340039
2980+236687471+236683625+236599871+236495040+236080994+235304915+234602356
2966+234259521+234095985+233913663+233541002+232856532+232172759+231943684
2953+231975604+231761683+231499937+231570361+231744131+231653847+231250017
2939+230716451+230081596+229376657+228948208+228839136+228629546+228080896
2926+227368728+226739850+226092506+225310040+224646217+224125962+223562462
2912+223161979+223017409+222990374+223092217+223149812+223020397+222812381
2899+222543567+222301287+222280961+222387331+222271908+221893879+221585863
2885+221494702+221452995+221289960+221085541+220952350+220753943+220377453
2872+219871601+219411841+219180869+219087918+218923094+218654620+218407170
2858+218256642+218113056+217809459+217230106+216378075+215500314+215036688
2845+215070898+215317419+215591726+215770166+215828226+215845814+215857713
2831+215881402+215911658+215994481+216114020+216150789+216130087+216049035
2818+215880311+215911175+216302533+216653706+216642559+216511784+216568842
2804+216695645+216623897+216441360+216375892+216281564+215969504+215687915
2791+215701173+215884068+215949965+215794964+215643989+215665710+215730212
2777+215804590+215857391+215722107+215534202+215440697+215255708+214962382
2764+214805234+214906862+215077375+215101459+215111675+215191815+215212731
2750+215154348+215028261+214915808+214930784+214994749+214974441+214826150
2737+214674530+214668930+214715038+214736330+214806575+214858732+214822714
2723+214828887+214947674+215137923+215406343+215625649+215628459+215546118
2710+215517097+215513930+215552881+215596914+215603391+215642110+215708240
2696+215702926+215561219+215258392+214904017+214755278+214848640+214888952
2683+214746117+214628797+214666586+214761469+214750930+214540875+214324789
2669+214347477+214428905+214318634+214139711+214092297+214151753+214132143
2656+213914179+213636025+213520870+213551162+213554311+213476014+213375853
2642+213296214+213228134+213179145+213156779+213089809+212987822+212989791
2629+213067873+213059893+212986302+212978769+213048996+213090685+213030406
2615+212949229+212923643+212904534+212920046+213014321+213107755+213187697
2602+213289344+213388825+213480809+213525594+213468338+213394998+213447046
2588+213579503+213595535+213421371+213154507+212924502+212800347+212759696
2575+212751859+212692814+212524197+212309328+212083670+211864561+211729743
2561+211674205+211660911+211693171+211660356+211472809+211283258+211211134
2548+211222800+211289914+211320904+211244056+211099773+210944593+210844789
2534+210852501+210950211+211039332+211017164+210937650+210962539+211076996
2521+211178230+211249531+211201025+211027595+210878856+210858083+211052197
2507+211414355+211709990+211797197+211777104+211783742+211827828+211897304
2494+212003209+212124358+212172899+212156152+212121262+212001348+211936631
2480+212104372+212277033+212233089+212105767+212046222+212031783+212012549
2467+211971074+211896266+211775869+211624697+211482167+211453790+211640102
2453+211818936+211706948+211457422+211369642+211469320+211579966+211583706
2440+211528884+211492974+211440514+211357726+211323212+211332122+211371109
2426+211491167+211649693+211741265+211734448+211730888+211854381+212056259
2413+212218095+212300650+212294674+212291597+212378124+212465295+212534396
2399+212681345+212907057+213127025+213281954+213373258+213416737+213392529
2386+213085085+212246741+210916019+209201667+207130078+204728304+202102984
2372+199497130+197091152+194992921+193270518+191911705+191019183+190749653
2359+191183005+192370839+194409023+197509796+200884070+202490978+201425975
2345+199015952+197473492+197382617+198012427+198737602+199291172+199616526
2332+199846173+200460756+201565409+202651508+203480852+204376935+205683610
2318+207230561+208535715+209453448+210221815+211026897+211895157+212806716
2305+213646367+214333574+214948962+215480543+215892817+216283818+216606470
2291+216776071+216943650+217264656+217681350+218009442+218110801+218005380
2278+217844492+217778452+217803304+217850397+217979758+218167377+218235064
2264+218183283+218200746+218387202+218547803+218482908+218425312+218576646
2251+218725778+218796238+218944028+219056410+218969221+218898671+219029554
2237+219223864+219370599+219496471+219612789+219675090+219665464+219678937
2224+219757466+219770599+219699012+219708728+219829805+219954013+220013362
2210+219989780+219958683+219991193+220067003+220198547+220346982+220385468
2197+220344477+220368524+220462656+220517514+220508997+220533813+220621289
2183+220687777+220720019+220790622+220872425+220865286+220818301+220857467
2170+220969205+221050633+221088099+221151653+221206296+221205741+221243709
2156+221352530+221454122+221519912+221600356+221734584+221886060+221979065
2143+221970476+221966307+222077920+222152996+222113776+222165180+222313830
2129+222419448+222530344+222636678+222676471+222743800+222839702+222859384
2116+222911057+223115620+223339363+223475738+223559134+223617266+223700984
2102+223852890+223989516+224045000+224167312+224450672+224797371+225249080
2089+225846004+226356525+226707858+227121868+227607877+227968890+228184993
2075+228393510+228659157+228934502+229172166+229322890+229503102+229961699
2062+230533824+230880684+231052397+231261128+231558749+231862435+232155082
2048+232421910+232570595+232689382+232987468+233520300+234124595+234622824
2035+235023558+235311195+235448662+235594752+235782801+235803287+235689689
2021+235572137+235337926+235168200+235394359+235752330+235941147+236074105
2008+236279670+236563728+236828463+236963979+237057592+237279045+237391677
1994+237013648+236655659+237067236+237901124+238689674+239431579+240101163
1981+240677331+241222259+241837575+242536592+243311615+244009809+244408020
1967+244979715+246260929+247697180+248744202+249525488+250132234+250667643
1954+251305826+251877646+252087452+251889348+251330446+250616310+250637763
1940+251679257+252602929+252987954+253256231+253607600+253981889+254273981
1927+254208889+253592892+253247911+253633848+254065106+254972658+256510609
1913+257409089+257342619+257311808+258058651+259049241+259699805+260084382
1900+260197766+259792487+259178155+258921293+258524585+257958723+258301396
1886+259052801+259299644+259300002+259260030+259222456+259238899+259082038
1873+258026749+255651474+253776754+254937714+257322830+258526660+258750225
1859+258888729+259250923+259651603+259809789+259566239+258804599+257393648
1846+255776165+255966164+258278637+259881126+260194832+260348115+260230330
1832+258752765+256941134+257105331+258224495+259399268+261021904+262135932
1819+262411098+262493385+262302939+261407393+260701488+261313906+262451284
1805+262787373+261922405+260887300+261133784+261820777+261268048+259805567
1792+260199949+263097572+265093942+265412085+265200741+264897771+264880881
1778+265171004+264376675+261957349+260162679+261814855+264957674+267290795
1765+267842290+267155780+267196557+267626401+267766355+267925113+266601602
1751+263600346+262142910+263663381+265487305+266192297+266264117+266788791
1738+267049160+265271971+263631729+265935632+269266750+271996669+273462103
1724+273541383+272721987+270007366+265275728+263773937+268171347+272509158
1711+274359187+273655769+271494647+270130519+269389563+267572438+266167248
1697+267619227+272367738+276715640+277435000+276079139+273702504+269898170
1684+268914236+273664375+277461176+278701077+278470320+278431798+278048581
1670+277741567+281054632+284892585+285935814+286813575+289537213+291158793
1657+289386005+284467142+283304231+288281925+288811716+288650077+294079283
1643+299385515+301003355+299533574+296100112+296366116+302862223+307337375
1630+308868491+309944177+311287710+313134375+316702030+319442165+319793534
1616+321656517+326100572+328867295+329698679+330214121+331180914+332016699
1603+332616306+333368034+333861682+333677893+333456636+333931212+334821891
1589+335751182+336522054+337085268+337757911+338150003+336956551+334452307
1576+335181562+339047875+340163961+340046981+342405152+345341208+346711150
1562+345490143+340786614+340151830+348624553+355419515+360410323+364291809
1549+367902977+369785391+368439103+365402778+366188716+379318126+391143402
1535+396420237+402596304+411478475+417813389+422199330+427072336+431665756
1522+438670380+449287067+459231575+470592904+482185938+490141287+493553887
1508+495521897+510793447+532531097+544953582+553146327+561495485+574105232
1495+588774025+598736497+605436665+615546320+630404807+644114537+654975812
1481+664791889+673716572+680444366+685613954+693358747+708700398+725284348
1468+737516316+748397129+761326969+772506584+778534430+781867123+790402254
1454+803753780+815923269+825551763+832155384+838163335+844913458+851864906
1441+858641581+862778855+864563792+868608312+873634547+877067007+880962234
1427+884828976+885057068+883232482+880384456+872703646+864173882+861217644
1414+859365432+855191944+849231945+843193292+837650183+832580291+827745145
1400+822050597+817214163+815577732+814964456+814345096+813204497+808970103
1387+803104289+801135420+802410855+803612503+803871583+803045961+801407812
1373+800981403+802656051+804205024+804370564+803473587+802075339+802088579
1360+803632685+804921575+806249972+808010432+809777619+811196908+812307663
1346+814023249+816707667+818833631+819329463+820437927+824217784+828578354
1333+831690327+834052541+835438265+835440770+836033506+838396006+840747270
1319+841407639+840985023+840885399+841749955+843580266+845902759+848784423
1306+852581815+856599210+859920452+862826234+866066244+869676483+873560258
1292+877595976+881482113+884773009+886602820+887103089+887032665+886030695
1279+884512784+884184496+884431123+883084262+880818165+879431082+877873163
1265+874653693+871601623+870876054+871392856+871240986+870041772+868760253
1252+868693408+870064817+871878310+873116959+873402520+872705579+871887471
1238+871988527+872538679+872514918+871621376+870052006+868913626+868999509
1225+868750234+867092118+864587624+861488533+858454785+855653065+852970793
1211+850740982+848525915+846029795+843370068+840582947+837637873+834846602
1198+832752129+830565975+827484848+824792915+823617247+822898048+821786721
1184+821163067+821674429+822742456+823550473+823942529+824342673+825655968
1171+828030993+830133124+831151340+831750517+833470254+837251972+841671444
1157+844468369+846095782+848148745+850086339+851688201+854086629+857474645
1144+860700055+862947257+865365009+868614252+871593393+874202878+877153678
1130+879544591+881006464+883769537+888199100+891781855+893837395+895879337
1117+897734554+898480664+900092975+903793462+907438984+908998191+909121934
1103+910339756+913631511+917812514+921531036+925073856+928895653+932473399
1090+937452900+944400840+950613264+955646441+961234066+966134125+967753808
1076+970022695+977124653+983509917+985187213+986694318+991042649+996387225
1063+1000124140+1003116593+1007004019+1010861385+1013915030+1015510809
1051+1016353823+1017409111+1016793043+1015448472+1017355434+1022992656
1040+1028469133+1029782786+1028132042+1027499656+1028491606+1029534799
1028+1030897692+1033084561+1035580323+1039351020+1043424024+1044439950
1016+1044481388+1046070798+1046267971+1045431684+1046438019+1048464788
1005+1049826393+1048286652+1044325940+1042523183+1043246103+1043376359
993+1042926046+1042859415+1042451112+1042457124+1044454120+1046816191
982+1048614797+1051911705+1055310743+1055325414+1053093385+1050848258
970+1049199661+1048908231+1049208106+1050926412+1056065011+1061478650
959+1063489173+1063499551+1064859939+1067000932+1065838648+1062385361
947+1060981602+1061277684+1060412269+1058854565+1059706167+1064160135
935+1070270930+1073619368+1071399147+1066840044+1064376059+1064441831
924+1065752908+1068214746+1071660160+1073741823+1072743575+1070928651
912+1070080556+1069479231+1068894439+1068618182+1069504281+1071155383
901+1072362183+1072876408+1072201439+1071548584+1071771808+1071880880
889+1071398790+1069385118+1067065845+1065964037+1063423831+1059395556
878+1057105985+1054941589+1050691164+1045879421+1041366481+1038141786
866+1036275547+1033784794+1030335587+1025515471+1020000060+1016407142
854+1012613329+1005496842+997924245+992688813+989572832+987350035+982722011
841+974340968+965911974+960347180+956253349+951934217+947899931+944470334
827+942323687+941829644+940477630+937528691+934014929+929113653+925754551
814+926687671+927214277+925551581+925114866+924722666+922690029+920821642
800+919835275+917968607+913253196+907917209+906088401+906376682+904836011
787+901455582+898150443+896463485+895787013+892694936+886919442+882431264
773+880825251+879691236+876811577+873355928+871803019+870748303+867719851
760+865778321+865865278+862764327+856751008+853002856+852235634+851828978
746+850278502+848731820+848752002+849641608+850091349+849847083+849225289
733+848477033+846867226+845775080+848807683+854595701+858570370+858631633
719+854962780+850596341+849235166+851996736+855522308+855582927+852997918
706+849274314+844360371+839338000+835110406+832951306+834356925+837566304
692+838235691+835076482+830653933+826668673+824909644+827962072+831874690
679+829146972+823704347+824707747+827968012+823753300+816556155+818700155
665+823798460+821500301+816234165+815308561+819692963+822214418+817173869
652+809151531+804307225+801978148+800922072+801443526+801477879+799598686
638+797663167+798435399+805121397+815309920+816055385+804225851+793105997
625+790599070+793447382+793012742+786572513+779584852+771166020+761157780
611+760373882+769827962+776669837+779610474+781695500+775319612+764943076
##END=
