##TITLE=Sample description
##JCAMP-DX=4.24
##DATA TYPE=INFRARED SPECTRUM
##DATE=25/8/2023
##SAMPLING PROCEDURE=Instrument type and / or accessory
##ORIGIN=Default
##XUNITS=1/CM
##YUNITS=ABSORBANCE
##RESOLUTION=4
##FIRSTX=4397.6552
##LASTX=599.8556
##DELTAX=-1.9287962
##MAXY=1.8062043
##MINY=0.30623499
##XFACTOR=1
##YFACTOR=1.6821589e-009
##NPOINTS=1970
##FIRSTY=0.46394265
##XYDATA=(X++(Y..Y))
4398+275801922+275685506+276106118+276414549+275962241+275465925+275286951
4384+274890805+274528002+274612724+274895801+275037198+274950404+274725225
4371+274554347+274679959+274770898+274556757+274710821+275176735+275051053
4357+274477120+274166068+274076581+273798109+273444501+273413497+273687823
4344+273903789+273980574+274101366+273938886+273310173+272907756+272989572
4330+273255978+273715921+274019019+273518292+272461525+272027182+272573796
4317+272891155+272687201+272862950+273095961+272861746+272722687+272869346
4303+272770806+272309835+272002361+272020981+271803899+271083502+270375188
4290+269994792+269683120+269475232+269891805+270732764+270932715+270430499
4276+270158778+270322392+270565217+270778633+270965260+270988576+270772308
4263+270438613+270082011+269866133+269979591+270269011+270549803+270802249
4249+270799308+270374638+269920559+270075563+270712372+270843919+270188064
4236+269570601+269430958+269126904+268299994+267856562+268268564+268711943
4222+268464617+267863932+267702799+267693267+267237328+266947093+267292037
4209+267904982+268429521+268758148+269056604+269219438+268817198+268010184
4195+267424239+267360370+267450619+267175408+266837975+266981162+267212542
4182+266970337+266605213+266623231+267000987+267501519+267577294+266836611
4168+265816855+265273749+265233391+265168264+264969925+265039233+265325765
4155+265504314+265499460+265344581+265327608+265516734+265322576+264593870
4141+264097041+264341779+264800943+264758104+264356785+264135078+264147498
4128+264158270+264223839+264415623+264429052+264048851+263498375+263273710
4114+263442107+263437820+263115216+262849146+262854940+263152527+263421237
4101+263162768+262535950+262323226+262683460+262959716+262786234+262410587
4087+262238823+262343671+262391843+262259995+262012227+261403853+260629243
4074+260415030+260707940+260962388+261011835+260906686+260849266+260893416
4060+260860463+260720944+260575065+260587750+260745163+260584207+259882023
4047+259225335+259181628+259651068+260190506+260254162+259662016+258960009
4033+258524763+258214083+258156202+258289733+258061932+257619669+257574208
4020+257943017+258403085+258831528+259089519+258915239+258481853+258036065
4006+257561435+257190712+256898776+256737200+257059821+257640540+257866552
3993+257646475+257286011+257118747+257193388+257239912+257196949+257081737
3979+256707436+256012480+255437006+255687024+256384248+256441048+256051989
3966+255894682+255761045+255539072+255586765+255988492+256276973+255714591
3952+254222490+252756698+252512845+253174192+253398822+253391435+253994830
3939+254700327+254607510+253337540+251861916+251924509+252833819+252741568
3925+252022252+251886276+251829618+251148127+250823273+251720837+252807598
3912+253444213+253509871+252015643+248787995+245954881+245477468+247003019
3898+249574351+251169777+250447396+248913961+249289662+250078091+249204905
3885+247853226+246920441+246841797+248512199+249380938+248066394+245950115
3871+244416964+244770377+245622356+245144093+245627635+247811326+248549617
3858+246504860+242114943+238674074+242268033+247276087+249569781+249206198
3844+246951658+244003367+241186924+240267373+242268742+244494953+246038840
3831+247318926+247903046+247950916+247081486+243881405+240629237+241182424
3817+243121217+246026917+249134339+250179519+248698189+245860238+243932465
3804+242334949+241043844+242088758+244096947+246637080+249179588+250554174
3790+250910865+250241014+248954426+248328743+247976765+247152229+247593889
3777+249351263+249924593+248543558+246510636+245918260+246608220+247615610
3763+248094528+246780426+244778721+244096947+243102153+239697108+235795144
3750+236452718+238411140+238766927+240194398+242193871+242147400+239662029
3736+236308503+236887734+241606030+245217688+246013771+245150099+244411808
3723+244895120+246598369+248721380+249777792+248567334+245833645+246916172
3709+254626467+263931212+272689504+282527877+295512702+308866195+319741315
3696+328346569+333555637+334322203+332747046+331974845+331256397+329129258
3682+325430151+319872489+311972324+302592672+297304588+295537984+292121635
3669+289814087+289797752+288622089+285707176+281852658+277362552+272513754
3655+268920203+265610438+259346376+252906511+254037474+257591801+258777651
3642+258145377+256780021+254771318+251980405+248617366+244366489+238686901
3628+235623310+237105525+237686740+235359047+230789358+227267896+226577246
3615+226376427+225896074+225105944+223856526+223438199+223743936+222927125
3601+220872057+218764530+216888933+215354010+214557201+213597239+211154831
3588+208457763+208223264+209111049+209322958+208716321+207535785+206210363
3574+205193902+204056719+201438721+197118111+194609549+195938284+197490605
3561+197623657+197261510+196813366+195719341+194369434+193741271+193024807
3547+191503809+190612694+191118506+191625346+191237846+190495002+190094782
3534+189870329+189068488+187567333+186392343+186049826+186059765+186391015
3520+186991080+187331099+187286984+186929780+186123333+185146132+184643438
3507+184530955+184192973+183967085+184353628+184557424+184167939+183935673
3493+183980160+183529057+182784353+182575579+182682730+182667493+182952662
3480+183726032+184239019+184069612+183693433+183572977+183528685+183213221
3466+182728634+182310077+182048791+182090744+182512118+183180888+183703053
3453+183709307+183240044+182585075+182149404+182240237+182707037+183178319
3439+183493624+183825281+184178286+184313518+184425966+184693506+184799788
3426+184668153+184543002+184764178+185590503+186722459+187755255+188591997
3412+189239880+189874917+190643876+191467898+192280032+193143278+194030974
3399+194801527+195627037+196764964+198065069+199359753+200814614+202525304
3385+204348017+206476149+209061655+211501317+213524618+215801198+218513449
3372+221052892+223541133+226598559+230064957+233508625+237019511+240796501
3358+244594237+248369633+252641220+257450351+262294135+266817885+271050371
3345+275301337+279735564+284363877+288946004+292989010+296420400+299677990
3331+302913876+305757444+308210358+310585814+312803734+314677064+316153787
3318+317530871+319000225+320232634+321227003+322393931+323720204+324514941
3304+324481598+324149091+323693700+322862361+321509938+319602841+317077643
3291+313686629+309919241+306698485+303622084+300024989+296439446+293412918
3277+290984311+289051967+287250674+285372667+283619598+282225311+281154796
3264+279940458+278225515+276412866+275012324+273938036+273050340+272361443
3250+271629566+270641239+269519612+268486196+267549868+266553232+265551140
3237+264725293+263919431+262782549+261392638+260210136+259602116+259496347
3223+259245443+258590049+257910064+257002366+255779523+255094489+255168704
3210+255374360+255383856+255047575+254458406+253958617+253660268+253678091
3196+253769722+253359598+252508575+251662160+251264384+251213803+250852258
3183+250337198+250105428+249872648+249427179+249126119+249437100+249957050
3169+249891498+249535392+249435098+249439279+249409852+249308034+249061028
3156+248743810+248487644+248443246+248638431+248898937+248951999+248799883
3142+248848693+249114178+249263157+249234120+249097364+249023822+249089091
3129+249190749+249339038+249435594+249385102+249377094+249391090+249253892
3115+249128280+249166336+249319638+249443832+249251553+248688286+248162046
3102+248010763+248042405+248092561+248367897+248738424+248738495+248408167
3088+248288065+248463921+248433342+248133363+247936034+247736260+247367257
3075+247074063+246709506+246132154+245800621+245698927+245418489+245089136
3061+244939111+244795570+244529040+244333731+244208686+243960882+243630802
3047+243312345+243116043+243165880+243265307+243046771+242498014+241858635
3034+241308903+241077009+241136467+241230790+241460488+241748278+241668818
3020+241314590+241041859+240878618+240772388+240724713+240698669+240716439
3007+240791965+240857960+241016790+241314502+241531602+241765693+242321963
2993+243001009+243507193+243992436+244548634+245073882+245648080+246290347
2980+246782800+247079520+247328528+247344845+246926536+246452702+246236435
2966+246064972+245791036+245487886+245058840+244576219+244443645+244616224
2953+244684203+244587806+244552213+244678285+244916061+245097374+244842696
2939+244231930+243796737+243545567+243440631+243685352+243966144+243803842
2926+243194900+242419582+241674027+240952213+240284754+239845237+239672340
2912+239753996+240117012+240470566+240580268+240608774+240559150+240421845
2899+240415999+240495901+240503201+240419950+240356081+240526126+240709051
2885+240545136+240252243+240094724+240057997+240131982+240241312+240187294
2872+239849737+239387597+239136941+239238883+239442979+239469023+239439277
2858+239513208+239517177+239287905+238808438+238159545+237623509+237428536
2845+237492494+237660395+237913637+238224637+238568199+239009009+239421330
2831+239564321+239519516+239572967+239849294+240291167+240737469+240942362
2818+240873250+240851405+241105268+241446934+241593629+241632995+241739508
2804+241873021+242112905+242430708+242510451+242375821+242359239+242539719
2791+242787080+242981822+243035468+243018867+243095634+243185227+243130819
2777+243081319+243218198+243406668+243465364+243433297+243430178+243501453
2764+243607682+243784832+244120457+244462691+244600279+244582544+244536640
2750+244486573+244501242+244700732+244990188+245167568+245195454+245156512
2737+245181192+245311516+245490526+245718575+245971322+246163601+246337615
2723+246616175+246954139+247240618+247476303+247674553+247845200+247975011
2710+248026265+248135542+248430082+248687453+248796659+248963001+249159284
2696+249274957+249368164+249439368+249473455+249506638+249611627+249745920
2683+249745495+249619175+249507613+249523912+249670341+249818435+249880071
2669+249888894+249921457+249978665+250034206+250105304+250174062+250254372
2656+250390862+250503646+250500687+250424807+250406559+250589395+250933117
2642+251173320+251168111+251101869+251184854+251340548+251423551+251417952
2629+251367371+251399350+251592480+251841559+252046116+252250106+252444848
2615+252540784+252613618+252757070+252908016+253009746+253124160+253325723
2602+253531078+253630965+253656459+253744422+253987283+254246425+254367306
2588+254399639+254389187+254320977+254285207+254377494+254559692+254743220
2575+254843301+254866546+254867680+254766995+254506595+254263433+254203657
2561+254206332+254224067+254454384+254775570+254842238+254730729+254632862
2548+254533649+254550869+254666861+254690973+254767155+254928094+254933302
2534+254846916+254883784+255049063+255228782+255386301+255532694+255624874
2521+255706247+255855652+255998360+256067508+256133857+256291554+256572931
2507+256907174+257178169+257355726+257465569+257532007+257632479+257797988
2494+257931625+258004671+258123958+258334450+258493316+258493564+258449006
2480+258459318+258547954+258686127+258743387+258724997+258752901+258855534
2467+259037945+259259493+259423744+259507527+259473900+259329119+259280026
2453+259387301+259462455+259475194+259576037+259759990+259832416+259795919
2440+259858388+259993744+260017697+259986693+260057613+260155002+260188557
2426+260275493+260506537+260785043+260982443+261147439+261371431+261541529
2413+261552354+261561921+261720415+261958368+262170348+262341191+262541478
2399+262805918+263099997+263372037+263545466+263650544+263780975+263890039
2386+263735513+263103452+262012085+260459977+258417417+256073284+253658284
2372+251217523+248802417+246658075+244838621+243284370+242288584+242145664
2359+242809899+244149353+246377229+249816893+253506203+255310243+254336001
2345+251921426+250314804+250078055+250562483+251409254+252332223+252977129
2332+253374745+254058575+255232130+256463884+257433059+258430581+259825063
2318+261437125+262845160+263883058+264701659+265583455+266690980+267869070
2305+268815267+269490769+270057403+270591686+271104833+271581554+271990898
2291+272347837+272746321+273249458+273729935+274057677+274247866+274314906
2278+274318502+274416157+274660452+274905935+275039750+275172093+275422820
2264+275695339+275857181+275980223+276229870+276587907+276900288+277114748
2251+277232689+277305150+277452712+277634964+277801112+278053149+278335448
2237+278493906+278553469+278659256+278913367+279236360+279466872+279607702
2224+279749206+279860892+279949830+280115251+280279927+280385997+280550781
2210+280782497+280998606+281135060+281214112+281323247+281459524+281632085
2197+281827429+281956371+282058898+282179159+282260709+282362297+282604183
2183+282953379+283271766+283477794+283622203+283801000+283954125+284005415
2170+284111893+284357818+284612372+284852717+285106137+285299408+285401634
2156+285508377+285746401+286071556+286296877+286377258+286423392+286517397
2143+286729111+287036248+287286958+287496847+287768143+288018516+288146750
2129+288219229+288410303+288773584+289092910+289164752+289127051+289213738
2116+289494105+289890109+290179990+290325958+290488668+290645337+290806223
2102+291150069+291688249+292224764+292643269+293037572+293547848+294229268
2089+295065852+296031607+297125047+298267952+299279860+300071265+300692590
2075+301201981+301632958+301981091+302177782+302240960+302499270+303208115
2062+303952784+304307083+304541050+304955798+305407362+305770235+306085876
2048+306265169+306278776+306345851+306570074+306871719+307189344+307483937
2035+307757802+308057817+308364245+308561857+308600622+308565790+308579468
2021+308572842+308372749+308280658+308723576+309365027+309707455+309829913
2008+309989576+310254087+310562889+310823679+311065512+311438307+311824071
1994+311869603+311824921+312269115+313062965+313950749+314855152+315637699
1981+316416597+317346263+318357640+319335850+320323379+321241247+321898537
1967+322757372+324345356+326238493+327959530+329457053+330682872+331767772
1954+332994407+334294388+335273626+335699855+335611129+335253323+335466526
1940+336574104+337496577+337735044+337633740+337430636+337313138+337343328
1927+337063049+336098835+335254315+335120377+335157901+335622929+336461567
1913+336579206+335885880+335345839+335558475+336066520+336346125+336366286
1900+336175300+335742304+335397324+335538703+335563542+335351473+335898813
1886+336877839+337560074+338126158+338603588+338916891+339107841+339147881
1873+338565533+336829968+335302115+336396936+338773846+340208899+340739692
1859+341070038+341425754+341772505+342052181+342061607+341573901+340533115
1846+339258469+339393860+341465262+343005589+343266166+343285902+343095731
1832+341626768+339653020+339402187+340201742+341196677+342690833+343810919
1819+344211742+344420055+344355212+343659689+343120393+343682579+344560620
1805+344629112+343686513+342651042+342849611+343637933+343300891+341930432
1792+342266022+345171138+347296257+347745624+347652788+347465700+347500176
1778+347856247+347244595+345055199+343414455+345140240+348312240+350640003
1765+351315399+350818020+350910714+351427688+351779931+352292157+351487003
1751+348810256+347170858+348381051+350146167+351051739+351361994+351897748
1738+352101348+350393032+348588833+350607191+354029458+356900238+358362292
1724+358344823+357553063+355261832+350971872+349112043+352981408+357246458
1711+359121099+358401658+356085553+354428438+353571020+351681001+349988311
1697+351081468+355246915+359154477+359762585+358342555+355984497+352185006
1684+350781524+354938041+358244015+359143918+358766304+358480214+357677435
1670+356741213+359081626+362203948+362810391+362913928+364590070+365515060
1657+363546024+358634243+356476135+360332036+360903187+360676838+365306853
1643+370211866+372110672+371266152+368641882+369657333+376441239+381315708
1630+383652543+385601664+387513758+389520459+393120920+396301707+397410136
1616+399970307+404912596+408046505+409103696+409860731+411227399+412511789
1603+413560725+414840580+415923177+416207708+416262878+416946069+418016548
1589+419170332+420357351+421313026+422085439+422565208+421817315+419872693
1576+420579271+424227354+425561741+425576517+427840890+430942803+432493865
1562+431350252+426893152+426464124+434811920+441236920+445600688+449029297
1549+452504819+454518961+453396891+450048327+449407938+460500655+471378396
1535+476236708+481591088+489425063+495026414+498708230+502745833+506368369
1522+511613614+520093930+528229019+537450106+547122934+553811276+556408085
1508+557457553+569167625+586626133+596666795+602909314+608937956+618338798
1495+629677493+637604941+642703315+649777881+660843030+671819666+680791621
1481+688889788+696335980+701956855+706032903+712358194+725336464+739426281
1468+750094292+759358715+769973009+779804012+785408587+788029881+795817013
1454+807629808+816911238+824361328+831242286+838486011+845039989+850254868
1441+855793041+860843225+864597254+870655731+878073293+883072453+886527566
1427+890260193+891883965+889567754+884575680+877889465+872391686+870300689
1414+868071430+863406904+857469750+851896498+846704014+842687990+840037570
1400+835898308+830347308+826889148+825745853+825574426+824612976+821216186
1387+817196690+816828537+820291516+824522833+826365796+824685048+821606450
1373+820962625+822482081+822876667+822171967+821539835+820027395+818278472
1360+818902455+820244956+819363940+817569024+817616009+819640746+822860935
1346+825962068+827503847+827098418+825394708+824763851+826567058+829693137
1333+833421937+836255335+836889735+837022752+837682735+838045574+838476373
1319+839444556+841536403+844862043+847901238+850805007+854474067+858298396
1306+862236396+866714755+871421093+875763388+879358959+882872467+887487670
1292+892298111+895757335+898425330+900816235+902747215+904417050+905583660
1279+906036358+906494937+907359016+907969605+908201127+908348389+908131961
1265+907474529+906400684+905327618+905509321+907056415+908640502+909690252
1252+910586293+911443852+911946298+912313955+913602456+915783667+917344367
1238+917462644+917157633+918205187+920696511+922613884+922388315+920393484
1225+918012287+916886709+917167413+916687432+914687711+912479075+910506355
1211+908307002+905322233+901773292+898630347+895907572+892541681+888598933
1198+885642439+883932847+882177334+880090660+878180798+876543065+875548662
1184+875555749+876128778+876190857+874672535+872174762+870679472+870654739
1171+870499187+869801928+870027568+871759199+874140821+875802294+876746949
1157+878368454+880777288+882584251+883057146+883990958+886919176+890369045
1144+892798715+894790073+897487761+900012392+900910346+901246255+903273826
1130+907096101+910017515+910906611+911834966+914456614+917894223+919966441
1117+920815851+922271101+924322838+925692198+926049721+926617577+928827914
1103+931661383+932842592+933627088+936210893+940148113+945437756+951855316
1090+957558538+961644791+963978649+965878801+970182403+976081359+980885848
1076+984293834+987105830+991574694+996373725+998149082+1000993393+1007842461
1063+1013255200+1014146634+1015238621+1017709039+1017116592+1016370435
1051+1021284484+1027929456+1028289459+1023580853+1021751497+1023195125
1040+1023345930+1023849226+1025974948+1027055667+1029167925+1034027831
1028+1036920828+1037015506+1038172266+1040074828+1042359788+1046330528
1016+1048405013+1045658143+1043430515+1045714340+1047513650+1045059106
1005+1042955494+1044089647+1045714270+1046640783+1047156977+1046438104
993+1045079161+1043568989+1041093114+1039754864+1041714970+1044414430
982+1045787262+1046700311+1047032535+1046844596+1047889031+1050267323
970+1051494665+1050870966+1050872738+1052046222+1052488431+1051837023
959+1050934321+1052370013+1058023415+1062804376+1061803382+1058749800
947+1058163519+1059961411+1062081605+1063191380+1064767175+1066872416
935+1066842156+1066126614+1066897291+1067543242+1067655282+1068302297
924+1069515537+1069736854+1068587252+1067742165+1067262680+1068345880
912+1071637361+1073547790+1073049808+1071103734+1068216264+1068597103
901+1072540984+1073623759+1072732679+1073741823+1072711206+1068720057
889+1065867383+1065472867+1066876952+1068119885+1068118397+1066523822
878+1062119590+1056391139+1053026311+1052875577+1051026236+1043848346
866+1036394429+1032560391+1028559604+1021592472+1015019926+1011907029
854+1009434839+1003860595+996559822+990422966+985742140+982121765+979646528
841+977048337+972833177+967694055+962206056+955138506+947230616+942500042
827+942662681+943715904+941973926+938944511+936072419+932516179+929290108
814+928466352+929261832+929672505+930212086+930798438+929603552+927645501
800+925317454+920209301+914660357+913974366+915878345+913237563+905985688
787+899748626+896981559+895716657+893902111+891503552+888293780+884555554
773+881698557+879656246+877390066+874276106+870140175+866306704+864408465
760+863942303+863824805+862973340+859927625+856348850+855569527+857266363
746+857742446+854979702+851715646+850820314+851142404+850529264+849025470
733+847371438+846608060+848592332+853009391+857965039+862223427+864060863
719+863025640+861505192+861986945+863369769+862659117+859808711+856055886
706+852797074+850840370+848247564+844885429+842740573+841833832+841513017
692+839549297+835565163+834353057+834837644+831999144+828752167+827647211
679+827371751+829724601+833808799+833994683+828384935+818667956+813221272
665+818105203+823368129+823656132+819534233+813670781+809966642+807849637
652+806611735+809021349+812051970+810416150+805220264+799764155+795512499
638+795970440+808858426+829788594+833992628+819002731+809020002+808898962
625+807425144+799188007+787957809+781649952+783883037+789667685+792814385
611+791688098+787324543+784155591+785558046+787413765+784205835+778126594
##END=
