##TITLE=Sample description
##JCAMP-DX=4.24
##DATA TYPE=INFRARED SPECTRUM
##DATE=25/8/2023
##SAMPLING PROCEDURE=Instrument type and / or accessory
##ORIGIN=Default
##XUNITS=1/CM
##YUNITS=ABSORBANCE
##RESOLUTION=4
##FIRSTX=4397.6552
##LASTX=599.8556
##DELTAX=-1.9287962
##MAXY=1.9494056
##MINY=0.73696601
##XFACTOR=1
##YFACTOR=1.8155254e-009
##NPOINTS=1970
##FIRSTY=0.80502975
##XYDATA=(X++(Y..Y))
4398+443414204+442435822+441606818+442082434+443357998+443588502+442173539
4384+440452497+439487477+439974321+441736532+443140234+443481146+443216105
4371+442530801+441389316+440069858+439841423+441382094+442899980+442830609
4357+442579554+443367815+443751242+443012359+442615208+442674434+441942084
4344+441242203+441847302+443022963+444172195+445252254+445663029+445107800
4330+444194947+443961226+444598664+445214367+444929464+443957352+443805347
4317+444784353+445303469+445111312+445408002+446291668+446868599+446618627
4303+446009096+445726753+445436269+444905334+445041219+445979384+446746765
4290+447006257+446802872+446286415+446050528+446242554+446974641+448392526
4276+449502953+449626822+449354132+449169165+448715677+447563555+446700966
4263+447079010+447774787+447579150+446483004+445661552+446160674+447507120
4249+448760162+449750429+450126536+449455151+448662853+448686392+449328852
4236+450346500+451108956+450549360+449076780+448410517+448975530+449871475
4222+450726842+451398292+451410406+450594994+449719930+449799084+450522472
4209+450760920+450205296+449638608+449873347+450489608+450898414+451913796
4195+453407191+453555290+452713515+452426708+452455697+452612299+453074618
4182+453492058+453527219+453067888+452600512+452651892+452922777+452788434
4168+452646475+453382798+454197881+454074734+453629322+453421078+453626827
4155+454287771+454627075+454222865+453655685+453358044+453157351+452736102
4141+452544602+453145007+453722331+453511691+453197700+453660479+454851636
4128+455773714+455589140+454978690+455131056+455839276+456364138+456571495
4114+456261608+455594360+455058533+454646707+454866935+456168468+457431918
4101+457581723+457012146+456721531+456897863+456889196+456547890+456263414
4087+456357604+456811847+457342815+458043090+458863131+459263467+459000954
4074+458462927+458242109+458186626+457616162+456722319+456748813+458039348
4060+459251385+459721912+460266570+461140683+461457268+460812443+459847522
4047+459134147+458971406+459521285+460505117+461056571+460694089+460295790
4033+460623701+461274369+461295939+460424058+459771519+460123987+460810671
4020+460988284+461092718+461857505+462487227+462256494+461756321+461364226
4006+461202372+461293411+461050465+460808307+461779795+463601396+464643897
3993+464008134+462541397+461871917+462014631+462130917+462332234+462503084
3979+462194280+461910789+462259711+462933361+463348929+463393087+463419318
3966+463642894+463628974+463258481+463524737+464514741+464719308+463888926
3952+463579564+464276851+464804372+464648854+464277968+464258860+464990751
3939+465756884+465825795+465624380+465440102+465040128+464692584+464335224
3925+464250653+465171943+465659673+464502824+463100632+463090455+464776696
3912+467172536+467975571+466025011+463093771+461626443+461629135+462289850
3898+464371633+467042757+467921729+466495801+465750679+466456699+466006298
3885+464726334+464324488+464261881+465699956+467259865+466002916+463834197
3871+463314983+464346386+465870051+465401133+464099008+465322405+467505832
3858+468256304+466423442+461904354+461704613+466000716+469179203+469796351
3844+468484181+466451020+464623148+463982460+464911892+465965489+467019710
3831+468777752+470381293+470908518+470608447+468877556+466427743+466867573
3817+467913751+468629095+471365913+474480118+475269790+473171099+471537846
3804+470936687+469409181+469903280+472456904+474710949+476325850+477418154
3790+478347192+478538988+477405744+476535571+476263997+475050252+474757437
3777+477215557+479443436+478786366+475922625+474406774+474966436+475479315
3763+475914614+475824101+474674507+474398271+474948018+473667464+469908336
3750+468707888+470961474+471822388+471425796+473158656+474878253+473085017
3736+467754227+465870445+470105779+474998118+477649576+477512607+475740842
3723+474875299+476313801+479291201+481598300+481477878+478207006+474912233
3709+476408976+479891704+481848107+481490255+480956398+482572217+484925279
3696+486473435+486484237+484420018+481528437+481510807+484116959+486494808
3682+486868977+484517885+480218597+475302161+474458843+476991390+477131215
3669+476877829+479416777+481659069+481870531+480924322+479285685+476290984
3655+473876102+472781007+468990592+462104193+460493002+463301292+465739911
3642+466896267+466894691+465960532+464237881+462250322+460435910+457082305
3628+452828619+452396536+453460771+452774908+448909114+444175643+442845711
3615+443383869+443567359+443001131+441453040+440538973+441217448+440853522
3601+438347010+436015945+434156490+431608053+430388268+431074853+430495427
3588+427625777+426258780+426975536+427247339+426643750+425831031+424717190
3574+423220512+421559977+419312498+415742540+412563889+412771673+414531947
3561+415665027+416165890+415785614+414103017+412609228+412639859+412587593
3547+411534619+411093180+411925335+413033924+413531601+412980311+411884888
3534+411103292+410682536+410323239+409945425+409401489+408564015+408144605
3520+408916221+410008788+410054061+409068850+408018142+407507069+407511928
3507+407481659+406694842+405924376+406387811+407119604+407233099+407280572
3493+407510188+407378374+406879547+406818548+407376437+407657105+407369378
3480+407806648+409307430+410329181+410164930+409733438+409882981+410494942
3466+410599770+409608223+408706401+408988645+409748737+410114437+409838726
3453+409333595+409135496+409315604+409959345+410494910+410457220+410848790
3439+412118937+413194727+413749859+414321077+414652862+414714584+415064754
3426+415327300+415046237+414911337+415598283+416810221+417980859+418916562
3412+419495922+419724587+420211102+421038333+421662014+422549062+424231068
3399+426173781+427693408+428662236+429609266+431327517+433763049+435296464
3385+435293214+435919062+438336702+441186850+443573793+445431311+447137218
3372+449777613+452963848+455405289+457679558+460575538+463575394+466273045
3358+469059273+472610091+476779403+480278743+482740539+485328504+488536637
3345+492568586+497171359+500680384+503277343+506390629+509019073+510275629
3331+511985015+514967209+517202442+518036337+519032645+520453484+521549236
3318+522207258+522069993+521569000+522321508+523933913+525385384+526528969
3304+526262878+524904515+524092222+523822749+522996963+520641340+517586625
3291+515759114+515322796+515320793+515000597+513725985+511742102+510191681
3277+509501945+508782989+507704309+506805081+505433061+503325900+501732044
3264+500269214+497881844+496213693+496844925+498372037+499284496+499274975
3250+498228042+496902280+495577109+493879147+492545079+491997499+491910301
3237+492498296+493461904+493441024+492585592+492314773+492282763+491739648
3223+491337802+491628155+492151178+492132170+491525626+490838975+490619602
3210+491031461+491519257+491685904+491772117+492129018+492901520+493711350
3196+493890671+493743229+493971270+494202594+494055940+493658690+493463414
3183+494125179+494918529+495078774+495570346+496822896+498133884+499000741
3169+499052975+498211561+497095127+496681331+497346116+498458808+499484992
3156+500530512+501493563+501736837+501354296+501658503+502711181+503040012
3142+502664299+502841092+503813630+505181514+506653569+507608904+508006613
3129+508488696+508459379+507484739+507238182+508783186+510574945+511165730
3115+511259297+511621253+511823161+511462124+510640474+509983536+510308197
3102+511569906+513066715+514389162+515344825+515714300+515223484+514363160
3088+514486406+515643025+516293036+515587115+514639265+514892946+515790073
3075+516202030+516668716+518009252+519505175+520140576+519970088+519147979
3061+518264214+518615369+519614763+519504649+518894100+519251854+520403910
3047+521619723+522410216+522326991+521657511+521712174+522612419+522959865
3034+522619314+522137099+521784565+522324266+523634204+524749391+525434334
3020+526056275+526834129+527301471+527059051+526846473+527184365+527569828
3007+528071675+529146547+530309338+531026915+531773021+532800879+533681098
2993+534759252+536299037+537436286+538058359+539079650+540639757+541914664
2980+542513953+543191542+544461820+545265249+544961599+544590221+544402003
2966+544255842+544776041+545551006+546126295+546677716+546913440+547171520
2953+547525729+547268764+546993546+547421098+548152792+548869876+549236724
2939+549172672+549605674+551037314+552364980+552603133+552442329+552548043
2926+552404508+551697470+550987740+550878480+551068175+550677951+549594183
2912+548822928+549323725+550882551+552437142+552973593+552407003+551872260
2899+552196626+552743254+552789151+552874838+553577871+554302835+554443349
2885+554421878+554978553+556106347+557105773+557354038+556828355+556498803
2872+557246879+558691881+560036291+560729015+560983714+561221539+561039001
2858+560759285+561057124+561267895+560679966+559552107+559053149+559824469
2845+560864934+561666392+562562666+563365831+563871750+563960392+563608712
2831+563369771+563742529+564572025+565467641+566170280+566635160+567025253
2818+567356644+567898741+569281957+571062356+571886731+571541550+571200179
2804+571458424+571969398+572655096+573278088+573738044+574559726+575351795
2791+575559415+575998688+577113481+578065369+578362813+578331493+578491312
2777+579034329+579595731+580125812+580650707+580884000+581207512+581837793
2764+582336357+582844574+583500133+583935597+584423328+585216710+585789143
2750+586195322+586616669+586457178+585910222+586111342+587013327+587191006
2737+586376415+586048044+586994417+588550518+590103073+591291670+591634026
2723+591608878+591971721+592390507+592615396+592885394+593247318+593700708
2710+594380759+595349850+596225375+596514546+596288606+596375870+597261769
2696+598069990+598357651+598770725+599402384+599987687+600261493+600149869
2683+600307916+601004317+601594215+601837490+602204469+602885965+603695960
2669+604233461+604105488+603847177+604234906+604959081+605334531+605454822
2656+605695995+606108215+606874479+607870492+608706029+609419436+609556011
2642+608801237+608320270+608818178+609419107+609593241+609805720+610531274
2629+611502795+611920793+611912126+612126837+612604128+613230600+613728704
2615+613860355+613890821+614306062+614904234+614962869+615014413+615702016
2602+616260331+616554165+617234085+618078551+618842321+619847394+620768225
2588+620921806+620638347+620651808+620873085+621078013+621633112+622533456
2575+623044036+622803126+622596162+623408849+624627452+624785433+624154955
2561+623971958+624403876+625427860+626828936+627611484+627583250+627442276
2548+627542671+627811291+628188251+628564948+628538946+628305850+628269145
2534+628251285+628604936+629703051+630963743+631589755+631590675+631871835
2521+632452147+632585768+632503757+632538951+632543613+632451688+632475260
2507+632972445+633727088+634508454+635507093+636513808+636987421+636599561
2494+635851288+635661790+636129888+636880328+637638976+637876603+637589467
2480+637780475+638638468+639543146+640443818+641057552+641108637+640982699
2467+641027808+641506674+642069389+642069258+641862360+641876083+642059080
2453+642674521+643745453+644667268+644953485+644799115+644845012+645310287
2440+645783571+645943456+645979832+646166638+646531582+647024040+647699232
2426+648515071+648892753+648581520+648219005+648230168+648676597+649432553
2413+649946744+649933481+650017986+650887995+652191761+652986785+652889475
2399+652601092+652982517+653745170+654143995+654326139+654678082+654995947
2386+655327535+655606201+655191486+654459759+654194882+653523958+651465156
2372+649790340+650021860+649467222+646789893+645079685+645494269+646329083
2359+646159744+645589543+646399275+648670687+651696283+654443015+655326288
2345+653973801+652103184+651354386+651972387+653592311+655364108+656474437
2332+656881995+657480167+658645453+659138239+658974678+659780207+661076094
2318+661831721+662666864+663802340+664966248+666024770+666776917+667529458
2305+668566114+669300468+669274925+669086741+669552737+670379082+670660767
2291+670722817+671494925+672586080+673204279+673649264+674207449+674368187
2278+674236733+674599117+675248636+675608655+676175244+677131926+677590831
2264+677416698+677432194+677822943+678197670+678655262+679277532+679695924
2251+679788440+679842282+680428176+681489718+682271938+682536683+682329326
2237+681985721+681997015+682317507+682768204+683047001+683275632+684034083
2224+684915451+685313095+685392216+685377508+685643698+686256972+686819359
2210+687469009+688165279+688512166+688794903+689406864+690205236+690512924
2197+690049094+689709758+689790324+689783036+689972796+690408785+690603602
2183+690742737+691351809+692562796+693643577+693800178+693474171+693454342
2170+693789869+694406164+695303816+696011773+696281772+696322219+696135742
2156+696000808+696235546+696530299+696747834+697320923+698247335+698830077
2143+698762643+698244052+697680943+697818306+698787988+699796213+700364969
2129+700520126+700275145+699925303+700015652+700735232+701792112+702740848
2116+703113015+702968824+703137966+703713748+704158208+704588353+704876080
2102+704732085+704482245+704296161+704176921+704183947+704278367+704530177
2089+704950277+705685549+706905531+707762342+707564243+707290174+707873441
2075+708921851+709674983+710054898+710338488+710253325+709787854+709645501
2062+710198170+711195692+712110548+712742470+713063027+713029671+713001108
2048+713174388+713613004+714098304+714267644+714597131+715045465+715065032
2035+715115854+715597149+716240759+716991987+717985701+718885914+719506870
2021+719878840+719496627+718539683+718187149+718885388+719873127+720371757
2008+720392769+720295459+720798160+722300748+723705828+724056589+723851464
1994+723449028+722805353+722487881+722843370+723478378+724005965+724646160
1981+725558257+726079934+726223470+726536213+726757688+726699775+726359191
1967+726038699+726790978+728579256+730052887+730481325+730072454+729537645
1954+729699040+730393602+730988885+731574647+732069272+732019107+732117599
1940+732969551+733469231+733575536+734388945+735523962+735811886+735353703
1927+735081341+734841416+734338518+734290519+734611733+735421137+737002452
1913+738039371+737715990+736702053+736317935+737441002+739448129+741084533
1900+742063999+742169845+741324918+740943559+741119399+740874483+741374821
1886+742778457+743676897+744351367+745199445+745536220+745573319+746233606
1873+746736964+745067466+741819477+741374624+743806709+745500698+746009374
1859+746978728+748688804+749888957+750187714+750120346+749709374+748902662
1846+747736653+747248923+748679086+750414573+751398964+752030557+752572720
1832+752602465+751937384+752007116+752672460+752818424+753781278+755396408
1819+756198129+756835567+757729410+757756791+757013377+756882974+757484101
1805+757933288+757837488+757356981+757258949+757882072+758127119+756789013
1792+755456094+757469984+760966500+763057016+762907112+761260136+760401421
1778+761479969+762588721+761708929+759062133+758915643+762049053+764570503
1765+765110828+764498932+764356514+765148911+765504400+765562050+765264737
1751+763061547+760427882+761483055+764876286+766835349+766063110+764497422
1738+764231364+763425834+760835375+761112333+764301293+767353743+769132567
1724+769736582+769960158+768066034+761951678+757899669+762205589+767450199
1711+769888522+770055761+768455733+766384915+766037239+765754766+763299108
1697+761462372+762680516+766531339+769639076+769899684+767933990+763364901
1684+757491061+758889641+763654531+766270993+765974927+764983511+763516249
1670+760049084+759805022+763747376+765479843+764336290+764604515+765928373
1657+764900187+759217027+752174946+754771118+757006482+754284307+754403941
1643+758198230+759786177+758585696+755245322+752598328+756317304+761268606
1630+763099696+763270480+764665908+767161750+770691163+774365226+775962694
1616+777170266+781087275+784636649+786804448+789736608+793146320+794287771
1603+793820330+795364744+798934472+801434647+802404264+803374143+804765238
1589+806339330+808019531+809631115+810877690+811525371+810884913+808352892
1576+807488858+811097261+813027958+811607841+812336219+815881521+818518140
1562+819552499+815623867+805298865+806458965+814004535+820143908+823100296
1549+824803741+826587095+825656612+820941361+816204442+819420192+826746717
1535+830377510+831910367+835386528+838422235+838719614+838287892+837983750
1522+837713752+839467624+842580680+847397114+852524060+854820686+853634322
1508+848241450+846540041+856429250+864376469+866932719+866675328+868077125
1495+871810152+874257274+873104988+870607833+872405107+875642131+876778855
1481+877340519+878440604+877340716+872467288+867553281+869515562+875980023
1468+879632812+879921130+880827646+883044888+883125060+879585076+878004024
1454+881133692+884173536+887463023+891820289+897331746+902990546+906920622
1441+908849875+907678153+903079057+903212349+909991983+916469904+919531416
1427+920619091+920239702+918221281+916473318+914538747+913028215+913923635
1414+914538682+913009567+909342726+904652361+901296163+901217107+901744234
1400+900184784+898643719+896257597+892083459+891029074+891515950+888541046
1387+883927372+883344237+885857216+888596332+891067945+891620089+888648730
1373+885932070+886514483+887012850+886346653+886137392+886091626+886156630
1360+887272737+888572825+888510119+888789376+891216930+892844864+891288435
1346+889091745+889362137+889324185+885382749+883250932+887788373+893654859
1333+896021283+894722179+892676181+893461815+896963584+899482539+899888915
1319+901368718+904893862+907415837+908303443+909738859+913217450+918394495
1306+922577432+924840768+928099197+933227062+936737892+936721608+936344385
1292+938254531+941527734+944192193+945030685+945260564+946711213+948304938
1279+948609540+948575593+949238113+950681999+952048799+952449463+952208750
1265+951077082+949832936+950644047+953006991+954944845+955538224+955217733
1252+955341504+956768121+959466790+962257056+963758133+963688073+963039342
1238+963723530+966103939+967892218+967736142+967413352+968159196+968512583
1225+968236282+968654674+968994864+968823291+970048920+972660720+973984972
1211+973430989+973605516+975479811+976949568+977332634+978184849+978582229
1198+976276214+974257662+976693752+981747092+985007097+984305837+981894829
1184+981544265+982596877+983690790+985743420+988198092+990092807+991686401
1171+992643148+991797171+989568372+988905787+991790014+996038743+998615479
1157+1000147745+1001139818+1000080049+997941075+997433186+999456531+1002607276
1144+1004792936+1004730952+1003717539+1005433525+1009924346+1012040864
1132+1009943782+1008279274+1008910080+1008027530+1004959583+1003390284
1121+1005054660+1008632793+1011256280+1009535633+1003688517+996830681+991244436
1107+991255008+997920588+1005276135+1009209494+1011504610+1015742177+1019325957
1094+1019821566+1021774129+1022547156+1018660416+1017002212+1020059916
1082+1022832782+1025364474+1031871746+1038667664+1037578544+1031968662
1070+1032339319+1039399653+1045440666+1046604968+1043512924+1038828665
1059+1038057082+1044000326+1053366348+1059911441+1059672435+1055212014
1047+1050461635+1045589520+1043210949+1046822700+1052286815+1053519929
1036+1051642811+1049646584+1046165696+1041491352+1041419584+1047067090
1024+1051092178+1050825922+1050690398+1051864877+1053091294+1053177047
1013+1051845507+1052245251+1055182861+1056109601+1053261947+1050293543
1001+1049886510+1051079374+1051401704+1049208100+1044991545+1041267119
989+1041136782+1045341781+1049099497+1047294015+1043566306+1043520934
978+1045482230+1047050084+1049679152+1051913532+1050790728+1048424632
966+1047424746+1047495266+1048281688+1049423402+1050873133+1053111715
955+1053339296+1046494001+1037735737+1038788349+1048009852+1053784084
943+1053780013+1053362540+1055345897+1058114626+1059352271+1061425059
932+1065341084+1066152260+1062417066+1058996914+1058330323+1057779098
920+1056556293+1056389711+1056992807+1058192041+1059698633+1061542921
908+1064585456+1068448033+1072583234+1073741823+1071125099+1068870496
897+1066077341+1062166044+1061726115+1065536031+1070023766+1072374169
885+1071734893+1068811795+1063714397+1057390451+1053642518+1052993525
874+1051773346+1047499074+1041433833+1036912807+1035009097+1036748458
862+1042742720+1046927758+1043870842+1038185252+1034899705+1031912916
851+1026558455+1020625980+1016992166+1015128246+1014596523+1015591354
839+1014463231+1012210992+1012465297+1010489819+1002538201+992996667+987828420
826+987714367+988057380+986274224+984170444+983205752+981737111+979211065
812+976728224+972648901+967997604+967316699+969161183+968839904+966416026
799+963004738+958412668+952419456+946363472+943474977+942287432+939836765
785+939401892+942085524+942800245+938899913+933478215+931431954+933060939
772+933206050+929354636+923108432+916431689+911011239+906989763+905627822
758+908770753+912895711+913084683+909942868+905725131+900407046+895287980
745+893138041+893876596+894306085+892678676+890115072+887033796+885055560
731+887229466+891830926+893671734+890975429+887686730+886665832+885527729
718+884375246+886383555+890233853+891655217+889586501+885650778+882038370
704+881262847+882214210+881749790+879785999+877675850+876573730+874711714
691+868836101+863050050+864651523+870967721+872281270+866269608+859522673
677+860318945+871411327+882088469+878594974+864734059+858468617+860678045
664+855769160+846239576+842528742+843271171+844113012+847233027+849689604
650+848997865+849295572+851383724+854568876+858592059+862324233+867350717
637+872645820+866633895+849573253+842784557+850261906+855716762+850227762
623+841832604+844081100+849696564+839379704+822811125+815331873+811590572
609+805148305+803736921+819550792+852837132+881400539+876768349
##END=
