##TITLE=Sample description
##JCAMP-DX=4.24
##DATA TYPE=INFRARED SPECTRUM
##DATE=25/8/2023
##SAMPLING PROCEDURE=Instrument type and / or accessory
##ORIGIN=Default
##XUNITS=1/CM
##YUNITS=ABSORBANCE
##RESOLUTION=4
##FIRSTX=4397.6552
##LASTX=599.8556
##DELTAX=-1.9287962
##MAXY=2.0052345
##MINY=1.2244073
##XFACTOR=1
##YFACTOR=1.8675201e-009
##NPOINTS=1970
##FIRSTY=1.2956861
##XYDATA=(X++(Y..Y))
4398+693800349+701336849+703185769+699519270+693039461+688720588+690681217
4384+694548025+696318495+699294386+702468862+701587967+698888983+698059666
4371+698365617+698107413+698131159+699455117+702110185+704640458+704129603
4357+701008747+698061262+697715606+700776651+702607443+700236241+697318885
4344+695638929+695493390+698053155+700409867+698050091+693125508+690798286
4330+691713523+695168098+698922751+698983711+697831846+698385980+697969853
4317+697357631+698414704+699405455+700389887+701971348+703553575+704161392
4303+703026634+701710973+700171897+697762460+696900140+698068411+698540455
4290+696949036+697263350+701887535+706083785+706899059+704746102+701772444
4276+701932154+703490444+702796963+701436109+701037791+701421108+703229367
4263+706117361+707131092+705009349+703140257+702867945+701565051+700467252
4249+701924878+703656920+704890236+706887250+708329874+707596434+704985794
4236+703677921+704737803+703565895+700589110+700588599+702565696+705219551
4222+708337853+708284361+705249616+703613514+703499700+703744435+706036612
4209+710059364+712585488+711620462+708263233+704684758+702339664+703012463
4195+705118695+703609046+699325281+697817675+700615153+704680928+706059847
4182+704396233+704346380+707388211+709117317+708804983+709134488+709226025
4168+707403020+704993071+704082048+704386850+704560093+704641543+706981723
4155+712653023+716164792+713591814+709585532+708091777+709476441+712462227
4141+714262188+714401982+712655002+709032739+707370529+708140482+708395048
4128+709208151+710524195+708595866+705776684+708124651+712334306+712652513
4114+712012971+712454311+712753879+713375357+714045986+714087669+713308013
4101+712308836+712536401+713734864+714470730+713898276+710923981+706954977
4087+706584171+709669536+711823706+711546990+709680132+708404942+709336966
4074+711172355+711812790+711505754+712700643+714531946+714034687+713337312
4060+715038332+715724281+712885886+709748433+708746831+709820309+712834756
4047+716614878+718171380+715458608+712525868+713337632+714289955+712623277
4033+711398387+712318730+713845933+714441750+714328446+714649079+715052503
4020+715137273+716416358+717846343+716452615+714234165+714666442+716683499
4006+718122995+718193914+716116726+713351228+712751454+714031113+715013246
3993+715201170+715996656+718045310+719694498+719397866+717891345+716753779
3979+716227604+716405762+717242867+717278805+716503873+716018551+715924397
3966+715834074+715090675+715428096+718353432+720538880+719496042+717320615
3952+716495383+716051042+715138550+716437614+718466672+717013260+714756255
3939+715332092+716520852+715815945+714444495+714852515+717077859+718546527
3925+717435323+716225944+716606516+716657710+716890828+718385604+719052211
3912+719270647+721906054+724602038+721262809+713028680+708796940+710462532
3898+714361640+718207638+720708037+720964774+720525092+721783814+722338331
3885+719984108+717892111+717064900+718500822+721766324+722675560+720822490
3871+718401371+716673924+717558010+718216191+717816406+719917850+722891315
3858+723794041+720222588+711941733+713890489+720972178+722387673+721953865
3844+723752932+725849014+723861704+717636780+714756829+716713372+719230433
3831+720573158+720588478+719985385+720221950+719690413+715704046+715376902
3817+719412676+721040926+721857286+723989752+724604655+721702427+720962859
3804+723774125+721466437+717505603+720398001+725999979+729737270+731775838
3790+733150608+733266274+731010737+728437887+728379416+728724305+728739944
3777+730430559+732319823+732474745+729501152+725341223+724784536+727483201
3763+729828998+729144517+726423128+725715667+726035406+722126214+713582239
3750+712444290+720198268+724862476+721443840+719594153+722800417+725701433
3736+723812233+721587847+724946097+729168135+731548274+731880141+729921619
3723+726843148+724840199+727030434+732229499+734358136+728978935+721916203
3709+724062330+730728212+735171750+736185737+736325978+736648079+735099492
3696+733354427+732980110+730980544+725975595+725076700+729473959+733617993
3682+734369690+730343619+723867576+718393519+719030125+722464209+720701335
3669+719378142+723746868+727207060+727312065+726305356+723674737+717828789
3655+716224412+720464004+717407747+702661893+699304919+707168179+711736446
3642+711528415+710950982+711922072+711419899+708323044+705408943+701424555
3628+697635113+700666858+705772471+707010703+701367744+693075271+690022525
3615+690836714+692735297+693953676+692714232+691274033+691312078+689199463
3601+684916911+683246404+683290129+681722775+680654786+681346672+680421222
3588+676331510+673968670+676122329+680027628+681320309+678501957+674697642
3574+672335313+672191944+674244045+674864373+670540969+667662933+667916478
3561+667691211+667965693+668978849+668051421+665037549+663240843+663573093
3547+662973830+660589797+659402696+661192699+664170761+665580192+665673580
3534+665667005+665182066+664269702+663717547+663290377+662578321+661467692
3520+658785113+655632723+655862330+659764565+662255007+659966596+657174161
3507+657803426+658736919+657448196+656856464+658705258+660961880+661863967
3493+661689830+661741216+662127022+661974781+661164741+659603323+658172253
3480+657853599+657953242+658539420+659901295+661406476+662573470+662596705
3466+660964178+659451082+659963405+661583740+662659389+662867229+663301803
3453+664495607+664424880+661665701+658326409+658295961+661423072+663459598
3439+663611521+664197890+663992859+662205600+662950020+666143071+666637330
3426+665242708+665801182+667878816+668933081+668699708+669789719+673265741
3412+676268826+675634071+673066455+672725140+674474290+675605474+676194716
3399+676844982+676313509+675943533+678781928+683157612+685538070+685890747
3385+685514132+685601967+686483372+687685793+689946117+693022800+695715146
3372+698514858+701289038+703120085+704157371+704671226+705680807+707663075
3358+708978098+711055796+716637284+721800410+722721201+722905103+726348315
3345+731694324+734437161+734602488+736445983+740409179+742956624+743258043
3331+745546581+751787974+757239115+758455324+758973200+762020138+765004647
3318+764077282+760542022+758914091+760363226+762975398+764961942+765603399
3304+765692893+764533751+761305145+759201658+760293074+762325068+763609131
3291+763107532+760332395+758389193+757860975+756507334+756220086+757909807
3277+759617658+760704988+760151748+757801100+756210256+755895049+753111422
3264+747317307+743191337+743344792+747410758+751374656+749929669+745215352
3250+742287016+741986491+742877790+742787339+740494460+737782454+738561215
3237+742697590+744516317+741864697+737823498+735560365+736696719+739739699
3223+741902486+742174925+741296520+740083695+738338183+736292401+735220838
3210+736164863+738146365+739487750+740980867+741986299+738862188+732822379
3196+730423665+734875885+742288803+746192123+745616031+744509360+743939523
3183+741828313+738672795+737759665+738578514+738073723+738085596+740556250
3169+743685979+745752378+746369579+747713901+750321859+750641215+747390331
3156+743377346+743342940+748271481+752060987+751579623+750131637+748597987
3142+747489847+748756420+750191321+748937578+746260808+745462513+747485443
3129+749512138+750869929+752112628+751685139+751576942+754491171+757361866
3115+757565046+758190481+760313373+760182068+757942554+757215305+757108513
3102+755686123+755406727+756736558+756608828+755705592+756747154+759399285
3088+760921445+760292053+760684051+763053018+763961999+762409455+759739068
3075+757029934+755732721+755590182+755360129+755270699+756463672+759750877
3061+762816709+762306237+760143003+760399547+762420115+762568782+760830930
3047+759313941+756993230+753886673+752891454+754702330+757684796+760350843
3034+762676468+765579334+767874256+766891293+763586789+762108483+763632430
3020+765175719+764075431+761687568+760911998+761752614+763936466+767471917
3007+769206513+767585987+766382863+768494457+771765256+773029851+772115699
2993+771194271+771991480+773172070+773529343+774888730+777746913+779539789
2980+779326331+779593727+780728485+780632481+780497857+782180876+784121397
2966+784530758+784074289+783950772+784088077+784415859+784739364+784483011
2953+784248297+784148016+783535858+783272611+784069246+785411206+786325868
2939+786008618+785604109+786051961+786285270+786628181+787719915+787966630
2926+787258850+787250360+787066202+785411078+784205848+784530247+784838816
2912+785226282+786115347+786052088+784793175+783156116+781641871+780942645
2899+781094504+781304705+781695171+783118518+784907819+786939685+789741760
2885+790425027+788903378+789971239+792573708+792253266+790405941+789318356
2872+788182896+787544247+788174087+788469825+788168788+788387544+788906633
2858+790059328+792259905+793926264+793365172+790757788+787842283+786203372
2845+786630798+788421886+789231096+789099281+790480179+792487086+792514535
2831+791980189+792414636+792283779+791562658+791514847+792856679+795070150
2818+795724054+795357079+796539648+797893544+797739452+797401456+797465225
2804+797466119+797301430+796908538+797381349+799016110+799987201+800434861
2791+801825206+802752763+801797247+801211389+802095858+802383936+801825972
2777+801704243+802334465+803486905+804255964+803307535+801105618+799832151
2764+800197658+802004130+804761904+806285916+805577817+805071749+807158576
2750+810140467+811196902+811239990+811637669+811553090+810431099+809001943
2737+808178562+807613258+806674850+806723809+808514259+809440092+808578029
2723+808925024+811498832+813837352+813772625+812181461+811394082+811420509
2710+811438446+811696778+811947833+812539500+814564792+817218263+818647610
2696+818641163+817938171+817013678+817346376+819801582+821865939+821262398
2683+818975903+816881927+816391882+816859267+816846053+817861827+820188984
2669+820638304+818800171+817927958+819628275+822034905+823278434+823091723
2656+821449748+820027423+821229461+823603407+823271221+820725308+819788177
2642+821076006+822829497+824128114+824380382+823946127+824413384+825614656
2629+826198918+826269773+825978886+825320003+824341763+823288583+823537851
2615+824689333+825201656+825846178+827281461+828291426+828452221+828732511
2602+829150043+829156873+829141489+829446802+829750838+829726263+829351691
2588+828952033+830142581+833415615+835418054+834500711+833157027+832537720
2575+831923456+831319660+831563502+832679429+832972231+831873858+831363769
2561+832375457+832890716+831812387+831765597+833930683+836165857+838155210
2548+839539746+838059205+834965861+833668265+834458134+835324219+835271557
2534+834576863+833652243+833496938+834237464+834464517+834309914+835174978
2521+837115308+838871479+839157004+838290153+837934539+838556208+838625339
2507+837119840+835442885+835217044+836639944+839038722+840913942+841323302
2494+840932389+841219382+842775310+843968986+843871385+843749337+843976454
2480+843632139+842112405+840585649+841112079+842869208+843598244+843591797
2467+844104439+844738620+843995604+842636665+843164180+844467138+844277810
2453+843721250+843903174+844366793+844780813+844995994+844800729+844515013
2440+844995930+845793523+845543042+844195848+843133349+843595946+845260518
2426+847196187+848715156+848803948+847226700+845535318+845247304+845967723
2413+846630309+847018413+847858582+849396956+849857574+848332924+846307122
2399+845198025+845815226+847910095+849883171+850458944+850446369+851240961
2386+851934570+851225195+849482173+846929430+843721569+840569052+837406896
2372+834270082+831586929+829076060+827387871+825954055+822287619+816980485
2359+812998332+812227485+814753099+821151393+830320228+837145884+838029970
2345+834429856+832647258+834926859+836310566+835597488+835705749+836254584
2332+834704210+832476121+832835182+835143700+837577969+840429960+844034542
2318+845942062+845021463+844520311+846270035+849109005+851461759+852693671
2305+853950925+855299587+855349568+854430182+853837111+854183660+855602793
2291+857041971+857164785+856731423+856930455+857607084+858117492+857629298
2278+856534307+856491156+857945207+859783340+860659383+860656957+861370993
2264+862596521+862330657+861017422+860522589+861141577+862308635+863532567
2251+864928785+866069160+865640841+863795814+862549093+863478628+865238630
2237+865925217+865864320+865185585+864225282+864127107+864151108+862964646
2224+861565492+861709052+862942496+863656020+863610571+863583953+863961461
2210+864225091+863856456+863520439+863736513+863644083+863345409+864229112
2197+865766337+866626613+867007441+866884690+866253191+865904599+866255616
2183+867639642+869248168+869580355+869432071+869856560+870168767+870273963
2170+870873355+871388614+870498591+868659501+867703347+868166072+869475669
2156+871511301+873214683+872732936+870996935+870469931+871204328+872072839
2143+872944414+873882184+874650477+874236520+872294786+871286545+872064030
2129+872319617+872301425+873469185+874081279+873073038+872480732+872754575
2116+871987942+870549530+871209180+874264735+876380541+875582119+873568445
2102+871602582+869725447+869314299+871163667+873527975+874389017+873733325
2089+873330731+874009658+874750503+875159928+875843451+876895545+877345695
2075+876280706+874958535+874925214+875456049+875823535+875581544+874254138
2062+873644406+874875743+876421905+877179474+876695301+875237102+874993196
2048+876934866+878895176+879423265+879196786+878471836+877133067+876376200
2035+877324822+878837790+879723855+879819413+878938518+877765141+877077150
2021+877077341+876965123+876239279+876455289+877892871+879254427+880126194
2008+880843229+881444216+881354339+881037345+880886699+880198325+879332048
1994+879261321+880455827+882415817+883574257+883614153+883467465+883065254
1981+882216531+881837619+882091354+882452457+883425335+884934346+885670659
1967+885564441+885636891+886185088+886950700+887332357+886813651+885584803
1954+884557348+885342047+887950133+889406098+888217976+886302924+885229190
1940+885020967+885268575+886223005+887545240+887539112+886847036+887863830
1927+890365571+891955394+890822870+887807019+885199508+885064756+888075756
1913+890765484+889636854+887115581+887263099+888535481+888556928+888522203
1900+890075067+892710665+894215399+893566920+892067421+890859893+890875341
1886+891764214+892193810+892733134+893638668+893463830+892339604+891856325
1873+892046547+890886831+887563369+886789075+890815912+895058951+896292140
1859+894705061+892602724+892562637+894047008+894967670+895035971+894255294
1846+891940138+890283418+893035128+896978535+898136082+897815896+898042694
1832+896298012+891535820+889349797+891115352+893202370+895539805+898214022
1819+899780482+899634113+898501780+896839954+895470801+896498703+899469998
1805+901404328+900063900+895975528+893515726+894846834+896851125+896668179
1792+895357051+897164863+900644014+901761218+901037416+900978945+900849620
1778+899934511+898250917+894600503+890340804+891304617+896657328+901626722
1765+904267426+903756061+901696300+900707464+900091220+899479382+898169594
1751+894646335+891176760+891991906+895293154+897337787+897109010+896392549
1738+897042687+896244584+891209378+889650195+894264359+899941788+903276803
1724+903228673+902001166+900357787+896179283+892242897+894197845+898192829
1711+900736763+900304869+896076257+891755405+890846807+887916812+881699739
1697+881376745+887066366+894279487+899050807+899494638+896489894+889674069
1684+882380518+885741832+892783307+897796746+898499036+893998495+889985190
1670+889668771+893105791+895839883+893592134+889044867+888836644+891506457
1657+892502378+887169647+874240414+872027263+873469504+871306716+874138601
1643+881175735+884705058+882523184+873820649+865225544+870672855+879769559
1630+883348672+883040295+881499942+879478098+880952830+886316967+891093522
1616+893999899+897096945+899880125+901107951+901880777+903723697+906820297
1603+910325236+913400259+915992770+917313282+916768085+916099690+917446885
1589+920369475+922056835+921257583+920391242+921530788+921936574+917666917
1576+914593106+919938795+923674043+921176707+919018834+920769772+923485799
1562+924161088+916818002+904472841+908949125+917144125+921692413+924330564
1549+927384332+929568567+926780472+917964825+907431561+910412431+923380986
1535+930282985+929208869+926788771+926375963+926231445+926115205+924003867
1522+919995478+921333991+927392694+932433453+935526542+937140174+936247407
1508+930627619+925664736+932292446+939553570+941212269+938280869+938178481
1495+943838164+947418426+944368871+939054396+939437841+942982037+945385666
1481+946152300+946644898+945359111+938918688+929848666+928547559+935145140
1468+939284769+936381520+931787208+931577964+929944671+921923616+918306714
1454+924487529+929251509+931744057+935316148+940877274+945706554+948010540
1441+948313427+944948219+936377499+933910739+940594174+945175336+944919558
1427+944963603+946233304+947842149+948125567+943072233+937787377+939937397
1414+944083283+945848582+945474011+943454401+939547761+936310410+935112266
1400+932980374+930034931+926505033+921901210+920775134+922008322+920133677
1387+915934618+915627965+918819995+920727323+920159018+918342461+917359050
1373+920132528+923081673+921536469+918644582+917294707+916205270+915716246
1360+916000111+915746503+916648015+920995613+925544922+925457088+922199693
1346+919527774+917850500+915571728+912711311+912491342+915905574+919629588
1333+920935674+920364369+920107314+919355808+918246328+919959030+922932687
1319+923906905+924935381+927794522+931559708+935443176+937635071+938158501
1306+940844336+945784686+948563716+950005894+953767377+958025736+961310323
1292+965863143+970373068+972403594+973895305+975913001+976819939+977453672
1279+979609821+981174749+980594508+980595274+982248866+983684022+984512318
1265+985215055+985600542+986593144+988228225+988250056+987122957+987591300
1252+990206663+992312639+991257034+989017136+988467088+988924770+989396878
1238+990820863+993789158+995868389+994939364+992841622+991253906+990815118
1225+992956266+996716026+999158402+1000099235+1000611559+1000331587+1000441954
1211+1001568925+1001045303+999736409+1000618835+1002866776+1005537482
1200+1007785933+1008715405+1008846518+1007099219+1003401377+1000822909
1188+1001893196+1006495040+1011265084+1012924293+1013399274+1016842869
1177+1021779006+1022938595+1020371682+1018402755+1018435565+1018742410
1165+1017751531+1015295623+1012996297+1013187923+1016747120+1022828420
1153+1027876583+1027536482+1024615678+1025991469+1030330194+1030036754
1142+1024400369+1020519965+1022138130+1026689738+1030249828+1030525076
1130+1029299356+1030184782+1032551197+1033807684+1032950536+1029809828
1119+1026015981+1024348409+1024997080+1024808964+1023392639+1025547447
1107+1030886179+1031812075+1028462634+1027148633+1027128461+1025971489
1096+1024648360+1024983100+1029319527+1035087279+1036647484+1035098961
1084+1035195285+1037893886+1040012692+1041472551+1045206204+1046937480
1072+1044288095+1044593982+1049657529+1054879127+1057139005+1054711247
1061+1050753286+1050173300+1052148801+1054207477+1055927838+1056348115
1049+1055004942+1053388181+1052363854+1051260502+1051803465+1056704175
1038+1061474984+1060635007+1058766553+1057894787+1051507344+1044208814
1026+1047305924+1055955414+1058592480+1056986635+1055428537+1052313490
1015+1050914719+1055253890+1059824648+1060408336+1060395952+1060919638
1003+1060350631+1058733807+1058288380+1059676811+1057853104+1050045953
991+1043322430+1043929992+1049356302+1052205293+1048982560+1046964354
980+1050890718+1054338654+1054383592+1054431595+1055815173+1056452928
968+1052968927+1048496536+1050653259+1057690266+1059230810+1054473405
957+1051220543+1051438341+1053347328+1056112124+1060399910+1064772274
945+1064596223+1061234909+1060393591+1062746600+1065256639+1066858782
934+1067788253+1067700291+1066576385+1064162159+1061866280+1062723556
922+1067014279+1070426340+1070997645+1072655514+1073741823+1070664756
910+1066278604+1061329956+1055490902+1052020816+1053406374+1058453516
899+1064800935+1068796303+1065020138+1057462191+1055421579+1058960414
887+1064006471+1069006313+1071269701+1069066188+1064320146+1058732211
876+1054376188+1052736064+1051549410+1048848830+1044637133+1041077745
864+1042142478+1047147363+1051698970+1055256699+1056059462+1051680267
853+1045355892+1038699713+1032511429+1030218231+1030885157+1030365174
841+1027795579+1025807247+1025362013+1023216013+1016720182+1009179343
829+1007132795+1011628485+1016069278+1015569977+1011819154+1006552873
818+1001620630+1002112781+1008027860+1009577149+1001921857+993821969+991447447
804+991911576+991200158+987519615+984093893+984414590+982970434+973854388
791+962166195+956372654+958055354+962055126+963144052+961710300+961053013
777+960371596+957208036+954381961+954154460+952928293+947917408+943126746
764+942933013+942709598+937317438+931188838+928991071+929532821+928578582
750+924551107+921397824+921667965+922260973+920620530+917338432+914174234
737+914414182+917163849+918726543+918790185+915878445+911776094+911974487
723+914314922+912631264+908170172+907701574+910346173+909555155+908401822
710+910754065+910686338+908108190+910417346+916286721+916450133+907688297
696+897684208+892575850+891338385+892100805+892503974+890399721+888791961
683+891414154+894109883+892116700+891007794+894750255+899213837+900997712
669+898235852+893355761+892309986+890750100+887244140+887975666+892738049
656+890123580+876269663+861842399+857224341+866965502+885228743+894679145
642+886516636+871781697+862466110+862345913+873873311+886001505+877420443
629+855712203+834893794+816980549+820627835+850191165+860471970+837313317
615+834493051+862880961+887987794+888847177+879667554+877130706+866222551
602+832682366+812823110
##END=
