##TITLE=Sample description
##JCAMP-DX=4.24
##DATA TYPE=INFRARED SPECTRUM
##DATE=25/8/2023
##SAMPLING PROCEDURE=Instrument type and / or accessory
##ORIGIN=Default
##XUNITS=1/CM
##YUNITS=ABSORBANCE
##RESOLUTION=4
##FIRSTX=4397.6552
##LASTX=599.8556
##DELTAX=-1.9287962
##MAXY=1.983521
##MINY=0.81353122
##XFACTOR=1
##YFACTOR=1.8472979e-009
##NPOINTS=1970
##FIRSTY=0.88074464
##XYDATA=(X++(Y..Y))
4398+476774563+478799697+480560445+480090977+478872425+478942571+480426961
4384+482061969+482370559+481979626+482418152+482282732+481000745+480900688
4371+481704237+481097510+479304013+478322485+478706417+479676619+481116031
4357+482339617+482352071+482429219+483077246+482277118+480058098+478639562
4344+478410862+478559575+479281911+480417765+481102447+481982853+483919417
4330+485315754+484259177+482059839+480983547+480968802+481383644+481767866
4317+481916063+482972382+484569768+484336034+482575190+481734341+481788387
4303+481585499+481578142+481927259+482318224+482898881+483555781+484172188
4290+484687764+485015521+485093765+484827895+484230525+483332050+482470906
4276+481741924+480877231+480313127+480148346+480108433+481102286+483270938
4263+484880004+485243802+485459370+485956103+486230943+486329515+486207905
4249+485658160+485109931+484849287+484906785+484868033+484432735+484276439
4236+484381142+484618102+485722401+487156167+488060094+488828861+488841315
4222+487617826+486746519+486360975+485409422+484722837+485224152+486148697
4209+486201936+485962007+486640623+486913205+485924256+485542874+486586642
4195+487343857+486530790+485467920+485947423+487381350+488203516+488418826
4182+488945437+489881954+490645332+491131965+491436974+491501183+491429618
4168+490981832+490244267+489752826+489635572+490054286+490750680+491338951
4155+491518123+490634716+489392545+489346792+490402144+490649107+489293037
4141+488187641+488249721+488624424+489090666+489729336+490525528+491514025
4128+492483969+493252961+493726204+493502376+492530884+491908443+491834006
4114+491408161+491247832+491577589+491230376+490881550+491567619+492400045
4101+492784493+492780266+491867723+490703442+491355826+493538772+494843668
4087+494277918+492741096+492185607+493263609+494573119+495082693+494946983
4074+494947951+495007417+494509587+493881274+493330076+492827084+493000126
4060+493786058+494029826+493569166+493596496+494199964+494465931+494611289
4047+495261769+495866302+495954936+496046055+496409820+497148482+497829776
4033+497325590+496039118+495305489+495171392+495553129+496636907+497786991
4020+498595993+498587894+497369665+496519750+496782233+496892840+496812369
4006+497018419+497261929+497462881+497445070+497309392+497429357+497363825
3993+496736738+496246555+496578377+497400930+498200252+499707035+501848520
3979+501972776+499617304+497843360+497903052+498619063+499096662+499035131
3966+498609996+498005334+497511538+497844618+498685918+499063751+498951466
3952+498477061+497824871+498138721+499434421+500024144+499953482+500603704
3939+501249376+500685401+499181392+497625113+497638246+499429517+500041374
3925+498447635+497627082+498383651+499008996+499566195+500620804+501946834
3912+503124022+503398475+501820223+498177182+494410208+493120542+494389816
3898+497293453+499854555+500039212+498411110+498896775+501043745+500942753
3885+499803543+499580811+498583829+499194525+501683868+501963000+499236922
3871+495660220+494478451+496598608+498057831+498862993+501461136+503775018
3858+503874622+500795944+494458994+494272917+500107584+504641324+505454455
3844+502798588+499426097+497083434+495847394+497600946+501200073+503659409
3831+504604895+504523650+504062539+503944994+502117037+498744803+498983893
3817+500725475+502697596+506310953+509255018+509480040+507986131+508054890
3804+507818381+504850374+503813898+505085915+506384970+508135554+509581581
3790+510628124+511503658+511375337+510991082+511061583+510284170+509739103
3777+511026446+512302786+512097543+510575272+509611362+510369997+511771981
3763+512908997+512493123+510251388+508855309+508037337+504271202+498521136
3750+498973052+503252633+504424594+504034177+506368031+509155575+508743346
3736+504775356+503072525+506523455+511131858+513454129+512787807+511578773
3723+510944491+510346056+511319517+513262631+513428929+510925131+508861117
3709+511035997+514657290+516650901+516691233+516817199+518969396+521970088
3696+524107088+524335207+521959214+517806760+516760766+519723223+522518349
3682+522608339+519713930+514942295+509531859+508142459+509811927+509120857
3669+509405054+512945458+515366461+515619168+514986499+513306480+510315016
3655+508620671+507963384+503420061+495120025+493845394+498384006+501826289
3642+502669331+501996717+500823111+499121830+497104472+494835569+490485616
3628+486365976+487355860+488643268+486985351+482676440+478828220+477966787
3615+477278040+476115791+475861181+474954898+473317858+472822706+472633176
3601+471399491+469605832+468066719+466833712+466332558+466067849+463840376
3588+459883840+458970974+460659834+461057898+459666852+458624665+458984429
3574+459508524+459098973+457115656+452546972+447953508+447674860+449268051
3561+450200179+450930743+451635849+451378012+449936600+448500479+447423283
3547+446104416+445604134+446275200+446562140+446312338+446016331+445644628
3534+445438869+445135537+444173240+443560383+443633949+442747638+441801603
3520+442661456+443542217+442501805+440910420+440389843+440647292+441323811
3507+441979356+441535539+440606992+440713695+441350623+442004265+443177323
3493+443835965+442763319+441408605+441385212+442218607+442582405+442462021
3480+443202909+444134037+443968062+443525342+443263408+443073072+443424640
3466+443768627+443181130+442350510+442161916+442521519+443431416+444399682
3453+444692140+444719469+444554074+443788341+443550509+444633642+445732681
3439+446068246+446286073+446420815+446253097+446437497+447179482+447821670
3426+448006004+447643239+447771206+449734744+452113674+453414310+454171138
3412+454273873+453787497+453866871+454631443+455188739+455664950+457396401
3399+460585977+463288178+464034455+463816499+464125187+465331962+467054829
3385+468495597+469666041+471520101+473906161+475818784+477271780+479215217
3372+482150603+484957313+486251013+487303686+490302636+494702989+498453604
3358+501194556+504043308+507327230+510887057+514796872+518665129+522303201
3345+525626164+528239408+530751531+533888288+537015204+539981663+543157591
3331+545448595+546542085+547977399+549869082+550933920+551005744+551218246
3318+552429442+554267112+556003015+556299796+554746518+554457222+556288890
3304+556789463+555991786+556489713+557160972+555787801+553336758+551063628
3291+548526758+546617523+546400696+546278215+544576385+542330875+540901175
3277+539590149+538103338+537022561+536168903+535363354+534310874+532973099
3264+531795944+530743077+530035164+530128929+530328784+529817305+529328800
3250+529413240+529415273+529263946+529109425+528388573+527155146+526424647
3237+526808547+527633359+527360744+525896649+525069352+525129819+524950259
3223+525098230+525759422+525094907+523236136+522569749+522951551+522966813
3210+522877114+522522673+522186140+522845138+523651655+524308265+525533981
3196+526655574+527165859+527516330+527988057+527998382+526476757+524392802
3183+524367925+526300198+527620678+527746676+527873933+528135254+528088307
3169+528321138+529398753+530081014+529475513+529030761+529918007+530842004
3156+530568132+530237374+531162985+533321506+535177890+535192700+534641180
3142+535330765+536770952+537585568+537641872+537939912+538877848+539818333
3129+539987922+539672427+539440274+539221511+539418752+540557866+542200456
3115+542982710+542703352+542869392+543642288+544171448+544484363+544457324
3102+544009409+544060712+544765592+545093606+545307465+546281183+547079054
3088+546738842+546198002+546191936+546492138+547235930+548665049+550464000
3075+551487344+551015810+550068227+549479375+548955829+549094314+550670566
3061+552377300+552572122+551234831+549845270+549739631+550085586+550028475
3047+550325773+551686295+553751116+555040911+554852608+554231619+554133983
3034+554454254+554711348+554791690+555098151+556190221+557418840+557617598
3020+557418711+557773958+558328221+558566150+558433150+558595576+559390994
3007+559881951+560045539+560618129+561065721+560995575+561049330+561769504
2993+563194170+565196137+567287610+568769194+569951350+571217849+571856971
2980+571729005+571644856+571640661+571577162+572345670+573815702+574722179
2966+575085557+575176095+574735989+574372805+574624478+575004699+575222494
2953+575500174+576081282+577012087+577767753+578133713+578814522+579689766
2939+579838576+579707318+579944085+579989645+579906528+580408068+581527113
2926+582497992+582420167+581673212+580981174+580013199+578665841+577716192
2912+577965801+578912288+579368979+579677440+580489894+581430250+582410164
2899+583415181+583952085+584008034+584248286+584929224+585631007+586097506
2885+586612211+587698538+588977686+589252784+588484534+587848123+587770039
2872+587348131+586348148+585940565+586797159+588614049+590518767+591668271
2858+592258026+592678902+592781249+592347144+591310830+590366989+590190366
2845+590194366+590186752+590820130+591760809+592406643+593122622+594158356
2831+595254750+596290548+597104680+597547432+597740963+597866929+598220433
2818+598964355+599910583+600755174+601189924+601232193+601018206+600780858
2804+601094224+601684818+601920682+602371823+603241904+603994085+604853777
2791+605517485+605515872+605959269+607080702+607798875+608247241+609146684
2777+610242368+610275086+609265100+609053307+609773674+610075296+609843627
2764+609870214+610703576+611973431+612959411+613587305+614111560+614537534
2750+614690797+614861225+615341083+615810938+616151924+616290667+616318674
2737+616916173+617880793+618476356+618850640+619314688+619728400+620039250
2723+620644234+621405386+621810903+622101683+622437312+622857027+623520477
2710+624047895+624175087+624119202+624188251+624580669+624928946+625045491
2696+625839876+627372891+628435406+628815562+628678626+628393589+629061428
2683+630339220+630924007+630907164+631012157+631317392+631783440+632381584
2669+632681076+632713600+632867895+633170484+633644663+634011913+634137750
2656+634412333+634788036+635191682+635678703+635997361+636401845+637029416
2642+637173967+637103692+637605684+637949251+637756366+638006168+638794165
2629+639360366+639556026+639899206+640787356+641745716+642049531+641865874
2615+641807796+642190017+642912127+643678118+644578594+645397759+645498687
2602+645053870+644630606+644989790+646665420+648566202+649248560+648871824
2588+648519287+648728822+649145632+649403630+649752811+649966604+649485778
2575+649270565+650117867+650868112+651001048+651446123+652208694+652527287
2561+652684809+653322382+654342370+655324220+655394108+654172781+653314380
2548+654205047+655352937+654882759+653832634+653923172+654590559+654904700
2534+655218453+655897456+656713782+657401432+658042296+658619984+658984717
2521+658964067+658301197+657646846+657958727+659053314+660064268+660475593
2507+660789733+661661944+662737300+663270591+663017755+662645536+663056668
2494+663906809+664351303+664589812+664946673+665370517+666002476+666593135
2480+666779696+666823642+666989295+667254714+667522908+667760836+668110017
2467+668351817+668018705+667569564+667925456+668765853+669265780+669565530
2453+669781905+669955430+670527633+671248775+671599634+671572143+671674103
2440+672365819+672983065+672985646+672813669+672675119+672595874+672782564
2426+673400520+674472521+675412683+675642352+675806972+676215071+676128598
2413+675927711+676384531+677155685+677915481+678549699+678810988+678775882
2399+678650433+678720063+679077826+679170042+679073503+679301429+679477471
2386+679702816+680181706+679720369+677955749+676150539+674767108+673364641
2372+671855696+669857923+666985100+664692611+664168356+664064976+663895193
2359+664154739+664306002+665205961+668343106+672678733+675448434+675261808
2345+672906401+670721164+670590680+671637901+672267085+673311208+675195599
2332+676321225+676585741+677063404+677577658+678290217+679754764+681695297
2318+684077227+686133982+686520656+686148437+686663142+688020437+689695874
2305+691317556+692543400+693345787+693788991+694436889+695658088+696575083
2291+696735573+696822627+697428773+698483286+699251858+699246244+698920294
2278+699084270+699858456+700445760+700484220+700388068+700319600+700542364
2264+701075073+701230852+701259246+701624754+701817446+702070668+702982953
2251+704073732+705019574+705924631+706076538+705365334+704990986+705394696
2237+706171981+706825106+707112208+707389178+707881490+708522548+709157476
2224+709390693+708988080+708666390+709292283+710456112+711157184+710883312
2210+710322660+710487862+711035865+711491781+712018296+712532226+712940325
2197+713284214+713573961+713936178+714251351+714282778+714391514+714673969
2183+714708106+714731144+715216874+716032684+716718979+717010469+716885535
2170+716691746+717002789+717662174+718108411+718414550+718885631+719148017
2156+718640733+717984446+718265675+719251526+719975959+720306297+720889792
2143+721866286+722263156+721978120+722268061+722861946+722855299+722993139
2129+723646974+724150580+724409674+724490210+724253572+724273190+724925541
2116+725420176+725331768+725094743+724889145+724724783+724825000+725316345
2102+726041552+726817352+727699114+728554998+728925991+729022659+729507615
2089+730100016+730118085+729900032+729998185+730039937+729834081+729932105
2075+730408736+731000943+731970726+733045243+733113195+732357851+732227046
2062+733059376+734067103+734638338+734493464+733732312+732982970+732967741
2048+733930360+735520551+736954832+737446177+737243095+737290397+737426366
2035+737351896+737643644+738015153+738027027+738248951+738586775+738499334
2021+738061422+737812072+738537795+739682717+740072295+740246853+740894429
2008+741919902+743003067+743389870+743014941+742931630+743818102+744972445
1994+744941148+743874697+743690459+744351392+744494782+744457289+744744713
1981+745425910+746519012+746994611+746531725+746366718+746780430+746923949
1967+746796434+747279519+748487875+749870209+751071725+751779896+751740467
1954+750920269+749978557+749959133+750869611+751569070+751307265+751106959
1940+751955293+753099311+754133044+755055267+755621984+755562293+754965116
1927+754594833+754508683+754524429+754941627+755496019+756238714+757238375
1913+757806964+757725589+757461267+757279030+757316845+758011658+759256346
1900+760503421+761283932+761453328+761454167+760869832+759492725+759166776
1886+760369453+761813931+762897741+763386762+763905791+764729022+764963014
1873+764257424+762406526+760342092+761020965+763629208+765515728+766666393
1859+767499110+767484332+766787648+766375032+766316179+765816833+764882672
1846+764224384+764801556+766997312+769120856+770280878+771053710+771488009
1832+770693172+769096593+769147379+770310176+770631028+771003182+771911466
1819+772773480+773486943+773674924+773029284+772716370+774063276+775966703
1805+776792515+775840995+773961574+773890911+775612230+776185143+774485829
1792+773128921+775189999+778055982+779268726+779194192+778828684+778893861
1778+779718706+779827506+777269985+773708351+774461501+778053787+780822456
1765+781969443+781018116+779959280+780882793+782327271+783824213+784628020
1751+782407419+778261321+777295927+779053577+780419584+780330079+779461869
1738+779138695+778062241+775481553+776520062+780688617+784136804+785310120
1724+784660157+784202111+782948582+777284440+771663212+775883199+783249171
1711+786792026+786019130+782772540+780228377+779641267+776848916+771691606
1697+771368109+776606083+782750018+785049799+783611968+781268499+776964299
1684+771743232+774583724+779801822+782134127+781594320+780053302+778318109
1670+775429928+775419603+779009115+780827489+780642348+781229393+781508041
1657+780099443+775665598+767996585+766680525+767433933+767274153+770806231
1643+775457806+777118078+774927484+768596343+762949754+766600506+772710497
1630+775453482+775796597+776948940+779074227+781795530+784737401+785695955
1616+786199819+790913279+796277800+798561836+799511742+802354751+806179998
1603+808908205+810656885+812177187+813321593+813985301+814480001+815316526
1589+817361471+820447958+823405318+825564161+826191345+824587474+820840828
1576+818793301+822176440+825146706+824677496+824163630+825476398+826882286
1562+826648875+820630002+812222424+817647024+825953998+831725391+834969852
1549+837407731+839534954+838241093+831809669+823815159+825419933+834001295
1535+839413376+842343955+846298329+849158374+848479113+845981349+843429184
1522+842196113+845122819+848891858+852993494+859303985+864309322+864342363
1508+859095031+858417836+868316548+876034347+879275452+877980042+874956732
1495+875862112+876992062+873859435+871104512+875405421+882305087+886640521
1481+887066430+885039682+882028052+878032700+874571865+876457159+882010370
1468+884861639+883668061+883273643+886885612+889500179+886242360+882181250
1454+886197704+892888352+897577032+899393664+902215571+907011245+910236217
1441+910333209+907835702+906295847+910442074+916224244+920084724+922202720
1427+921614965+918825001+918180071+919429082+916309426+912851752+914943031
1414+915653848+912390738+909441380+908558393+907784722+907288022+906852884
1400+904407455+900971658+897471587+894303597+894047018+893928603+890556885
1387+886360453+884805820+885266640+886505907+887575908+886998284+884822469
1373+884528591+886726993+888170245+889108020+889847811+888305503+886422145
1360+886914458+887769051+888522201+889415900+889334268+888507617+888014207
1346+889231275+891832935+892222126+889441132+887833067+889745335+892883834
1333+895082559+895399474+894688464+894763643+896340411+899409087+902626574
1319+904068341+905299219+908815358+912552841+913844056+914990139+918739496
1306+923957724+928528311+930986840+931258454+931668489+932793276+933657808
1292+936954604+944058771+949983685+951094534+949899148+949548935+950523106
1279+951444425+951451394+951412546+952166922+953537833+954368163+953993750
1265+954278916+955768630+956217900+955908019+956382004+957766661+959737137
1252+961556350+963271345+964961495+965721291+964959236+963697189+964560624
1238+967902915+970544262+970905317+970888732+971608132+971468743+969791500
1225+969161412+971010375+973111333+974034395+973711156+972715819+973150375
1211+974585560+975789335+978014130+981011822+982449330+980709103+978487212
1198+979909555+982213337+981486775+981040280+983077094+984444521+984649732
1184+986852587+991085544+993319438+992258731+991344639+991637161+991524618
1171+991009590+989716052+987863863+988278350+990715906+991828239+992335072
1157+995127875+999068181+1000187806+999082120+1000689669+1004866678+1007203113
1144+1006021021+1004239365+1006092845+1009826649+1011405418+1011407289
1132+1009055302+1004021635+1001462372+1003196855+1006010115+1008144953
1121+1008521238+1007922061+1008435604+1008700765+1008332740+1009630473
1109+1011964262+1012452961+1010818695+1009318979+1009617825+1011931351
1097+1015024550+1016660751+1015956646+1014966019+1015820935+1018863412
1086+1024088932+1028750702+1030009071+1030244740+1031625461+1032876731
1074+1032213022+1030285331+1030375869+1033085878+1036364799+1040480438
1063+1043886357+1041850962+1037404340+1037166799+1039712833+1040858529
1051+1040395837+1041226876+1044195141+1045720993+1046378120+1050421806
1040+1054475752+1052036131+1048178812+1051837180+1057926327+1055353383
1028+1047625582+1045980153+1051759096+1056419447+1055176631+1053184860
1016+1053779132+1053883222+1052773986+1052066654+1050865977+1048168036
1005+1044734432+1042610500+1044567747+1049857476+1053754417+1054699419
993+1054255828+1053258878+1053293338+1054610365+1055373646+1054528023
982+1051533881+1047601383+1046516992+1049779909+1054141026+1056439065
970+1056310905+1053583149+1049877739+1049720088+1052598008+1052895758
959+1051035115+1050856814+1052177778+1053203638+1052385957+1049158791
947+1045892583+1045965762+1048110602+1050271059+1054972195+1060402151
935+1060750622+1057775517+1056724940+1056610461+1053075672+1048175328
924+1048610142+1053913423+1059231416+1065652386+1072374267+1073741823
912+1070566605+1066550474+1063793227+1064813796+1068415698+1070909333
901+1069941551+1064601423+1058987293+1057414268+1057650583+1058175032
889+1060503014+1062872941+1062210716+1059974951+1060825350+1063831817
878+1061405748+1052132477+1045170731+1045625809+1048248636+1048883434
866+1050530541+1053700791+1051448182+1042811258+1035854805+1031717031
854+1027697158+1026302756+1026983243+1024990182+1021891950+1022702145
843+1025659633+1024490512+1017432679+1008419987+1002216490+1000369140
831+1000231171+999227123+996647532+993661327+992161030+988728201+983583604
818+983486871+986560000+988365145+990712680+992105016+988331911+979826826
804+970700235+963833029+959610784+961020027+968410844+972189756+968028171
791+961673540+955862072+951360211+947963262+944671177+942384624+942048672
777+942832539+941385222+936571414+932881362+933222735+933656130+929807781
764+923353965+918344756+916644991+915684565+912945904+910925868+909874969
750+907697153+906230992+906319723+906445883+905943052+902864438+897259407
737+893143445+892831306+894782422+895218850+891596040+886343223+884851702
723+887370568+889212690+890578245+891784085+888743286+884209417+885956936
710+891560354+890760548+885082080+883146709+883824873+883185557+883315395
696+886893549+891812995+892658102+885188622+873777092+870742940+879829586
683+886877675+878885810+867987824+870375626+879026037+873272648+854366728
669+846982946+863915098+875360765+870281474+864484655+864278993+867055921
656+869077054+868923211+864991165+857259749+851955178+852333657+853140690
642+854506375+863217511+875287651+877073178+868130632+859439502+851764165
629+844999176+842901380+833986195+818385719+820803399+838909190+848504023
615+854993589+859887223+852053589+844120513+838503737+827814769+826182892
602+841352554+852012612
##END=
