##TITLE=Sample description
##JCAMP-DX=4.24
##DATA TYPE=INFRARED SPECTRUM
##DATE=25/8/2023
##SAMPLING PROCEDURE=Instrument type and / or accessory
##ORIGIN=Default
##XUNITS=1/CM
##YUNITS=ABSORBANCE
##RESOLUTION=4
##FIRSTX=4397.6552
##LASTX=599.8556
##DELTAX=-1.9287962
##MAXY=1.8450186
##MINY=0.66007453
##XFACTOR=1
##YFACTOR=1.7183075e-009
##NPOINTS=1970
##FIRSTY=0.74625951
##XYDATA=(X++(Y..Y))
4398+434299164+433910243+433316141+433062468+433536167+434519607+436029922
4384+437055230+436437090+435110239+434856635+435567913+435730287+435508492
4371+435920134+436451069+436594226+436816125+436948391+436731105+436749871
4357+437494380+438690595+439278175+439229057+439387304+439492200+439304365
4344+438770274+437664386+436440038+435966235+436478715+437182674+437520222
4330+437556402+437798247+438791954+439859650+439821736+438597111+437405717
4317+437113332+437002469+436505737+436756358+438204894+438885542+438023302
4303+437360762+437712741+438192060+438115364+437612111+437427328+438715744
4290+440571309+440462354+438614976+436889213+436117995+436628880+437696646
4276+438264904+438790982+439773902+440641656+440853704+439956048+438347739
4263+437520326+437949452+438828480+439487379+439584193+439157704+438866255
4249+439130335+440035796+441185599+441541290+441405278+441453737+441289836
4236+440798897+439627449+438156747+438267298+439952579+441021525+440849091
4222+440435714+440097818+440324886+440943720+440396725+439366491+439669352
4209+440775483+441077581+440239692+439661582+440203304+441257681+441762148
4195+440957109+440155400+440738332+441457553+441331497+440855161+440368107
4182+440358602+441048859+441869750+442815588+443665409+443171244+441923621
4168+441913561+442771257+442770736+442216110+442509466+443204475+442951426
4155+442112740+441723159+441615695+441783516+442676524+443273227+442782183
4141+442586474+443494536+444087978+443402613+442520116+442524833+443150570
4128+443337712+443011089+443503486+444507009+444449566+443693472+443339377
4114+443644284+444609720+445437723+444853230+443333827+442560562+443157958
4101+444108548+443818487+442623555+442192522+442935123+444193915+444950703
4087+444879316+444525914+443938889+442966030+441891326+441526721+442489555
4074+443893934+444573506+444738378+445066561+445434670+445223143+444795336
4060+445176800+446296528+446977905+446242589+444988271+444880183+445393357
4047+445353986+445329462+445948157+446434552+446032587+445203995+444782050
4033+444968637+445023305+444351017+443947839+444654468+445440012+445461415
4020+445476574+446054753+446691833+446830307+446331182+445901814+446287267
4006+446660093+446300344+445842636+445454998+445190606+445862512+447133168
3993+447807676+448024199+448089065+447531213+446763741+446828261+447325791
3979+446942523+445908335+445609602+446368367+447556674+448596759+448911101
3966+448669950+448788653+449093422+448454122+447285448+446916819+447027058
3952+447019079+447410464+448282971+449047495+448970869+448241935+448199859
3939+448767458+448941939+448005883+446116012+445494438+446918449+447910353
3925+447256137+446541738+446753820+447201538+447792656+448953074+450622399
3912+452055950+452040861+449972589+446384775+443369971+443026699+444729845
3898+447579741+449998848+449681869+446854207+445948573+447640758+448057881
3885+446989421+447204799+449031365+451208314+451680175+450033154+447837681
3871+445610330+444315323+444931868+445153039+445387356+447303382+448877662
3858+448271455+444757804+440254816+442720265+448665892+452466621+453120178
3844+451121351+447987707+444998261+443947249+446231939+449199948+450681716
3831+451248552+451814175+452311323+452111104+449841711+447296063+448770199
3817+450865007+452072357+454072537+455352940+454401032+452029240+450702320
3804+449500000+447650713+448605153+451452795+454399922+457233237+458842761
3790+458904436+458003242+456916016+456678611+457063474+456825758+456815316
3777+458201692+459366237+458662660+456664771+455814949+456500454+457544840
3763+458424076+458064327+456808101+456788503+457283466+455842145+452425446
3750+452589035+457202955+462348538+467454333+472593603+476934042+478963568
3736+477826565+477624333+482553775+489042165+492168282+490224401+485998710
3723+482820283+479938647+476438837+473428092+471778365+471217218+473673371
3709+480841021+488774651+494435906+497953754+502376023+509441621+516903287
3696+522942571+526653805+526715931+523063909+520330218+519352363+516336068
3682+510486007+503600648+497321635+490377514+485192769+483738960+480829955
3669+478654220+480472981+482019303+481057821+478505582+475550616+472847970
3655+471874971+471804347+469238059+463660993+462888526+466998533+470356921
3642+472144740+473427676+474309583+474330119+473257149+470882236+466369986
3628+462215336+461920800+461543152+457833687+450086851+442529828+439014859
3615+436154660+433652268+434231176+436911691+439234226+440246421+439756974
3601+437977029+435905635+434531227+433858037+432835851+430845662+427096341
3588+421836808+419306700+419313083+418403147+416397765+414531793+412927786
3574+411337584+409750885+407623540+404145097+401301826+401767443+403087980
3561+402907117+401265542+399395686+397914231+396648119+395745988+394925236
3547+393824828+393291396+394087208+395033358+394721964+393624054+392528226
3534+391648365+391125617+390738186+390807042+391013436+390106483+388943811
3520+388845366+389147464+389287985+389013013+388006403+387300432+387347747
3507+387027160+386204569+385719666+386056972+386614026+386517351+385708566
3493+384684368+384142264+384279871+384373910+384255728+384716732+385881971
3480+386748026+386808799+386640355+386573823+386390982+386197874+386322612
3466+386587872+386972596+387772259+388355711+388518918+389131369+389873831
3453+389573918+387962557+386129400+385919226+387303034+388362093+388785113
3439+389345775+390175408+391171474+391777231+392023064+392545986+392839342
3426+392544876+392237471+392202367+392456560+393035156+394003818+395581949
3412+397221789+397910866+398322890+399537248+401004307+401930026+402517744
3399+403558835+405349742+407332300+408772753+409606236+410361255+411306226
3385+412911933+415300410+417386858+419160421+421874687+425172787+427925557
3372+430712807+434345369+438017475+440767990+443398312+446922404+450593157
3358+453981862+457864282+462218423+466420388+470369443+474431130+478978345
3345+483801884+488251973+492190101+495830849+498786336+501121462+504397258
3331+509038963+512800772+514529136+515876244+517939486+519977996+521164568
3318+521901515+522932858+524047279+524679676+524767368+524731327+524884786
3304+525060412+525389254+526275185+526693627+525344021+522873680+520215574
3291+517887801+516147088+514125715+511410720+508791117+506614584+504193882
3277+501378916+499613124+499075113+497883476+496058090+495226688+494971454
3264+493863276+492340716+491151507+489705122+487985985+486788451+486474456
3250+486840449+486946802+486064339+484588955+483250588+482474375+482545103
3237+483307858+483761195+483026503+481269071+479532347+478758700+478942373
3223+479487495+479286201+477902462+476524689+475934438+475877689+475913036
3210+476260783+477409303+478098102+477386825+476763516+477244361+478202166
3196+478702367+478402767+477577748+476537281+476116203+476700939+477070887
3183+476694522+476544878+477311413+478550121+479088757+478704379+478358540
3169+478559036+479260636+480439646+481499885+481897860+482206098+482802835
3156+483305152+483616234+483903902+484025552+483534544+482991226+483720090
3142+485182466+485887882+485933566+486021500+486108913+485677499+485014854
3129+485041494+485702786+486847178+488705137+490650613+491665688+491508378
3115+491154629+491471921+492102340+492789440+493346460+493122826+492489632
3102+492466564+493192723+494008654+493965016+493405880+493696184+494624782
3088+495294850+495528786+495555842+496041717+496899274+497390074+497592930
3075+497876435+498278122+498450625+498077001+497532919+497142888+497045102
3061+497756796+498847768+499118543+499027070+499310437+499187398+498950583
3047+499734116+500974767+501687605+501637932+501039356+500485250+500222904
3034+499868913+499398232+499901277+501661866+503074223+503455097+503777383
3020+504367183+504790446+505061047+505319230+505301643+505133649+505435504
3007+506190523+506781190+506924799+506892643+507205494+508200797+509697480
2993+511229406+512503253+513280576+513532654+514173064+515886616+517782488
2980+519116346+520016846+520341318+520626384+521760092+522821093+522603010
2966+521872620+521888021+522631038+523438644+523984529+524127270+524026675
2953+524030525+523969717+523890941+524449972+525457832+525986998+526056998
2939+526139798+526248580+526377064+526448279+526626922+527146791+527654484
2926+528009308+528318933+528061097+526948133+525933543+525401221+524768859
2912+524559344+525163955+525917344+526646139+527407818+527963971+528099080
2899+527965289+528015482+528344082+528776363+529349097+530077163+530761280
2885+531429024+532140440+532586250+532822371+533196828+533545685+533625364
2872+533625468+533946124+534553961+534882873+534921966+535084653+535400834
2858+536112008+537162499+537486554+536706872+535657699+534872293+534436959
2845+534600201+535515860+536714746+537480726+538021408+538839733+539448091
2831+539614801+540002370+540705982+541299285+541821270+542447354+543034448
2818+543489971+543962421+544573416+545219931+545677569+545933012+546035168
2804+546141313+546837259+548078915+548895506+549017989+549186711+549856918
2791+550626159+551141311+551592914+552014165+552412764+552915220+553422358
2777+553903308+554223096+554235757+554392825+555150723+556358212+557471696
2764+558041932+558211418+558362762+558563917+558773364+558999564+559048370
2750+558824077+558966853+559792462+560424512+560553864+560934009+561618369
2737+561962751+562106186+562734108+563726254+564516378+565028754+565591116
2723+566382557+567106045+567840702+568852585+569518630+569566707+569657728
2710+569907794+569964683+570175586+571011219+571957959+572312331+572292004
2696+572430305+572647071+572732264+573061592+573776408+574250731+574324027
2683+574465554+574649470+574958158+575806106+576760963+577268552+577573286
2669+577956728+578481245+579058592+579312508+579361175+579846981+580466786
2656+580631380+580807977+581308247+581735360+581899053+582087478+582637491
2642+583343808+583714137+583578091+583380786+583808697+584657096+585482948
2629+586486888+587210757+586961974+586415361+586692518+587641512+588178344
2615+588272556+588813828+589959850+591315110+592373926+592611261+592340001
2602+592467306+592977636+593318619+593594042+594040129+594719529+595630297
2588+596365821+596375395+595918554+596177812+597408265+598299746+598228428
2575+598120825+598644406+599320614+599673113+600037892+600697450+601210485
2561+601243300+601119186+601332518+601971193+602539591+602796282+603025916
2548+603211150+603457712+604094584+604734231+604921060+604859524+604972815
2534+605491331+606113980+606289571+606036834+606224150+607247445+608043882
2521+608053248+608165429+608788841+609421273+609981761+610601913+610980984
2507+611236496+611627360+611823000+611725041+611753208+612264856+613034375
2494+613601176+613961723+614426196+615258014+616229278+616693126+616577129
2480+616725455+617575033+618204829+617772755+616995189+617107925+618186166
2467+619221603+619341832+618962761+619027003+619435420+619894203+620268556
2453+620330162+620620709+621380931+621932748+622150172+622540204+623179989
2440+623599991+623593331+623639883+624122809+624542048+624579095+624774943
2426+625321349+626038558+626817026+627451330+628047686+628691634+629026720
2413+628868821+628475598+628362445+628730971+629242341+629824059+630633122
2399+631394107+631835893+632565243+634736157+639429026+648500770+663887116
2386+685951735+713996356+745662681+777512506+808704646+839675893+869434310
2372+897996406+924534874+944237448+955191224+960493006+963170365+967596969
2359+974139819+972131107+955106862+930969289+909598847+898450888+901363223
2345+914629023+926884292+930242784+927270508+924617917+923578665+921744225
2332+919926921+918714159+916302996+911181522+903216603+894145761+886623322
2318+879344809+869788890+861818907+859037415+856193971+846179893+829146976
2305+810743815+796081545+785214143+775331116+765674741+755724143+743768925
2291+730307901+717752580+707262444+698774638+692267795+687554667+684149485
2278+681500918+679041331+676725838+675297247+674856016+674204090+673056680
2264+672339749+672218896+672232493+671889221+671057819+670146080+669162259
2251+667904472+666821652+666563503+667105538+667657424+667397334+666449033
2237+665984491+666558439+667021177+666600273+666345455+666889363+667399484
2224+667571190+668050925+668703684+668726369+668319063+668315664+668816697
2210+669469941+670299123+671228831+671677347+671493847+671076828+671001694
2197+671772877+672811714+673073747+672652565+672526162+673323084+674546599
2183+675203520+675154471+674930248+674914847+675387714+676108114+676437303
2170+676573488+677260796+678417086+679157744+679136792+678746414+678494232
2156+679002758+680152526+680948338+681156813+681257616+681290639+681305555
2143+681489818+681694130+682141258+682942621+683436855+683802467+684476385
2129+684557763+683963211+683956967+684794196+685872854+686566267+686585346
2116+686402679+686471222+686889213+687638196+688440182+688945933+689278244
2102+689625263+689857534+690265950+690846142+691029711+690997728+691199404
2089+691514094+691648753+691880260+692778402+693969380+694484635+694331245
2075+694384942+694768522+694967839+695242290+695802779+696099778+696353763
2062+697093866+698006091+698997405+699982058+700414201+700085012+699422055
2048+699257079+699770045+700241524+700469494+700848634+701297982+701844526
2035+702613906+703052709+703198607+703608341+704172507+704610478+704886525
2021+705030272+704930301+704849686+705208429+705816510+706456989+706921808
2008+707089351+707167122+707213742+707296924+707558264+708139981+709073921
1994+709617759+709507798+709886314+710760521+711285905+711598583+711881220
1981+712382878+713390356+714481294+715024300+715045529+715017154+714857173
1967+714588341+714904349+715887060+716918750+717476672+717489160+717251061
1954+717398208+718497054+719898241+720625995+720586381+719933553+719681718
1940+720789445+721971057+722404518+722808356+723371273+724108392+725426953
1927+726716167+726814264+725984042+725429519+725248518+725509649+726735869
1913+727863576+727913111+727872040+728552549+729470810+730385463+731160046
1900+731544111+731573388+731578244+732093222+732662036+732520509+732561649
1886+733199284+733788494+734553295+735318304+735582349+735720685+736138883
1873+736324534+735168521+733152941+733543458+736350133+738254435+738492256
1859+738492395+739082646+740139589+741202707+741947874+742119580+741398971
1846+739496543+737998854+739518951+741683413+742482277+743317981+744297778
1832+743379795+740633268+739738873+741721292+744251435+746306768+747773168
1819+748764204+749381165+749528173+748670547+747244384+747707469+749862634
1805+750817456+749782158+748256094+748174023+749418975+750091228+749052184
1792+747858431+749452483+752100218+753434041+753723408+753864727+754334819
1778+755423190+755875452+754081319+751028845+750515740+752299397+754427991
1765+755874272+755594965+755467382+756940165+757812083+757909903+757486640
1751+755166637+752557267+752960758+754748369+755616471+755425618+755680713
1738+756935517+756405484+753801595+754787081+758157852+760745369+761711776
1724+761039939+760447538+759861866+757161544+754074312+755593785+759657484
1711+762636073+762705171+760216238+757875215+756867875+754365622+750798933
1697+750982571+754455949+758265108+760175029+760156644+758715219+754409190
1684+749883031+752669865+756985468+759142575+759152427+758372779+757304181
1670+754602055+754016730+756476803+756582185+754245185+754414116+755738087
1657+753804023+747571978+741511777+743100417+744027836+742794608+745519836
1643+750372548+752680132+751758264+747906301+744877414+748510912+753492456
1630+755874689+756900135+758422106+759745522+761863155+764901546+766201721
1616+767384929+772148909+776891799+779193902+780833327+783520120+786334288
1603+788586233+790719822+792886712+794706721+795978175+796867020+797673725
1589+798747526+800162450+801167638+801541089+802539479+803587750+802078406
1576+800392986+803591358+806822406+806923556+807122249+809191943+811335870
1562+812642636+810014118+803105726+806069191+813138743+818130901+821005010
1549+823375310+824883197+823520653+818622638+811491757+812591228+821453803
1535+826477666+828125692+832018796+835738043+835491966+833593561+833343530
1522+835435702+838508295+839712593+841856728+846696813+850403365+850283413
1508+845730961+845087568+854811307+862032238+863791474+861445040+860390386
1495+864911827+869362783+869063634+867303981+871258066+877517515+881280052
1481+882861686+883291609+881923931+878489056+875032883+877254441+884531983
1468+889145139+888498208+888976556+894179963+896772058+892013073+889020540
1454+895250157+901980531+906757761+909937055+912612610+917070780+923184609
1441+927481689+926649038+923052517+925184858+932004240+937009094+939110423
1427+940455277+939582735+935656470+931591315+926637383+923903553+926203228
1414+926836215+923985000+920886668+918231233+914183005+910576216+908874215
1400+904628404+897963244+893945889+893147857+894267377+894005205+889818711
1387+885509282+885639223+887993637+889970020+890399457+889387123+888684968
1373+889640831+891080799+891339571+891259581+890757576+888071199+885783456
1360+887344069+889656995+889490770+888910579+890247454+891056032+890009078
1346+889555290+890013727+888931184+886529040+886536741+889863320+893238808
1333+894852425+895439831+895907911+896378211+897182764+899001317+901041665
1319+902229382+903941027+906101187+907593742+910280605+913994302+916685327
1306+919567622+923430131+926436817+928099898+930180970+934186462+939195132
1292+942631324+943878080+944626717+946056556+948230314+950646749+952717970
1279+954478593+955404069+954449594+953418459+955447707+958972840+960109982
1265+959096815+957753834+956563897+957044395+960111647+962983327+963374816
1252+963127907+963759783+965042060+966643327+967201318+967468069+969741243
1238+972144843+971713671+968826312+965879705+965817128+967868368+968174178
1225+967749805+968981992+970357163+971753355+974119770+976222140+976615363
1211+975304781+974198581+975400381+977636023+977377181+975511036+974965116
1198+974932093+975599976+978358851+981588165+983095011+982261944+980631955
1184+980305611+980856803+981505469+982728290+983540128+983569404+984930076
1171+987214697+988572940+989517355+989026659+986646715+985794778+987025647
1157+988118250+989124201+990721306+993434532+997120964+999901207+1000096847
1144+998570784+998750398+1001489709+1003280997+1002515364+1001047090+1000218047
1130+1000209583+1001205684+1003608174+1007001632+1009245945+1008809154
1119+1006715040+1005263208+1005717898+1007317986+1009382893+1010591354
1107+1009163180+1007731606+1009584777+1012412335+1013429942+1014304773
1096+1015583512+1016261107+1017542967+1018743449+1018828782+1019484801
1084+1020831181+1022690041+1026666118+1032082927+1035248206+1035046391
1072+1034752307+1037383114+1041173957+1042897603+1044049938+1045977967
1061+1047460532+1048472450+1049796352+1052730818+1054779560+1052563136
1049+1049818483+1049716708+1050672848+1050493997+1049261532+1049754033
1038+1051474072+1053381981+1056854943+1058733576+1056268022+1053668157
1026+1055290029+1058335774+1057857981+1056264623+1056245059+1056633564
1015+1057612945+1057548009+1054393275+1051811725+1053524757+1057093319
1003+1059308703+1059132834+1055357115+1050375919+1048859984+1050533264
991+1051188728+1050065878+1049459740+1049624022+1049830901+1049215328
980+1048102260+1047826490+1047513327+1047826213+1050781005+1053593578
968+1053038708+1051206003+1051057053+1053070413+1055507869+1055619773
957+1053209651+1051357034+1052027761+1052498269+1051166736+1052613711
945+1057307691+1058915618+1056859244+1056241729+1058587955+1061549963
934+1061860143+1059347345+1058168647+1060528541+1064582319+1067266337
922+1066587285+1065108189+1065665139+1065717449+1065005235+1066226114
910+1067326209+1068666414+1072413550+1073741823+1070817625+1068431507
899+1067613772+1065865289+1064250008+1065370708+1065637597+1062576520
887+1060840594+1061919876+1063419646+1063093232+1059356850+1055348443
876+1054390708+1053211316+1047403088+1039935526+1037097423+1038314903
864+1038606212+1035798427+1029956414+1023977035+1021359479+1020967227
853+1020197778+1017937578+1014697649+1013506672+1013496057+1009636185
841+1002309456+995708469+991815019+989732559+986603217+980617317+974294320
827+971718320+971495623+969522361+967060693+967059514+966159776+961425836
814+957693963+956784305+956220486+956458792+956461776+955445348+954933284
800+953005047+948661763+944153364+938430816+931237219+925875704+922709522
787+920825756+920664110+920638857+918038922+913754261+910836099+909699373
773+908445055+905476387+902791397+903423551+905861562+906138026+901925099
760+895841449+891905194+890150328+889691475+888957269+885682722+880895154
746+878127052+878824905+879863741+878074673+876031134+876569769+877090505
733+876883349+878035406+878451038+876048131+873653064+876118270+882020225
719+883094373+879023459+875649705+873706414+873353706+874796241+876348876
706+876839364+874059399+868245621+864378812+864018403+863959364+862983660
692+862856841+863613872+864667277+866721986+867934401+867602575+867784687
679+867828325+866379962+864273152+865557648+871264379+872606180+863973170
665+858330127+858534092+858461802+854931674+850033937+848700739+849666661
652+849126569+847483815+844300983+842169336+842839300+838998576+828648718
638+819219341+816180881+819687560+824639896+824805496+816463796+802066682
625+790026548+784977640+785410269+789701590+795038408+798144233+801593399
611+810021680+822183708+823716987+806978988+793027337+790746323+792526442
##END=
