##TITLE=Sample description
##JCAMP-DX=4.24
##DATA TYPE=INFRARED SPECTRUM
##DATE=25/8/2023
##SAMPLING PROCEDURE=Instrument type and / or accessory
##ORIGIN=Default
##XUNITS=1/CM
##YUNITS=ABSORBANCE
##RESOLUTION=4
##FIRSTX=4397.6552
##LASTX=599.8556
##DELTAX=-1.9287962
##MAXY=1.8758413
##MINY=0.25102133
##XFACTOR=1
##YFACTOR=1.7470133e-009
##NPOINTS=1970
##FIRSTY=0.25308216
##XYDATA=(X++(Y..Y))
4398+144865614+144305225+143767662+143685983+144098095+144538098+144691288
4384+144773222+144812083+144781479+145038609+145606504+145748435+145219060
4371+144702956+144544000+144670425+145025013+145404150+145643727+145711024
4357+145633798+145537824+145478544+145345808+145271925+145447787+145567678
4344+145524911+145591850+145524092+145028016+144525696+144654099+145462031
4330+146129209+146069042+145753740+145558500+145418650+145453212+145553979
4317+145447770+145248572+145098742+145056777+145301676+145700448+145869980
4303+145776105+145643368+145673716+145902171+146017080+145715869+145359387
4290+145504303+145783508+145681598+145706077+146250993+146923221+147327383
4276+147309181+147135503+147137090+147022760+146574228+146259386+146279124
4263+146268325+146360427+146684668+146826547+147006964+147460051+147621242
4249+147352647+147018530+146794937+146882910+147313787+147658993+147639239
4236+147461979+147372402+147327025+147243350+147344578+147682210+147866772
4222+147757662+147603534+147588045+147602425+147493742+147547973+147954865
4209+148217659+148064725+147906417+148027468+148202630+148215868+148224585
4195+148230555+148218819+148604932+149252083+149336815+148736440+148215646
4182+148219194+148520849+148919006+149297852+149416327+149135553+148684666
4168+148493895+148676631+149019176+149175949+149095601+149221633+149556638
4155+149701383+149658173+149504881+149356518+149384001+149377672+149286730
4141+149371411+149533233+149616105+149661636+149635655+149546812+149456297
4128+149423594+149461721+149521940+149742666+150132704+150288691+150103430
4114+149997954+150200752+150507524+150621802+150530281+150593433+150860629
4101+150925214+150853959+150996879+151157660+151097902+151084852+151313494
4087+151579223+151719567+151787052+151791044+151684647+151577704+151555118
4074+151529990+151541983+151701757+151986489+152325861+152579887+152604589
4060+152564432+152746264+153020521+153132684+153124564+153089252+152987495
4047+152751057+152563749+152717451+153125110+153399982+153357420+153251142
4033+153253394+153245359+153159569+152983759+152922517+153152319+153411787
4020+153554486+153612640+153494779+153326765+153317775+153361292+153326697
4006+153379580+153586693+153608085+153387068+153348430+153506260+153543875
3993+153504537+153608716+153799385+153736949+153472381+153460576+153640429
3979+153681541+153613800+153615335+153780535+153968115+154011974+154013544
3966+153980534+153675485+153288962+153308239+153638143+153828419+153612810
3952+153057829+152420010+152222518+152572176+152643074+152597253+153265932
3939+154109057+154230858+153236164+151813767+151663596+152644558+152941402
3925+152414125+152388929+152581747+152088042+152014807+153363049+154825450
3912+155424068+155215163+153725315+150657763+147817966+147473169+149251230
3898+151887598+153687222+153393807+151918526+151858171+152507728+151856602
3885+150872587+150544013+150907439+152675742+153717723+152441641+150171172
3871+148566601+148892172+150023816+149917129+150345361+152418082+153536045
3858+152182344+148102715+143776857+146545756+151945036+154862383+154942748
3844+153017519+150305017+147525626+146442276+148525284+151096487+152637240
3831+153817672+154604178+154684338+153817041+151075180+148374312+149342974
3817+151365729+153737802+156638857+158008065+156774340+154051858+152579563
3804+151673849+150745600+151898055+153777345+155814020+158196482+159626368
3790+159864461+159462772+158655352+157978741+157542661+157089966+157780310
3777+159466849+160151240+159184966+157396465+156639864+157225722+157986008
3763+158143309+157014105+155495545+155181421+154582547+151754453+147903278
3750+147832961+150003226+151072229+152605868+154926593+155488312+152988468
3736+148916584+148736219+153104264+156997916+158025090+156888380+155930635
3723+156462331+158038839+159797607+160561441+159234966+155690479+153433162
3709+155896159+159322138+160647009+160046139+159848528+161087387+162021488
3696+161857551+160295474+156993566+154524615+156765248+160497964+162452910
3682+162302091+160326880+156900440+153177208+153145854+154951875+155641622
3669+158154568+161992385+164142947+164561234+164341872+163508249+161944227
3655+160919919+159639930+155631813+151192392+153651159+159040579+162445643
3642+163806338+164125717+163918586+163194551+162133975+160523451+157764582
3628+156906650+159869903+162163350+161589144+158967771+157788925+159055949
3615+160242164+161023655+161654463+161942658+163205554+165287368+166175545
3601+165861318+165688254+165561779+165506815+166474589+167358843+166253471
3588+164269934+164749702+166646937+167821654+168372268+168764881+168846696
3574+168603401+168030303+166218346+162575752+160181281+161767257+164201169
3561+165398336+165924112+166073822+165422970+164712462+164717255+164309988
3547+163053080+162623756+163505110+164268330+164379436+164248525+164288716
3534+164396409+163878651+162664885+161889025+161983003+162268809+162723807
3520+163426434+163905383+164010006+163808522+163304701+162857925+162804633
3507+162880631+162782951+162630614+162666796+162880546+163267819+163808658
3493+163971691+163543066+163332456+163721589+163865021+163501391+163678242
3480+164581994+165096204+164985952+164858623+164982404+165282557+165520069
3466+165482710+165189978+164784638+164551408+164742554+165125716+165320155
3453+165271281+164884570+164286601+164337999+165276569+166193218+166895811
3439+167665479+168043302+167891921+167832692+168281753+169068668+169585403
3426+169606112+169614318+170052922+171009319+172425507+174150105+175846675
3412+177176954+178231149+179607044+181574170+183668471+185679046+187643681
3399+189405178+191110380+192898778+194726379+196757595+199010119+201136405
3385+202951228+204894045+207196875+209388737+211461475+213671845+215747620
3372+217720563+219780320+221781308+223885486+226348551+228983265+231280312
3358+233161119+235363438+238028346+240381585+242431533+244740709+247240485
3345+249777655+252436934+255025161+257076371+258515418+259984097+261770636
3331+263438206+264739143+265724591+266474300+266956013+267300861+268172048
3318+269811982+271443369+272482877+273206316+274182688+275619245+277063529
3304+278172911+279009007+279609484+280356533+281425229+282122618+282082751
3291+281695256+281216460+280647252+279972023+279091641+278045378+277153430
3277+276476648+275908787+275744799+275995481+276148398+275983352+275430675
3264+274603654+274174278+274345397+274404165+273837721+272914794+272359233
3250+272429977+272723563+272991628+273061553+272792021+272500328+272495262
3237+272554354+272270356+271872898+271896661+272040912+271691458+270877760
3223+269878819+269006779+268417953+267732590+267014184+267026108+267646818
3210+268015190+267988697+267767220+267476159+267478036+267681482+267739636
3196+267829810+267897960+267548541+266954068+266756849+266989159+266930288
3183+266449309+265948695+265557959+265591855+265963588+266055297+266043032
3169+266308726+266607651+266691581+266631158+266663690+266842366+267005723
3156+267064969+267182079+267493423+267707121+267772099+267942740+268106217
3142+268209850+268243354+268112512+268061983+268233204+268503589+268750740
3129+268772951+268639123+268513177+268247670+267884927+267664474+267697909
3115+267894736+267952839+267763365+267440233+267124641+266873788+266494976
3102+266019166+265868262+266056713+266133359+266003045+265911984+265956406
3088+266023857+265864270+265510193+265259170+265283871+265757037+266606764
3075+267579946+268687520+269727505+270088525+269368396+267888527+266436054
3061+265195028+263846701+262569168+261652315+260921336+260150627+259365725
3047+258874988+258978587+259426898+259584268+259379269+259435905+259907621
3034+260256870+260340545+260525772+260831640+260992608+261091397+261422444
3020+262030615+262664221+263160263+263717274+264541156+265756457+267564286
3007+269743882+271712066+273530420+275887430+279008888+282703563+287258115
2993+293136412+300330334+308532512+316795352+323270850+326702134+327498722
2980+326734171+325330760+324060273+323221516+322321073+320614933+318217425
2966+315856185+313868127+312388497+311445202+310696959+309932170+309311972
2953+308946875+308874272+309323504+310389931+311627460+312495457+313024798
2939+313443119+313554822+313203611+312712584+312367958+311876112+310750661
2926+309124016+307322311+305023780+302008224+298751795+295620306+292646545
2912+290045830+288051563+286277528+284344640+282682546+281425638+280212708
2899+279188041+278570215+278293262+278200683+278114620+278148858+278427244
2885+278640771+278563545+278412590+278256551+277802065+276917350+275816976
2872+274740842+273690570+272623631+271684294+270925799+270103964+269045947
2858+267902020+266729230+265200180+263067479+260534983+258087220+256205560
2845+254868559+253576766+252166344+250920848+249964759+249111416+248268479
2831+247475593+246683969+245976140+245482503+245217679+245187399+245190657
2818+245044291+244912612+244885147+244847805+244839344+244886905+244883902
2804+244889702+244937416+244951336+244914745+244704168+244345878+244095349
2791+244002975+243959235+243841545+243592620+243342535+243149717+242952532
2777+242857326+242882061+242775988+242471724+242193150+242102857+242131772
2764+242141256+242109748+242079571+242137043+242321314+242441632+242368482
2750+242322355+242468892+242646681+242707906+242620973+242385951+242189960
2737+242220410+242374214+242492655+242536224+242480867+242357121+242294975
2723+242395811+242575954+242724862+242953112+243304869+243578751+243673036
2710+243637997+243615718+243829280+244161948+244274912+244260515+244383152
2696+244599119+244804083+245045605+245352257+245549152+245462203+245219453
2683+245057000+245025185+245029996+245002684+244954799+244897737+244836700
2669+244795673+244756693+244696099+244667747+244712220+244739020+244702002
2656+244722575+244850159+245001968+245053981+244938662+244815547+244864915
2642+245057921+245284738+245478255+245612015+245681803+245766996+245975457
2629+246264607+246427026+246413021+246420186+246495177+246613498+246850670
2615+247201198+247630164+248049987+248364879+248609335+248819638+249048007
2602+249398843+249841149+250210221+250453857+250659760+250905102+251233659
2588+251593365+251853754+252017640+252170949+252325845+252524992+252776800
2575+252957336+253001945+252961652+252878591+252776817+252756278+252822808
2561+252795531+252651980+252536558+252503464+252498568+252498977+252577483
2548+252678148+252666804+252628830+252685449+252800359+252997783+253272825
2534+253448721+253566428+253780826+253996690+254168901+254338672+254409570
2521+254380535+254457557+254770641+255188041+255481046+255633093+255852830
2507+256271220+256733724+256996757+257143771+257436794+257862416+258264156
2494+258565452+258730959+258843139+259055677+259320774+259492985+259605233
2480+259693855+259762568+259917618+260148494+260332800+260491346+260683738
2467+260829524+260916491+261030224+261065962+260964171+260920005+260999364
2453+261062346+261097880+261214870+261354106+261415791+261420414+261360571
2440+261323877+261414120+261550916+261646685+261627170+261559053+261623314
2426+261755624+261867941+261992437+262078261+262157876+262360264+262651017
2413+262863999+262975343+263147605+263442624+263768792+264079249+264333514
2399+264504462+264698355+264886072+264900419+264909528+265116318+265309170
2386+265278771+264942367+264098611+262718929+261052588+259247932+257290308
2372+255092561+252693433+250548518+249008191+247943846+247221328+246918036
2359+247231973+248383542+250535997+253676441+256967125+258738072+258113576
2345+256038944+254556141+254404247+254980688+255775109+256530073+257134832
2332+257667125+258467022+259704721+261007109+262007210+262960127+264192078
2318+265551288+266779350+267761847+268546732+269301218+270179382+271198316
2305+272173904+272883286+273327588+273773681+274379055+274977127+275403278
2291+275719040+276114519+276622247+277067879+277382089+277623184+277829138
2278+277964074+278033607+278190106+278426544+278637598+278909570+279223081
2264+279445326+279611958+279776168+279935312+280143722+280419259+280618593
2251+280677242+280822926+281152506+281452967+281638671+281805372+282026525
2237+282304928+282553171+282714259+282851004+283020383+283225466+283466015
2224+283681351+283814224+283964684+284264684+284629184+284876335+285021627
2210+285173896+285413131+285727972+285937935+286048579+286285648+286663744
2197+286982919+287124884+287238292+287487524+287800898+288109530+288375582
2183+288508267+288611474+288880768+289282030+289629181+289756168+289724541
2170+289831978+290134503+290439211+290734059+291005707+291114646+291160193
2156+291338562+291605331+291886293+292208572+292549684+292834126+293003590
2143+293082710+293197346+293432454+293731532+293984654+294152105+294260669
2129+294424947+294769471+295169061+295453367+295685096+295896423+296044803
2116+296200415+296422353+296645075+296832485+297027982+297204713+297349374
2102+297565716+297879909+298160120+298367490+298612832+298873460+299086049
2089+299319007+299567591+299814606+300147393+300585059+301004335+301269944
2075+301489255+301877654+302344901+302650155+302747630+302854556+303206995
2062+303712522+304220607+304659843+304894745+305034220+305299488+305633537
2048+305878607+306055645+306299248+306623915+306964891+307269906+307493857
2035+307696449+308026507+308491741+308882324+309135548+309428963+309793139
2021+310052265+310121593+310231794+310685086+311356972+311949910+312467309
2008+312951990+313332508+313659223+313999004+314404190+314867342+315056253
1994+314820498+314793954+315480068+316417529+317195420+317819438+318330424
1981+318809646+319319028+319887264+320458229+320918174+321121176+321036905
1967+321116161+321773547+322681223+323459216+324095961+324560717+324943555
1954+325418990+325860306+326104284+326112643+325786475+325227076+325270679
1940+326330999+327437105+328047033+328406057+328734375+329095002+329455766
1927+329537991+329039287+328642358+328948568+329360440+329999266+331083162
1913+331784935+331827481+331904451+332598105+333557640+334259482+334704483
1900+335064258+335222361+335146653+335216526+335330208+335401412+336091040
1886+337190425+338008780+338554805+339078175+339699874+340171078+340303217
1873+339855554+338391857+337133960+338420926+341005775+342663877+343351697
1859+343826313+344432010+345076090+345607444+345901473+345669334+344738287
1846+343560806+343811062+346006489+347847702+348608534+349279021+349939171
1832+349427912+348189087+348413481+349733746+351267386+353211840+354730741
1819+355435517+355882838+356218184+356051483+355901944+356860320+358405832
1805+359185804+358684303+357790957+357975774+358824733+358787067+357722926
1792+358074921+361068266+363605828+364521420+364728141+364670072+364734248
1778+365250078+365085118+363313471+361593479+362980718+366089177+368560619
1765+369548438+369243525+369162563+369822372+370819164+371841306+371250961
1751+368657446+367090337+368551680+370611214+371695383+372115683+372754372
1738+373390128+372553315+371518822+373938063+377776716+381063852+383036078
1724+383731642+383783468+382421408+379157336+378235570+382546075+387021473
1711+389467667+389850267+388735938+387980838+388054771+387323588+386493121
1697+388223622+393528702+399125627+401603483+401919006+401025353+398688678
1684+398576020+403827705+408612315+411197813+412532339+414023843+415056664
1670+416002006+420409373+425662389+427991763+429134478+431551433+433284048
1657+432029222+427317010+423919196+427091559+428492274+429660782+436406667
1643+443839313+448293421+450234327+450987482+456575776+468811046+478950787
1630+486864872+495442075+504751111+515214597+528238505+539201104+546658145
1616+555494850+565534625+572723259+577570611+581215235+583838775+585378521
1603+586466204+587821099+588979065+588793872+587357367+586026150+585221305
1589+584287427+583021580+581587122+579804796+577225269+573345913+567681672
1576+563226438+563225619+562539540+559688979+559098362+561025484+562462331
1562+562001089+557994439+555294986+562334320+569729607+575077744+579346454
1549+584286676+588511511+589816048+589563780+593475479+609545752+624796236
1535+634224343+644922050+658436951+669165091+676954645+684033180+690294998
1522+697123311+705991132+714056087+721314424+727172353+729096746+726124042
1508+719010366+718650080+729833218+737857914+741481726+742782783+744738155
1495+748873669+751874213+751494684+751250604+757274619+765718762+771949737
1481+776158195+779191492+780286203+779183577+778147208+781893776+789404109
1468+794724815+796560911+798978446+803262032+805068650+802622046+804327538
1454+812924189+819808797+823770514+826763893+831157203+836043723+839772482
1441+842792132+844769203+846187080+850525324+855935419+858398740+858657082
1427+858688334+858861244+860710714+862169123+858856127+855852171+858307440
1414+861553975+863488877+863537324+860434426+855465614+851934739+850012803
1400+846896053+842823589+839393499+837154469+837580467+838196093+835123833
1387+829966279+828507256+831012815+833932704+834829531+833027758+829729022
1373+828059286+828760616+828814250+827500365+826418482+825694088+825798694
1360+827311214+828315308+827394803+825583477+824303574+823320429+822575837
1346+822683786+822564442+820514972+817728143+817742814+820547862+823031995
1333+824353523+824639636+824285628+824620257+825761778+827032334+828578290
1319+830291970+831754405+833882482+838104588+843446106+847406595+849635252
1306+852061454+855567354+858688880+860887377+863140122+865713099+868535888
1292+871165501+872740457+873297195+873343868+872823773+871870720+871365978
1279+871777100+872414971+872871470+873592384+874046222+873493374+872735612
1265+871884504+869942438+867527086+866501089+866877888+866855166+866253119
1252+866042543+865811427+865567756+866127224+867001600+867311256+866526268
1238+865011701+864611496+865495358+865941144+865884986+866266220+867039267
1225+867467448+867871815+869437491+871074201+871186927+870894399+871287780
1211+872134111+873652091+875950895+878232709+879807392+880384601+880172455
1198+880053519+880133219+880095484+880559967+881567404+882494391+883702988
1184+885982891+889459177+892700594+893761187+893151361+893780224+897014750
1171+900027030+901523515+904460599+908379737+910289050+911073833+912616855
1157+914836027+918055950+922696411+927315036+930502888+932032468+932378288
1144+932438199+933617455+937408786+942109636+945185581+946944024+947739247
1130+948761081+951390216+953155415+953390829+955568515+958165237+958420304
1117+958858448+960192053+961859401+963490174+963216752+962730366+964335687
1103+966508186+968166937+970312619+973287916+976127286+978873651+981182690
1090+981339633+982331308+987989578+993634883+994748495+994464292+994142354
1076+992149862+992153819+998652143+1006626413+1009553125+1010365612+1012835416
1063+1015930739+1018742474+1020687338+1019751139+1016483451+1013144320
1051+1010880248+1012774754+1019373931+1025826536+1028528479+1027169353
1040+1024318588+1022948613+1023523842+1025543766+1027699411+1029780884
1028+1033234310+1036589750+1036785997+1033953450+1030996577+1030645093
1016+1033402171+1037116396+1039231986+1039468560+1039285210+1039744166
1005+1040446110+1039895718+1037435877+1034678526+1033840724+1034520628
993+1034459420+1033976241+1034381358+1034581153+1034840177+1036292650
982+1037474498+1038581287+1041787631+1045673879+1046458116+1044020178
970+1041419702+1040790498+1043071697+1046747437+1048606801+1048482952
959+1047895030+1047250473+1048205641+1051062002+1051849310+1049855930
947+1048723689+1049259274+1050445967+1052642144+1057077761+1061534257
935+1061343060+1057684311+1054790010+1053730782+1053310858+1052910858
924+1054577865+1059483491+1065262880+1069663286+1072597573+1073741823
912+1072039743+1068936094+1068225552+1070003579+1070124221+1068851277
901+1069443020+1070692081+1071100610+1071358815+1071694878+1071225004
889+1069320877+1067765368+1068530568+1071725379+1073656391+1068299589
878+1058910717+1055602361+1058481922+1057529074+1050389877+1044497967
866+1042828572+1042500356+1041191384+1040008649+1039336387+1035541439
854+1029483784+1026492179+1025082695+1020751753+1013714705+1005594069+998853508
841+995490903+995004926+995617891+992219940+982362014+972499994+967909277
827+965282803+959833131+955275031+956286835+958278305+957530915+956530575
814+955460429+953821672+952074761+949340269+946151394+943450270+940838876
800+938960064+938297561+935528542+929265428+923786482+921095730+920780752
787+921880990+921459087+917812893+912836506+910082295+907967318+903767253
773+900884143+900424983+900127678+899064902+896199670+891172379+884512950
760+878179484+874858913+874901356+876240079+876435234+873987676+869312073
746+866365299+867193548+866830874+862751245+859756433+860903617+864010814
733+864973625+862416820+859083830+857638181+859171991+862778198+863971920
719+860345447+857067523+858072026+860744832+862260082+860432720+854776157
706+849728872+849141974+852470597+855637978+853820101+847087250+842000457
692+843189197+847352688+849244669+845557125+838032667+833982244+835372144
679+838623046+841388039+841718506+838444131+831861126+824564986+824257310
665+831241679+835192137+832238062+826424828+824069319+826487810+828788798
652+826859765+822734622+816557690+811682156+815319274+821354071+822066933
638+822309785+826353999+833560204+833987430+822372562+815193788+818809139
625+817158850+806723169+802446611+803511776+797672135+788486130+785839935
611+789940990+798880459+810639373+817948682+820575497+825197739+824699752
##END=
