##TITLE=Sample description
##JCAMP-DX=4.24
##DATA TYPE=INFRARED SPECTRUM
##DATE=25/8/2023
##SAMPLING PROCEDURE=Instrument type and / or accessory
##ORIGIN=Default
##XUNITS=1/CM
##YUNITS=ABSORBANCE
##RESOLUTION=4
##FIRSTX=4397.6552
##LASTX=599.8556
##DELTAX=-1.9287962
##MAXY=2.1961906
##MINY=1.2970996
##XFACTOR=1
##YFACTOR=2.0453619e-009
##NPOINTS=1970
##FIRSTY=1.3725475
##XYDATA=(X++(Y..Y))
4398+671053626+670730623+673141722+675855657+677102267+677026091+676180001
4384+676717193+678651539+679045996+677450739+675864050+675415331+676644106
4371+679267645+679695557+675742531+671878910+671474952+672149516+672922229
4357+675205513+676188277+674326843+673237072+673458955+673407374+674211793
4344+676354674+677150233+676116123+677220989+679694275+679042149+677053368
4330+675853268+672762068+670628687+674699211+680052014+681262605+680852994
4317+679221311+676351002+674864093+674498136+673738304+673679322+675156090
4303+675947394+674697812+672844538+672747264+676067224+680633152+683123864
4290+683438766+682569770+681066309+678198099+674275204+673884419+678468764
4276+682300737+682629802+682679459+682271538+678613305+673855394+672890698
4263+676221731+679342072+678977222+677851666+679873553+683538022+684626277
4249+683033992+682169251+683866328+686857631+688066532+686003381+683724351
4236+683237807+681567948+677595572+674618373+675093261+678006698+681014262
4222+683309670+684599117+683757864+681859071+682146521+683828270+683451880
4209+681232764+679597759+680081797+681678802+682593142+682839270+682415671
4195+682658360+685154959+687276743+686425465+683998339+681524761+679899022
4182+680714981+683210589+684395594+684598534+685984031+687277384+686748934
4168+684667016+681876614+680294937+680109714+680297035+682031821+684172721
4155+683508530+681829580+682718391+684840524+685610497+685516662+684528653
4141+682475585+680907663+680093628+680245397+682218325+684428582+684878816
4128+683997523+683415919+683776922+683471929+681910068+682090861+685400854
4114+688395946+689038630+689510603+689869858+688113391+685273856+683670382
4101+684166543+686552871+688977666+689737615+690092265+690202070+688140376
4087+685799450+686095526+688316040+690857925+691894367+690101765+688058547
4074+688389535+688910699+687924788+687735544+688999988+689398934+687390918
4060+684267255+683525666+685929654+688487100+689925635+690466790+689647276
4047+687694805+684794889+682606197+683479855+685645700+686771839+687934696
4033+690080958+692040832+691657914+689385762+688576739+689597853+689921263
4020+689649724+690890447+693259058+694482063+694136679+693451216+692537109
4006+690307095+687611227+686827732+687858288+688505110+688275942+688241497
3993+687676329+686692691+687967510+690325454+690622929+690404194+691450078
3979+691794995+690108176+688217251+687807465+688285150+688814241+689742977
3966+691633319+692636831+690539702+688640792+690139416+692155299+692046019
3952+691401062+692800606+696007963+697340015+694736875+691637515+691931260
3939+692965429+692378056+691252674+690254116+691399022+694496808+695848385
3925+694831060+693238192+692391519+692502140+692630129+693352019+694980030
3912+694644322+693098022+693905005+694347313+690723117+688145796+689395786
3898+691766204+694203821+695538087+695021294+694894821+696144228+696242259
3885+694969889+694074433+692166140+691510342+693854124+695041985+693838271
3871+691585527+690257089+693426329+696538919+694759605+691975730+690823131
3858+691272024+691676098+685690869+681193890+686645307+693064976+694942671
3844+692548882+689169941+685888156+684592007+688952313+694021629+695171431
3831+695388534+695663628+694642049+695688690+696592480+691662344+690556778
3817+694236459+695046822+695576845+696970561+697581772+697318509+697725672
3804+698635640+695990828+693214296+694381000+696105528+698702782+702648348
3790+705486426+705164064+701375803+698076242+699331419+701793749+701975416
3777+702309842+703546893+703871353+703116942+703118632+703082963+701500528
3763+701388683+702312931+699961514+696008895+694974901+696911695+697395675
3750+694622815+695840750+697643610+694121700+691988436+694019064+696400614
3736+695560701+692398688+693508683+699189676+704215280+703527602+698246894
3723+696029702+697930477+699073693+699705536+702224050+704045793+702020352
3709+700776540+702654293+705496742+706730296+705131309+704077732+704661201
3696+704903599+704121503+701695950+699597014+701723693+704249958+704775377
3682+704373692+703862786+702854261+698411660+694791019+697100822+699102660
3669+700311852+702886142+703272148+701173387+700214519+701101583+699951373
3655+696008196+693273745+691191303+688298439+686843877+687484637+688714578
3642+689298512+689385470+688468858+685862221+685009602+688188518+688486984
3628+679996413+674943824+675151835+674450694+670576232+667742234+669891060
3615+672023800+670701773+668220502+666825971+668167989+671129802+670783078
3601+666622156+663997452+662730793+659479898+657428346+658284927+657070490
3588+652047043+651333370+654714877+655674444+655284823+655368226+653831077
3574+650958904+648671773+647296417+646285794+645015289+644831931+645495713
3561+644791891+643777946+644480253+645494081+644826161+643180839+642059538
3547+640825576+639793214+640722066+642529879+643123023+642052369+640739842
3534+640494763+640311755+638651280+636939749+638148008+640794453+641610819
3520+641148520+641267709+643105305+645528993+645322031+642552668+639954307
3507+637579868+634909120+634166307+636816190+640369921+641045826+638376477
3493+636506475+637720213+639977504+640828082+639969752+639364661+639519984
3480+639285513+640412234+642783118+642438492+639847883+638651979+639373694
3466+641115416+643318153+644034973+641970482+639635209+639435416+640364967
3453+640312454+639769084+640507352+641415572+641582610+642788538+644310709
3439+644892079+646066301+646435056+643523309+639910595+638482202+639405808
3426+641430142+643305098+645671261+648383564+649545781+648707791+647801611
3412+649100500+652040631+653522004+652250391+651057693+652195547+654028073
3399+655076055+655687382+656099616+657340106+659590402+660502585+660933703
3385+663499600+666347295+667487305+667633828+667807802+668066053+668302681
3372+670210391+674129264+677887568+680267486+681891767+683907068+687430143
3358+693140802+697589348+696952376+696078718+700061294+705274860+708135610
3345+710602951+713595012+716330571+718545198+719859532+721702665+725068727
3331+727407555+727042238+725689205+725319692+727336916+732075128+737070599
3318+739728700+739918702+738286610+735724793+733511389+732914632+735028664
3304+738150753+739458326+740881416+742763074+741147535+737295338+734616605
3291+732874708+731083855+729653946+729727324+730761493+731685158+731875567
3277+730309452+727728343+725372030+723229615+721674107+721030083+721545360
3264+723459598+725093380+724103564+721014405+718361841+718004626+719586711
3250+720013981+717411424+714097176+712954077+713979736+714349132+712841649
3237+712407268+713656559+713482993+711925561+711835689+713647000+714690436
3223+714392145+715452075+717093608+716276368+713486956+711402765+712949006
3210+716551637+716123026+712182938+710362069+711151800+712440722+714492858
3196+716886180+716901217+714631163+713767587+715864658+717877802+716107056
3183+711820944+709700152+711865647+715698494+717298763+716665871+716425630
3169+717456302+718174287+717583533+717069013+717402623+717528864+717286699
3156+717719273+718810501+719438556+718684669+716361286+713743458+713270843
3142+716075525+719897299+721978867+722814350+723919624+725028570+725616643
3129+725805887+724824580+722572011+721128755+722980106+727818156+730084830
3115+726628547+722311195+720785878+721266652+722805433+724537654+725280759
3102+724997155+724280977+723474635+723145513+723586655+725121939+727860470
3088+730548703+731616326+730698956+728865789+727786101+728673630+730644112
3075+731161721+729762119+728202065+727359996+727114276+728066616+730382072
3061+732061081+731909371+731440312+731228921+730609841+730290976+730564439
3047+731228862+732464281+733155048+732618906+731354753+729862890+729776456
3034+732188779+735534208+737491051+736915917+734887037+733945770+734511987
3020+735065207+735384655+736095937+736893769+737433293+738325543+738601512
3007+736889223+735379992+735739830+736566803+737593104+739508974+741230879
2993+742133038+743086485+743360123+742604545+743042482+745294876+747381165
2980+747893237+747195418+746777006+747542259+748615943+749125276+749587050
2966+750591786+751522095+751127871+750053545+749557326+749260201+750139920
2953+753082033+754771708+752538780+749125801+747771077+748513657+750215804
2939+752060745+753560476+754275255+754660912+755420511+755509567+755028327
2926+756278317+758971037+759832048+757226285+752740496+749197488+747627293
2912+746834415+747522384+750435297+752131500+750559323+748195375+747718914
2899+749522706+751248225+751264661+751471972+752964826+754156883+754473475
2885+754763140+755186273+756042796+757988623+759270902+757958316+756138205
2872+755128981+753681471+753295639+755688670+758341992+758985899+758855171
2858+759154336+759895576+760605985+759791833+756414698+752019305+750309523
2845+752941280+756891509+758350210+757330553+756802628+757429051+757168352
2831+756802278+758749505+761950451+763502170+763054559+762601935+762151993
2818+760762182+760674117+762804468+764535232+764849842+764452470+764077946
2804+764307113+764587512+764027181+762616623+761359347+761572487+763742762
2791+766590806+768219517+768561287+768704604+769131175+769519630+769948649
2777+770630324+769984260+768132443+767862885+769004877+769933029+770514924
2764+770534857+770325447+770580317+771882412+773528725+772921302+770788853
2750+770548495+772244814+773791405+774498549+774668210+774692339+775212746
2737+775561801+774421908+773049349+772750941+773018343+774103742+775942621
2723+777192377+777474757+777736214+778699394+779395582+778631145+777583163
2710+777771358+778852794+779517451+778855825+777958271+778102054+778237620
2696+778078683+778881936+779792254+779997293+781323924+783579233+784287427
2683+783612163+782316304+780418152+779471582+779785260+780256592+780383124
2669+779495070+778983814+780793202+783296678+784242899+783940411+783328384
2656+782395394+781628451+781674087+782324347+783830315+785764894+786751329
2642+786796673+787032893+787695335+787724068+787132731+787117986+787605113
2629+787305482+786353258+786801219+788281193+788607226+788372114+788655426
2615+788946957+789069350+789272874+788992126+788142771+788237947+789708187
2602+791612284+792637769+792076681+791507026+791044028+789468121+788405277
2588+789214474+790736703+791564143+791967459+793063058+794406534+795043681
2575+795130347+794729653+794099966+794562790+795594627+795444025+794721027
2561+794073798+793922321+794524498+794304539+793968830+795160013+796216329
2548+796259284+796407963+796598839+796406972+796066951+796091021+797150427
2534+798120543+797281388+796170985+797080779+799035582+799476491+798736825
2521+799189856+800317802+800446199+800341407+800471027+799671563+798214436
2507+798061328+799491528+800442644+799833006+799102432+799608734+800415018
2494+800387916+800718612+802551605+804526049+804772527+803566890+802600212
2480+802380836+801846966+800639698+800599016+802725870+804425103+803624182
2467+802475487+803736726+805936782+805844288+804670182+805020170+805533932
2453+804429941+803432432+804143364+804805573+804200132+803593991+803721514
2440+804421431+805216816+805719038+806317835+807181177+807580764+806965939
2426+806321740+806361023+805945117+805309194+806065762+807648838+807922883
2413+806403919+805310243+806000194+807107216+807478885+807670810+808823701
2399+810038896+809425471+808281031+808567665+809439517+809229116+808176180
2386+808323810+810032952+811325080+810966350+808421550+803427769+797214829
2372+791651101+788763541+788396884+787246849+786069188+787772210+789093596
2359+788301300+788671221+789724856+791774893+797338097+803226577+804973777
2345+802426238+799954992+800584504+800480236+797402966+795473924+796241449
2332+797432690+798195844+798480380+798907418+800665867+802440343+802853567
2318+803532037+805394462+806847159+807116192+807407780+808374749+810180349
2305+812949187+815251646+815738832+815129835+814602027+814402816+814634141
2291+815692438+816899008+817067387+816910140+817336245+817673294+817843130
2278+818334686+818740159+818527952+818084770+818189446+818502133+818743482
2264+819526335+820507467+821186869+821997990+822838368+822891522+822304965
2251+821958416+821687401+821185412+821099969+821635413+822079702+822200697
2237+822654603+823314189+823131239+822122889+821489997+822637293+825585059
2224+827433962+826200525+824436831+824365376+824469003+823712201+823320308
2210+823577627+823841065+823741518+822984716+822263176+822763358+824855709
2197+827426560+828317529+827407327+826611942+826123417+824966679+824198221
2183+824881819+825551779+825683382+826742612+827941430+827416711+826899102
2170+828536264+830439836+830685614+830355384+829959120+828681504+827266807
2156+827188126+827890899+828180040+828485674+829417673+830598074+831650369
2143+832120943+831315534+830252865+830619638+830971550+830019443+830243540
2129+832054210+832703246+831674847+830192892+830030691+832101652+834058378
2116+834568935+834745124+834109317+832318230+830610371+829886791+830521141
2102+831886181+832679292+832667111+832782627+833881665+834815238+833692771
2089+831912699+831855349+832900533+833546364+833405845+832597871+831799514
2075+831538407+831319614+831657712+833931730+836833919+837780314+836937312
2062+836187738+835942368+835399231+834732127+834888616+835783547+836263913
2048+835933392+835710694+836065927+836305761+835831456+835429072+836238561
2035+837379678+837614558+837567057+837131161+835741817+834708347+835009960
2021+835756271+835859723+835841131+836315494+836492906+836409795+836362062
2008+836013239+836170428+837427470+838649368+839659000+841431552+842582287
1994+841447464+839221238+838051911+838863090+840587210+841702917+841608033
1981+840720212+840680404+841635542+841776470+841136467+840614720+840011319
1967+840066862+840995947+841398739+841717662+842389487+842061647+841336668
1954+842620229+845498813+846626934+845008481+842562354+840430605+839699273
1940+841161121+843767000+846290468+847401803+847151420+847160104+847439687
1927+847390146+847199154+846850623+846319143+845110359+843612084+844181973
1913+846609449+847857399+846693959+845272268+845236191+846258121+847646940
1900+847930952+846933035+847301149+849216553+849612351+848378447+848080097
1886+849092585+849766100+849593234+849094800+848745395+848956320+849704379
1873+849991771+848020824+844495592+844162332+846992134+849536408+851283608
1859+852343188+852438714+852076545+852055971+852563847+852859573+852296504
1846+850609801+849260265+850830110+853004114+853411394+853282764+853893101
1832+854208178+852640955+850189117+849474687+850816006+852512500+853194932
1819+853048176+851818877+850232945+850216568+852009753+854048599+855239549
1805+856210248+856949564+856346804+854945920+854227003+853895666+852866509
1792+852183902+854453431+857520852+858388682+857794256+857706890+857259162
1778+855176021+852709670+851073382+849733346+849818671+852063956+854467711
1765+855518024+854435189+853993173+856203545+857184735+856839235+857373688
1751+856212171+851905776+849679959+851168208+852963666+852223068+850683179
1738+852582031+854998375+852752391+851112257+853672851+856657451+858698396
1724+859759084+860033129+859382053+856375829+851841082+851885319+855579279
1711+858948371+859364043+856016166+853167131+853517877+851641522+847460027
1697+848667471+853361679+857383713+858366709+856264393+854274678+851372489
1684+846465374+848415107+853436922+855787815+854049940+850833316+849633099
1670+847915157+847285063+850371308+852197015+850736217+850249206+851577644
1657+851619258+847646940+840169032+840645785+841952367+837495894+836526594
1643+841782589+844734319+843000116+837673656+832583067+834286205+838892523
1630+841842912+841923400+840573223+840104454+842297576+845371407+845615728
1616+845635486+851077928+857343264+860512971+861873931+863901471+865809590
1603+866500415+867483761+869149307+870569133+871787125+872764002+873672980
1589+874612964+875803680+877899702+879919665+881162137+881259003+877462524
1576+873236967+876800781+880159790+877486944+875009287+875628249+876103895
1562+876780965+875780775+872821819+875969378+879728323+882228886+884518989
1549+885829826+884632932+880325022+873780278+866247934+868910639+879840984
1535+885161906+885555431+888449985+891835863+890021521+885334307+883171900
1522+882260650+881546337+882907180+887503765+893467196+897233835+898073981
1508+894011615+886542449+889946628+897702137+902078879+899601629+894644799
1495+896556589+900933215+900310989+896335115+897234826+900751839+901358970
1481+899360047+898365686+897873779+894310606+888878830+888106642+891944793
1468+894979692+895053303+894011790+893602063+890170725+880982101+877070572
1454+884183922+891176743+894882942+896017183+898087968+901239025+901294451
1441+899468920+899069100+899125110+900957869+905529625+907849161+906829854
1427+907273561+909952935+912474712+911472133+904202177+897579859+898600915
1414+901220141+900830288+898762183+897331575+896313492+896178626+896390833
1400+894552363+892253458+891270986+889809022+889661567+889951931+885165695
1387+876265921+871750232+874113831+880450738+885854946+885997972+882074903
1373+879563616+880753575+883161643+885094765+884955644+881303414+877689768
1360+878666179+881998844+884289822+884378003+882963015+880747513+878330995
1346+878106723+879434695+877972847+874433278+873381391+875293939+878177361
1333+880176401+880888849+882374534+884899634+886169207+885110501+883425022
1319+884004586+887715623+892156418+894454448+894878571+896666161+901224454
1306+905913825+908106305+909115937+911164283+914183562+917046235+919034901
1292+920645020+922233516+923050581+924725686+929344301+933675699+933648598
1279+931043418+930289764+932806937+935612726+936287698+937113623+939702717
1265+941867221+941787782+940253314+940239909+943888175+947989706+948554408
1252+949050161+952630236+954499713+952241432+949254908+947241589+946790189
1238+948115189+948776174+946973022+945938038+949124180+954105431+956015531
1225+954514983+953276009+953987175+956000086+958031880+958327316+957821655
1211+957563579+955718988+953572377+955404378+960300711+962500768+961131881
1198+960931621+962712625+962421095+960196968+960341159+962311232+963310373
1184+964462798+966851457+969722290+972115729+972208632+970329771+969269841
1171+969094469+969297234+971640958+975317841+977413105+977950414+977520229
1157+976029007+975735378+976847938+976758182+976938975+978136569+976697452
1144+973135560+971406953+974110689+981528041+988260280+990027296+991040484
1130+994046940+995262252+992286452+988851384+988449466+988794383+987736552
1117+988073193+989748239+988765825+987717552+990034290+990368134+985590115
1103+983194695+987748675+990543798+987225878+986220967+989188491+992640578
1090+997182901+1000801793+1001268638+1000665411+1001448615+1005759906
1078+1010589679+1010615207+1009382760+1009788408+1010290689+1010661950
1067+1010621385+1015208353+1026953257+1034391533+1028301570+1019114812
1055+1018651464+1022469450+1025203843+1030621689+1035860608+1031994364
1043+1021771689+1015912059+1015031757+1012112957+1007817636+1008162437
1032+1013991992+1019819217+1022335749+1025812548+1029793259+1027728068
1020+1023511778+1022830220+1022456861+1022470849+1024863238+1024375878
1009+1017272728+1008799817+1006137461+1009915814+1012950014+1010419610
997+1005788464+1003048826+1004715945+1010450850+1014511991+1013363471
986+1010338714+1009579523+1010789822+1010353634+1007102040+1004039049
974+1004327666+1008529734+1013366852+1015145641+1014755846+1013154819
962+1010637005+1009347208+1009916164+1012056539+1014666091+1016136681
951+1017021296+1018449689+1020831239+1023352433+1022171508+1015766352
939+1011541087+1014205540+1020324412+1026314828+1027713847+1024001586
928+1020263098+1018006507+1018186834+1022246577+1026701243+1025383004
916+1019150015+1017804499+1025246273+1032449669+1033537924+1031297419
905+1026288951+1020865392+1018559377+1019161438+1022117655+1026626058
893+1030226532+1029452654+1026458787+1027614883+1032481492+1034781678
881+1032749825+1029156811+1024793183+1021874966+1021434232+1021021707
870+1022261380+1024604696+1022152625+1015544295+1012330235+1015002965
858+1017447459+1016494304+1016471923+1017097180+1011041487+999278749+990748021
845+987311554+987367156+989658250+989575955+986560523+983884063+980950343
831+978882471+980958269+984338202+984104605+980594702+975559248+970854840
818+968230660+965151292+959584358+956322040+958235112+959673647+957277993
804+955844005+958156023+960901023+960786031+957943582+955142630+954638659
791+951851929+942695011+933245340+929334510+930244361+930452664+926684510
777+925037964+929515944+933206348+928082946+919239007+916643677+917579464
764+914182513+908983810+908522735+911139397+909893953+903250245+897102116
750+896926219+899182460+897382398+892305155+887566594+886491102+889187145
737+890207967+887153777+885328945+889270490+894123518+892251535+886695383
723+885333258+887726638+889153691+890337996+891878700+889993370+885136961
710+880346353+875098634+871172942+872790871+878042845+880584905+876732241
696+868444552+862524949+861739240+862893588+866463347+873487349+877443756
683+874540344+869385119+864541882+862861590+867569262+872021364+870478153
669+870824819+880069977+883830204+876296169+870530958+875379615+882436664
656+879207800+869692968+861562934+857879465+868014076+885370267+877868638
642+852302215+842675772+852395701+861967650+856353565+847302839+856986924
629+896720947+958941849+977224969+938285048+906956619+879868318+851498846
615+834501910+834163928+866175547+929445305+1009238569+1073741823+1038588823
602+952448219+899456855
##END=
