##TITLE=Sample description
##JCAMP-DX=4.24
##DATA TYPE=INFRARED SPECTRUM
##DATE=25/8/2023
##SAMPLING PROCEDURE=Instrument type and / or accessory
##ORIGIN=Default
##XUNITS=1/CM
##YUNITS=ABSORBANCE
##RESOLUTION=4
##FIRSTX=4397.6552
##LASTX=599.8556
##DELTAX=-1.9287962
##MAXY=2.1063969
##MINY=1.3107629
##XFACTOR=1
##YFACTOR=1.961735e-009
##NPOINTS=1970
##FIRSTY=1.3916051
##XYDATA=(X++(Y..Y))
4398+709374681+710715450+712993433+713689583+711631213+709895457+709641935
4384+709484913+708640005+709792517+715455966+720318928+718374193+712401134
4371+707309141+706571730+711803488+718771125+721200175+717901363+713038036
4357+711122287+711962152+713130099+713745975+715088020+717372870+715782651
4344+710411978+708828079+711617844+713181629+712207165+710688226+709625164
4330+709775259+711829010+713950457+713087987+710623449+710163623+711000631
4317+711486405+712519934+713177315+712951686+714944731+717682965+716658611
4303+714652805+714923949+715583517+715424914+714982164+714731742+714883113
4290+715629700+715688462+713129673+710743585+712682791+716313149+716569162
4276+714811772+715341298+719169272+722794647+721275466+716799470+715253186
4263+716151022+717804257+721408667+724726865+724043111+720728560+717171791
4249+712659760+709373223+712052756+718308443+721759052+721893894+720348096
4236+717167476+713580080+711157836+710744254+712755590+714981617+714585900
4222+715215875+721182309+726223988+723636213+719093981+718032681+718520764
4209+719692782+721480069+721674646+721189055+722028919+721581611+718164242
4195+715584671+716719014+718905117+719619314+719807571+720212768+721935641
4182+723186536+720250139+716196780+714637492+715781557+719260544+720778268
4168+717874017+714592706+713414246+713979200+715750080+717378521+719855699
4155+723589240+724349500+721850506+719364213+717258141+716734935+718435264
4141+719488847+719446735+721118078+724099442+725809434+725394697+723584440
4128+722682167+723750699+724293837+722289125+719864693+719873565+721973439
4114+724120529+724050768+721053240+717983399+717280443+718331899+720102779
4101+721499818+722245676+723817361+725131757+724080605+723466490+725347541
4087+725736513+722612224+719457673+719266986+722567560+726745432+729043711
4074+729822261+728919260+726441292+723606377+721316240+722254244+725816786
4060+726389579+724424183+724907708+726334280+724659717+721739241+721825835
4047+723750395+723771785+722964978+723031761+723539958+725986509+729891840
4033+730361024+726143775+722213652+721757836+723212119+724443324+724635349
4020+723807516+723039418+723178940+724353510+726821695+729402359+730005718
4006+729504509+729494908+728453843+726252731+725329858+725467010+725267754
3993+725272372+726773142+728960581+729420043+729271284+730307488+730582278
3979+729408862+729201159+730352091+729714217+727381240+727464795+729903629
3966+731880388+732418847+730601602+727380268+725358115+724737985+725197264
3952+726347224+726766153+726534691+726108712+725038479+725528446+729460514
3939+732206465+731004489+729833929+729698053+728590144+728600596+730079003
3925+730014043+728324956+727588699+727043495+725816786+725920941+727086883
3912+728079942+728962951+730522604+733111472+732265410+725569342+721679021
3898+724621190+729492538+732448441+731516878+727749672+726383623+727181984
3885+727561719+728175772+728344280+728639791+729295652+726966139+723515287
3871+722698453+723820034+725601670+724902603+723078856+725756262+730292539
3858+732262857+731263843+726898748+723814991+726972884+732248516+735619824
3844+735247989+732551988+729667852+726170695+723612453+723251982+724243765
3831+728200079+733614808+735048429+733119554+731698755+730866425+733025851
3817+735385141+732254046+729650351+731768637+735925483+738527416+737753424
3804+735623713+733069178+733091601+735549091+736918664+737691684+738978978
3790+739798364+739628641+739201629+739040353+738000503+736199361+737296454
3777+741230041+743683945+742454319+737576105+734706978+737399394+740915449
3763+742319720+739655257+733609156+731958353+735427192+739660787+742823359
3750+742872945+741967877+739581060+733867903+732302660+735334035+736007033
3736+729665360+722734306+723588207+730070860+737477540+741283455+740025269
3723+738084180+737969755+738222729+738504264+739268534+738943855+737445759
3709+738535377+741537280+743610842+742460457+740113138+740891142+742188766
3696+741978815+741090033+738705221+735279102+735792889+739944266+742265576
3682+741106744+739581546+739338234+735538700+731349707+733777907+733095491
3669+727944552+727977002+730883501+733427827+735897287+737694905+736172806
3655+733363413+734882595+737560548+732809945+724452683+721626397+721847103
3642+721728303+720708750+721375671+722908525+721612967+719599808+717673182
3628+712962867+711308235+711897860+710783631+707643118+703412196+702101932
3615+703975326+705286684+705412047+704439831+702297724+701923398+702841470
3601+702184697+700421778+698219025+694549897+691728897+691314465+690957092
3588+688525611+685133035+684940524+687777627+688629341+686334830+685049906
3574+686193120+687773130+687304918+683141874+677026255+674095207+675790006
3561+680814913+684953346+684435488+681289566+678367025+676440337+675414160
3547+674066828+671996548+671719267+675018626+679148613+679842697+676879381
3534+673262817+671121682+671407105+674101952+676882176+676624462+674493961
3520+673916672+674578732+675529983+676764288+676164818+673127427+671191868
3507+671723946+671864015+670995650+671419867+672844981+674477554+675950249
3493+675101634+672630715+672878585+675935118+676666635+673327412+669481634
3480+668165111+668636725+669614228+671539153+673838040+674800958+674438299
3466+674671341+675792254+675070825+672230624+670437503+670901157+671949514
3453+671909529+671943681+673430716+675142956+676290181+676763680+675955961
3439+674726336+674992922+677215181+679227914+679577752+678893694+678045201
3426+678465346+679326540+678867686+678732114+680304468+682853472+684636749
3412+685035078+685506268+685307073+683776284+683187328+684505735+687329164
3399+691256857+694291940+693749592+689766418+685933097+685077737+687030129
3385+690732071+695458732+700821930+705603707+708099905+708473502+707694344
3372+706757191+707525594+710710163+714047624+715305324+716336545+720535199
3358+727046838+731022840+732406511+735606941+738755658+739504250+742109526
3345+747134493+749416244+748064050+748351419+752703328+757017075+758643754
3331+759459798+760609879+761780379+763981369+768777123+773452861+775188313
3318+776563112+777129342+774828389+773847848+776081410+777337166+776928688
3304+778240350+779994032+778740160+775756973+773415550+771662718+769823596
3291+768099325+767346236+768971092+771684168+770547638+765934855+763378133
3277+764685541+766696451+765185169+761052204+757705143+754908268+752987354
3264+753861674+755902664+756710990+757717114+759536243+759204758+756377013
3250+754256965+753404157+753088957+753026124+752026988+752143114+754720133
3237+755133837+751980501+749731322+750798881+753723003+755272629+754167941
3223+752288227+750679656+749788261+750368345+751143553+751193322+751354294
3210+751337644+749913563+747638558+746813764+747685774+749114352+751722179
3196+754490068+753974579+751165247+750707184+752643290+753660959+753604871
3183+753835118+753447119+750468004+746477234+746034970+749188792+752140744
3169+754302540+756888309+758895817+759673091+760567221+761129014+759801067
3156+758119819+757518344+757109684+756677629+756300386+755283871+753064954
3142+751229661+752403867+756001289+759201537+760684441+761153564+761614788
3129+761117529+758300358+755420840+756298988+759655590+760846143+759992241
3115+759992970+761182489+762290763+761325779+757983943+755217635+755642398
3102+759029687+762380152+762855534+762324671+764325555+767607413+769230143
3088+769008221+767542149+766350139+766930891+768524270+769620512+768212352
3075+764096098+761663766+763931236+767871690+769422532+769269885+769782943
3061+769745692+767355168+764088684+762644915+763660154+765273342+766813793
3047+768899569+770418508+771188368+773189921+775995546+776467768+774486755
3034+771720933+767862575+763955179+762450946+764455962+768305873+770587198
3020+770976169+771094057+771435083+772652434+774305729+775209278+776437749
3007+777892822+777573733+777063044+777609768+776744624+774412680+773471820
2993+774698347+776189697+777425764+780205259+784593386+787867648+788203144
2980+786472067+783838535+781607404+781515280+783385515+785070895+785028419
2966+784435330+785672795+788765181+791962998+794158884+794053088+790716783
2953+786673267+785499791+787407883+789906512+790715385+789670006+789113074
2939+790189262+791016730+791321721+792007115+792109569+791695865+792193184
2926+793445294+794145819+793546897+790580117+785732529+782314066+782017218
2912+784391152+787329615+788230611+787925256+788020478+788685880+789884393
2899+790491215+789622242+788781041+790068578+792531901+792613025+789711327
2885+787669486+788827771+790827075+791114869+790537823+790603087+791434140
2872+792159398+790912575+788349229+788693050+792501153+795557078+796581007
2858+797878935+799332428+798259217+794717335+792871104+794539895+795274085
2845+792968575+792072865+793954888+795599798+795649809+794838505+795175217
2831+797090784+798047382+797655129+797567685+797874438+798466919+799337593
2818+800039273+800746057+801601660+802352014+802938115+802898798+802431498
2804+802297141+802365383+803261943+804744422+805619774+806599525+806463771
2791+804024816+802011474+801361204+801357619+802510252+804001177+804901505
2777+805321346+804433233+803158943+803878184+805758688+806584698+806063679
2764+805758688+807195409+809740768+811536927+810933022+808244495+806457998
2750+807258546+808827010+809501953+809881444+810080336+809982196+810723982
2737+811657550+810351054+808052592+808505855+811204834+812835828+813409896
2723+815207757+817076593+816009034+813888681+813591286+813569228+813029250
2710+813804944+815823511+817499777+818304822+817898653+816485267+815500229
2696+815518034+816195286+817336434+818027540+817423088+816016144+815145835
2683+816665867+819642917+820542759+819765910+819570178+819584823+819214325
2669+819008628+819624930+820210422+819764755+819414614+820366594+821943931
2656+822943674+823459466+823871286+824131978+824749495+825640161+825380806
2642+824009046+823717363+824734668+824746517+823394445+822782458+823177385
2629+823175440+823308946+824547991+826104180+826897132+827217193+827614976
2615+827462511+827203095+827528200+827470107+826769946+826331449+827319039
2602+829639316+831195627+830594152+828874742+828148209+829167823+831413416
2588+833985817+835415792+834924610+832668868+830014189+829554546+831324757
2575+832740270+833210487+833704404+833985574+833700393+833555949+834011521
2561+834624299+834885902+834474750+833872911+833466257+832376517+831302820
2548+831991131+833668855+834895564+835434205+834661427+833264266+834199657
2534+837146809+838051877+836131266+833982839+832836890+832619829+833171961
2521+834521845+837346855+840443069+841226906+840728797+840320380+838943697
2507+837968686+839268984+840990521+841591449+841704111+840730620+839109227
2494+839030169+840104534+841239728+842100922+841777579+841114547+841569330
2480+842504234+842796039+842521492+842667577+843046643+842235764+840762340
2467+840376833+840869351+840675686+839355335+838306431+838827085+840504444
2453+842351951+844079322+845346927+845620015+844793459+842659434+840542545
2440+841084650+843573009+845192761+845793627+846281893+846322971+845740821
2426+844920766+844932373+846911745+849653808+851048174+850316718+848162943
2413+846976888+847782176+848892698+848738835+847706277+847189938+847085965
2399+846186974+844584541+844126113+845617281+846913204+846740260+846437214
2386+846503572+845806996+844108186+842778051+841939767+839735738+835803791
2372+831841704+829241533+827893837+825535945+822829614+824029828+826957778
2359+826498620+823516709+821285274+822448785+827265807+832898143+836262098
2345+836057616+833843257+832585070+834281936+838010859+839798267+837853836
2332+834950497+833976094+835039704+836872445+838047076+837911626+838050054
2318+841041019+845600752+847663558+847534428+847962594+849087639+850010937
2305+850498655+851422561+853193380+854838350+856309344+857352718+856719037
2291+855357667+855133436+856493165+858802564+859917704+858300748+855593080
2278+854834218+856616158+858660308+859524601+859451012+859224350+859566348
2264+860129174+860455981+860623091+860489585+860060264+860201670+860764132
2251+860296528+859178592+858772727+859726166+861277129+861332366+860254780
2237+859715471+859395774+859068603+859248717+860247853+862024263+863161948
2224+862472239+861666526+862375680+863249209+862902350+861916826+861667680
2210+863351238+866015518+866317714+863352878+860703668+860894842+861962402
2197+862221513+863043026+864393579+864603712+864016943+864129120+865086083
2183+866228993+867528441+868477626+868689217+868621583+867513492+865530899
2170+864800902+865335593+865771294+866182446+866207360+865535396+865849016
2156+867451570+868431686+868046300+867220229+867345714+868820900+870258289
2143+870569721+870539520+870704686+870666645+870789577+870848096+869781570
2129+868676821+868982116+868979138+867248365+865734348+865927223+866856963
2116+867007544+866537448+867446709+869894840+871569647+871795823+871874456
2102+872385691+872676280+871940753+870775844+870653033+871353619+871609085
2089+871704246+872379614+872703321+871865887+871298321+871943366+872242827
2075+871430368+870818381+871162324+872228121+873620360+874422184+874043665
2062+873344841+872616667+871611941+871560228+872687461+873855226+875489136
2048+877772041+878970797+877696751+874517893+871882538+871642993+872626998
2035+873288632+873458537+873090895+873560383+875829676+877617206+877403488
2021+876925067+877141824+876346016+874721099+874839412+876391226+877167832
2008+876723563+876659757+878067795+879473646+879658136+879870396+880663348
1994+880484510+879250874+878819487+879444600+880050267+879500992+877926998
1981+877231759+877740138+878136827+878113796+878067309+878470622+879562367
1967+880279299+880264168+881580934+883699828+883729726+882205378+881308271
1954+881642795+882694737+883357587+883145630+882245910+880375858+878369201
1940+878966847+881676339+883474625+884011382+884461181+885001038+885721191
1927+886139270+885398334+884860301+885555661+885787609+886002725+886709570
1913+886145589+884767752+883979661+884424478+885830693+886949480+887087968
1900+886229570+885678836+886165946+886246281+885727328+885308034+885257962
1886+886081966+887442241+888344149+888514662+889016114+889995561+889901068
1873+888093970+884971809+882431493+883389429+886060697+887462112+887445887
1859+887544695+888986034+890410115+890510138+890579777+891124495+890564464
1846+887555755+885249090+888398293+892512663+892445515+889843825+888696174
1832+888373135+886666426+886229266+888386079+890068907+891080378+892811638
1819+894751025+895570290+895374619+894769256+893724423+893340860+894053113
1805+895223795+896343189+896018935+894282631+893376713+893549778+893063761
1792+892107163+893703398+896218312+896200507+894796905+895328375+897181595
1778+898055003+897688394+895711027+891779809+891175661+895590768+899143770
1765+899094063+896381533+894173129+895217779+897406495+898542417+897695625
1751+893748001+889087576+889179335+892966473+896018448+895711574+893597845
1738+893739858+894239243+891616224+891372243+894801037+898254623+900780476
1724+901851864+901846759+900188360+894810881+889766590+892065294+896100363
1711+897931463+898247210+897359521+896035524+895718440+893933159+889204492
1697+886400447+887635238+891379414+894288708+895491292+895708961+892365606
1684+885817264+888299728+895227319+898576629+897133346+893618992+890693048
1670+887858254+887877821+891109000+892607034+891415206+890792037+890636473
1657+888207727+881211469+874176928+877542766+878263041+872782136+872793682
1643+879214778+883226086+882482963+877859364+873174268+874238060+877111379
1630+878703117+880167487+881757281+881503881+881692381+885182367+887589724
1616+886143037+887760358+892840928+896859103+899301765+900920909+901275182
1603+901224928+903181634+906661168+908344057+908355421+909999661+913481869
1589+916046431+916552440+916941593+919103936+921487046+921226902+918123031
1576+915234398+914908442+913952573+912591568+914322220+916305482+917091202
1562+918066274+913922371+903704172+907052813+914117981+918515891+922551628
1549+926976397+929235360+926100498+917505757+908916485+912709882+923103091
1535+927531142+926167463+925993122+927255380+925289194+922133549+921790093
1522+923174979+925313744+927029751+929256750+932771833+934815680+935242874
1508+933888249+929500488+932582421+939861733+943622924+941572332+938114674
1495+937193321+935771306+932710944+932712099+937624647+941553312+942289811
1481+941308359+940302964+938406722+934361505+929236028+928701459+934203145
1468+938279961+937843834+937082420+937189796+931681911+918677228+914492733
1454+922738366+928641542+930561180+930672020+932508711+935698081+937611825
1441+939671106+941793039+941207242+941021294+943383501+944194501+943611196
1427+945436766+948610762+949752215+948334393+943762142+938270117+937692463
1414+939301155+939735580+939578679+938361085+935104020+933695921+935680459
1400+934992330+930111320+926167889+924173142+923701831+923345370+919330233
1387+913693643+913246457+916696823+919594389+919877321+917806129+915670342
1373+915053493+916118683+918129533+919197335+918329275+916313746+914537275
1360+914955415+917369820+919480815+921010874+922268757+921142739+918121876
1346+916483165+917067685+918280175+918679902+918438595+918579271+919203777
1333+919971997+920584045+920541751+920775279+922346599+923608675+924178733
1319+925403679+926124258+926999671+931736480+938848439+942936132+943570968
1306+943732001+944521733+945225904+945957663+948491841+954071067+961203869
1292+965727141+965482492+964026509+965507954+969388552+973192827+975540874
1279+976186648+976112876+975685622+975303031+976255072+977950296+978452538
1265+977079076+976195459+977986939+979942005+979369942+977773160+977856107
1252+979967831+982559677+984452942+984981678+984835715+985556475+986482873
1238+986709413+988353593+992279767+995548621+995436566+992752658+991689960
1225+993774338+995192950+993292150+990217447+989598046+991936432+994834423
1211+996184429+996792223+1000086539+1005451742+1007472740+1004321349+999949508
1198+998618766+1000408362+1002617496+1004096571+1004981403+1005269319
1186+1006555093+1010745787+1016802522+1020294817+1017881749+1013895659
1175+1013923794+1016088203+1016176923+1013953023+1012661961+1014055051
1163+1014660172+1011202635+1007024703+1006568158+1008620391+1010713763
1151+1011728941+1011107352+1012132435+1017192587+1023191715+1025909106
1140+1024583285+1022651129+1022545516+1023623892+1025105155+1026825719
1128+1029171336+1031561799+1032253452+1031565445+1031618677+1032391273
1117+1033685008+1036374689+1037604011+1036848431+1037596962+1036293261
1105+1029916829+1023080268+1019365503+1021203653+1027854023+1033529687
1094+1034749529+1031780197+1028806125+1031450230+1038377700+1043043533
1082+1042360509+1039098886+1038110931+1043769702+1055005449+1061584114
1070+1058660358+1053972892+1052637592+1053789861+1054654457+1053166875
1059+1051243590+1052094940+1055149468+1053235906+1045277945+1044149497
1047+1053853423+1063222765+1065002760+1060487873+1054345274+1052385407
1036+1056436883+1062048498+1064436895+1064841119+1063802606+1059274958
1024+1053898756+1052029919+1053051781+1053945425+1055629651+1057681032
1013+1055886453+1052164579+1051956633+1054525509+1054848913+1051651946
1001+1048281915+1046137924+1044245145+1043174668+1042496384+1041585483
989+1043578892+1047012486+1046780720+1046480287+1048287992+1046824108
978+1043439371+1042857342+1041751013+1038653219+1039438089+1044405935
966+1049618187+1054306504+1056448429+1056440408+1056775478+1056305018
955+1055048108+1054505821+1056814248+1061273837+1061828885+1058569693
943+1055318158+1051675646+1050679184+1054618969+1057998602+1057428970
932+1056399937+1057515624+1060897201+1066668998+1072436907+1073741823
920+1070685472+1067674332+1065158810+1059291608+1053640009+1055854611
908+1062969244+1067336345+1066580035+1060425282+1054199432+1056001303
897+1064325812+1070680732+1072170017+1072627594+1073247420+1069452747
885+1060071009+1051978024+1051071133+1057424230+1066227463+1069880549
874+1065186763+1056215690+1049369163+1048366017+1050718196+1051858434
862+1053655808+1058394805+1060870099+1057923858+1050707501+1041652084
851+1037751554+1038886079+1037772215+1037037052+1040725747+1042416536
839+1039597542+1036911993+1032019498+1024205556+1021173877+1021667307
827+1016578655+1009104524+1010307776+1017459173+1017881688+1012528456
816+1010514507+1013148647+1017189610+1018587135+1015187146+1010339801
804+1005440986+996946815+988341561+985437858+985710399+987622988+992357731
791+993967031+987651002+979967162+977095179+976593667+975445591+975499431
777+976295361+972967866+965440806+956795932+948486979+941728929+937172660
764+936425162+940650189+945557511+945033818+940855278+937955464+936619678
750+938677015+943508256+943599711+936716237+927999901+923579567+926621273
737+933916081+938540470+935868412+928628113+924534890+925590417+924656971
723+919589041+917155616+917448210+916439048+916016837+917347276+920365222
710+924354776+924086974+920013561+918150984+917512137+913489708+906244608
696+902254812+905804957+911808582+912712313+908625713+907209167+911654780
683+914535209+908476894+898072929+893913045+898514282+904746756+904764682
669+900806970+904577884+910599738+907919355+904133128+906037149+908855900
656+906730990+900828482+898088546+901551370+905437194+909105471+911172166
642+903763784+894682055+896673337+905698736+909138954+903680473+892939310
629+883286611+890827526+905759868+889533547+862286777+865046948+890242884
615+917104936+941724250+955995445+982570189+1037143030+1030528512+959431895
602+928902416+944520639
##END=
