##TITLE=Sample description
##JCAMP-DX=4.24
##DATA TYPE=INFRARED SPECTRUM
##DATE=25/8/2023
##SAMPLING PROCEDURE=Instrument type and / or accessory
##ORIGIN=Default
##XUNITS=1/CM
##YUNITS=ABSORBANCE
##RESOLUTION=4
##FIRSTX=4397.6552
##LASTX=599.8556
##DELTAX=-1.9287962
##MAXY=2.05391
##MINY=1.2595572
##XFACTOR=1
##YFACTOR=1.9128528e-009
##NPOINTS=1970
##FIRSTY=1.3403492
##XYDATA=(X++(Y..Y))
4398+700706934+702935004+701815236+700006081+699504778+700093392+700000535
4384+696998137+694207191+696269178+700305405+701866899+700873765+699050838
4371+698284612+698587363+699422827+701572561+704097026+704831220+705062988
4357+705978472+704549595+700088219+697262748+699203772+703129630+704629676
4344+703261749+701324651+699611657+698315336+699180339+701321722+701970101
4330+701873380+702363591+701205059+696585764+693401703+696247366+700748751
4317+700383742+696789925+696196824+699425382+702681050+703205349+702781011
4303+705631972+708332055+705810768+702274473+702182426+704770458+707915444
4290+710866304+713648525+715276452+713780769+708295348+702237330+699356581
4276+700173099+703855161+706538543+705188938+704364878+707338111+709622643
4263+708692577+706696587+704273018+703101648+705879258+710448884+711499352
4249+708856043+707397564+707323465+705401138+703090555+701753850+699994116
4236+700165434+705455356+711826658+713060161+710798313+707545574+702635992
4222+700591268+703404711+704964523+704139528+703619903+702097858+701115505
4209+703465660+706495293+706884607+705893467+707200632+709390874+707580349
4195+705060184+705545533+704953617+703886259+706700513+709894920+708247486
4182+705418525+706573006+709087998+709886008+709232768+706494171+703180359
4168+702552421+705752997+711084362+714886328+715451821+714838903+715318955
4155+715661030+713706234+710320940+708017712+708459936+710114474+710816012
4141+711670608+712608776+711910603+710539933+708767112+705805284+704384073
4128+706325844+708244620+707607957+707035858+708659173+710655724+711191615
4114+709849364+707075556+704745530+704192251+706075504+709948515+712174093
4101+710715739+709380280+711161639+712886225+711013691+708436316+709887878
4087+714028491+715640651+713721066+712279663+713236215+713555419+712126916
4074+711488072+711586227+710649430+709941161+712186120+715793647+716726518
4060+714890067+711906178+709531282+709592355+710013079+708150080+706941692
4047+709216689+712643052+715425273+716896839+715420474+713512418+714579775
4033+716437602+716366245+715496567+714299833+712565214+712554931+714865139
4020+716772635+716464898+714267489+710929871+708201619+708516896+711679644
4006+715346126+718216281+719731035+718875629+716991566+716951057+717210122
3993+716123570+715797698+715746097+714233587+713610759+716892850+720699927
3979+720288115+717772063+715502675+714378045+715701725+717885611+719368643
3966+719835671+718843783+717516925+717796680+719865958+721225161+719804324
3952+717042481+715440105+716327046+719074368+721285985+721757064+721436738
3939+721406263+721868118+721776445+720678426+720346260+721054965+720612242
3925+718527508+717825783+719181122+719088078+717820611+719074056+721844810
3912+723512124+724455215+725011734+723433912+719782449+717078315+715748715
3898+715524736+717549019+720214203+719923231+719063088+721478617+722956166
3885+720890938+717164753+713130894+713132826+714955317+713735462+713372696
3871+715513705+716584366+718550006+719189037+716651671+717804220+722236991
3858+723354516+716522793+702859784+702741500+714551046+724344534+729754859
3844+729121312+720468220+710583371+707869452+711548461+716279184+718903922
3831+718963874+718854440+720528110+723844353+724186802+717659575+712831259
3817+711773623+711829275+716783977+724072133+728150364+727188951+724900492
3804+723879626+722812518+723744890+726295965+726955126+726531286+726792844
3790+727384823+728122694+727953619+726749345+726582015+726318401+725932265
3777+728449252+731208227+731326137+729743579+727840944+727148630+728112910
3763+729356820+728845047+726102711+724298729+724507501+724532305+723019171
3750+721888808+721644887+718452163+716344932+720465665+723085667+720614860
3736+717937025+720991273+726636420+731069129+732775704+730062845+725656997
3723+724487060+726967714+730590385+732486414+732265676+729838679+725689029
3709+724937324+727085998+728884558+729333512+729544591+731420739+733237933
3696+734015127+734827159+733509399+727638716+724864970+728475426+732111620
3682+733861383+735742393+736007503+726773089+715121961+712877563+712906853
3669+716373910+723633212+727861448+728669179+729041293+727969885+724109400
3655+722223281+723458466+720305689+708865578+703816897+708653938+713853932
3642+716324740+716227458+714208285+711370349+709074413+707405042+703977870
3628+701314306+703892304+706070705+704633166+699189874+693625619+693917838
3615+694937583+692171877+689623792+687698972+686130685+688004777+690845392
3601+691590305+691245861+688978467+683926109+681359329+683597495+685798145
3588+683594504+679494647+677979894+677828892+676978222+675823117+675362821
3574+675327298+675369364+675049475+672574617+668814156+668656237+671162816
3561+672150466+670016873+668038457+668098097+667387149+666034677+665714663
3547+664196793+661884341+661646652+662088191+661990161+662909134+665101869
3534+666451786+665281226+661854178+658758424+658470568+659520725+659709617
3520+660265700+661588632+661621288+660379060+659733673+659610341+659530384
3507+660920373+663525480+664899328+664791888+665126922+665829706+665502027
3493+665077190+665275306+664558001+663229958+663200668+663481856+661649083
3480+659750561+661254222+664207201+664865675+663733692+663331789+663959852
3466+664315638+663364944+662063886+663187207+666067270+667139115+666920246
3453+667356301+666171781+661858603+658994493+660580292+662537270+663244853
3439+664577943+665946245+667237144+668484233+669376471+670068038+668552723
3426+665591394+664896898+666344221+667980686+669299132+669516255+667242878
3412+664728883+666338114+670599130+673898484+677422190+681623379+684322777
3399+684389958+681832401+679029614+678339481+679885332+683767068+688035812
3385+690007996+691215013+693332963+694858997+695638248+697821760+700792998
3372+701394512+700503895+701958510+706324660+711014377+713180127+712574874
3358+712223201+714015342+717863674+722893035+726347566+727639650+730071009
3345+734599815+739059134+742772730+746086106+748602469+750498560+751955107
3331+753131275+754691024+756585121+757630479+757138337+758161322+762674673
3318+765829693+765685298+767400099+771840909+773020879+767821508+760991655
3304+758220713+760147092+763415036+765342163+767879653+771646719+771215152
3291+765207427+758330459+753745877+752894521+754292425+756130745+758007205
3277+756917225+753599549+752228319+751664820+751049283+751735553+752237542
3264+752061924+752603112+753354257+752533002+749178869+745437041+744241118
3250+745248523+746909916+747931468+746942821+745098768+744732076+745790646
3237+746956656+745566917+740790014+738246978+740222340+741194784+739004604
3223+736876495+737476763+741674400+746187065+746004965+743046440+742271364
3210+743869876+746045785+746785089+745590972+744175931+742450909+740318188
3196+739461785+740042172+740952420+742249054+743869316+743805001+741494232
3183+740061055+741434031+743761439+744841011+744381338+743444417+743100285
3169+742747740+741320172+740080375+741095508+743490908+744533088+744414617
3156+745554079+748173582+750938790+752635581+752867661+752553630+751324926
3142+749412881+748976079+750046988+751063742+750521307+749250786+749192143
3129+748951774+748687412+750693311+753601730+754722932+753351452+750903891
3115+750096034+751120889+752111468+753270623+754196825+753825023+753814741
3102+754304639+753292311+751342562+751523041+754247990+755771531+756114479
3088+758806835+761764799+759780400+754272731+751784225+753864223+756532086
3075+757568845+756963965+754881350+753396822+754787496+758187310+761312105
3061+762076275+759088023+755566124+756418851+759322908+759100363+757082249
3047+756261181+757218543+760060592+762846801+763421019+762507655+761258946
3034+760185917+760160055+760968721+761463979+761185969+760233904+760262696
3020+762070292+763836134+765046142+766478384+768866430+772114868+773658601
3007+771536039+766928896+763553263+764762087+769191554+772218631+772073301
2993+771103973+771653201+772742869+771242075+768730510+770471860+775030642
2980+777518213+778203797+777787062+776133958+775437966+776818358+779309357
2966+781433353+781860869+780653603+779044247+778559770+779102828+778447282
2953+777314551+779233825+783320095+785150750+784147956+783548997+784512716
2939+785586056+786271017+786993620+788778407+791111299+789795846+785493636
2926+783945977+784862021+784537270+783467420+783533978+783670459+783020398
2912+782807325+782076746+780094217+779117972+779748278+780862812+782423121
2899+784744111+786607795+785948635+783385469+781901439+782522896+783381668
2885+783567943+784228287+785336651+786283357+787226323+787533686+787100436
2872+787551634+788642985+788160565+787088471+787962760+789749542+789455204
2858+787497603+788205684+792078695+793943065+791688883+788715401+788247314
2845+789957878+790990274+789942423+788992040+789682298+789965980+788621111
2831+787006707+786715609+788691096+792180402+794828198+794874814+793258665
2818+792179654+791986337+791868302+791669813+791095595+790309987+791241549
2804+794304148+797403205+798891722+798623808+798207634+798271636+797957294
2791+797825673+797777001+797268157+797227275+797199356+796569673+797423584
2777+799997656+801333675+801026063+800882228+801659610+803166636+803957852
2764+802878343+800767310+799538107+800146788+801641537+802865193+802955121
2750+802041508+802444657+804707065+805720454+804421016+803782047+805146049
2737+806478142+806735462+806667097+805992232+804711490+804512689+805682438
2723+806934949+808117536+809415416+810302045+810340060+809431494+808160662
2710+808163778+810298243+812753034+813518887+813044069+812312555+811441693
2696+810499226+809739231+810113776+812450158+815018684+815380452+814393986
2683+814703842+816416961+817353633+817037981+816154531+814010406+811652710
2669+812105154+814834029+816251065+815579690+815084431+815758985+816449243
2656+816397642+816257733+816477910+816776237+817699946+819378477+819734076
2642+819028425+820429818+822675089+822030512+820224598+820587738+821885243
2629+821847851+820595092+819128137+818586201+819589120+821498048+823437265
2615+824906899+825292287+824444608+823136819+822010195+821844361+823498027
2602+825921159+826522113+825051482+824341094+825259444+825873235+825831294
2588+826299318+827119264+827235990+827422951+829442498+832011272+832080572
2575+830098355+829163864+830070872+831402280+831926953+831368627+831092922
2561+832106124+832844929+831480865+829503011+829844089+831412999+831159854
2548+830029429+830220502+830933383+831017702+830530857+829358178+828797359
2534+829784822+830513594+831025056+832614718+833445259+832169441+830873555
2521+830993335+831407702+831805803+833285408+835663981+837217062+837054531
2507+836131819+835217021+834599740+834280349+834011749+834314438+834694093
2494+834495665+835026758+836674877+838018250+838552708+838503662+837173625
2480+835306014+835112323+836451023+838085618+839659763+840244202+839046720
2467+837020006+835651455+835825952+837327493+838408935+838515814+839380693
2453+840956396+840703501+838727578+838386625+840022716+841008870+841350758
2440+842209530+842356917+840346656+837045059+835157319+836916430+841209229
2426+844088358+843410751+841318601+840863165+842111002+843425209+844118085
2413+844379954+844469882+844115530+842733019+840578923+839342616+840421876
2399+842716754+844146441+844494873+844878266+845428117+845745701+846294554
2386+846868211+846190106+843665703+839977534+836081402+831117227+824442053
2372+819482739+818837788+818397683+814479864+811410284+811780902+811622360
2359+810315194+810903559+813750655+818254097+824629886+829615062+829207301
2345+825586064+823599048+822208747+820191755+820635537+824178812+827668617
2332+830004065+831966152+833243093+833343740+832494440+833184761+836524124
2318+838897775+837910062+836402039+838372353+843436178+847206547+847877362
2305+848044068+849174307+850253941+850664319+850582306+850486644+850713739
2291+851177588+851860118+852731230+853313425+853177130+852758775+853233156
2278+855127128+856661077+856093527+854587810+853866578+853901852+853637489
2264+853672202+855374664+856954854+856276063+855221855+856233498+858201257
2251+858968605+858143362+856361877+855202660+855913172+857368660+857536675
2237+856403632+855432061+855560066+857120937+859160427+860143091+860403963
2224+860698363+859880287+857537111+855693805+855333782+855991322+857684934
2210+859547310+860111744+859389827+858638620+859122474+860654802+861539187
2197+861045923+860080459+859721059+860748967+862622187+863495479+862868912
2183+861883693+860900468+860115483+860923028+863029948+863962444+863317617
2170+863045715+864009060+865376302+865957749+864778963+862815940+862735547
2156+864231979+865168838+866171133+867308227+867325552+867445144+867878269
2143+866842570+865446474+865654374+866591046+867135974+867124320+866001435
2129+864772295+865299648+867206458+869159260+869859988+868737789+867370609
2116+867025355+866995192+866756195+866579891+866335658+866228841+867014761
2102+868097698+867529962+865075856+863976715+866760806+870377307+869995223
2089+867195552+866711760+867734060+867668749+867778806+869050947+869886536
2075+869375137+868703388+868940392+869990362+870929963+870561650+869592073
2062+869643737+870623597+871399483+871490470+871567934+871702421+871641410
2048+872271342+873695918+874261972+873775813+874549081+875883854+874646238
2035+872195000+871745173+873121513+873921143+873379332+873333838+873938281
2021+873285914+871644962+871179555+872259563+872855406+872654922+873596518
2008+875772177+877108757+876462933+875152714+874688928+874644805+874689426
1994+875019848+875451041+875690101+875229430+874754177+875054435+875644732
1981+876467046+877460928+878195122+878446023+878277011+877976254+877236077
1967+876304204+876401174+877616417+879415600+881030627+880881059+879271952
1954+878917039+880341179+881177391+880728312+880440954+879769205+877779571
1940+876807377+877972141+879934478+881391149+881583781+881332007+881365286
1927+881181068+880990867+880974975+880186002+879024417+879679339+881841911
1913+882604585+881509869+880333202+880307277+881452161+882625151+883530725
1900+885139333+886342361+885858071+885150987+885201591+885051275+884589981
1886+885086174+886693037+888175820+888193582+887235970+887223568+887527254
1873+885903565+882471469+879714363+880952104+885160335+888535969+889236385
1859+887672336+885966571+886127980+887708357+888651572+888404161+887758774
1846+886352893+884997118+886158641+888258955+889377914+889739059+889685090
1832+888036348+884787847+884345187+887060539+889415680+891371536+892455470
1819+892050078+892015490+892441261+891107610+888838471+889181481+892543716
1805+896171185+896682211+892616319+888568001+888056415+887610950+885498796
1792+885593335+890290406+894703234+895355851+893882477+892772244+892679262
1778+894156561+894571177+890751637+885120886+884023117+886488190+889855972
1765+893261021+894055665+893044147+893710536+894771474+895515453+895386014
1751+891823357+887249307+886765889+888091252+888774468+889174439+890396537
1738+893031745+893440814+887978702+885331279+888894123+893003763+895793089
1724+896847795+897178092+896625998+892209929+887043588+889103331+893745124
1711+895820198+894340406+890378339+887094379+885232938+879652666+873268963
1697+876087828+883735447+889896106+892151971+890417290+886672347+879067542
1684+871245552+877994202+887947978+891512878+889038581+884894352+882744930
1670+881395948+883484857+888314670+889600895+888013726+889271035+891529268
1657+890462222+884204593+874018113+872360397+873428502+870970346+871159924
1643+875955834+879200222+878614537+873851469+867973557+869406858+873775376
1630+875878744+876671332+877746916+877920913+878290160+879960216+879715298
1616+879152858+884106065+889783805+892203884+893385412+895690261+899160621
1603+902946882+905434017+906529419+907325123+907456992+906954941+907360209
1589+909387172+911898114+913516194+914378082+914981030+915045656+913363884
1576+911246432+913318266+915724821+915313009+915788948+917590063+918598403
1562+918507104+911942984+900394373+905794851+915800540+922014296+923546001
1549+921650471+919425766+917338975+914513192+910414021+912311172+919773388
1535+922295921+920108172+920294633+922151151+922646846+922432153+920123066
1522+916835491+917686535+919662208+922173649+927060048+930406142+928920304
1508+920497174+914055887+924458867+935179804+937485712+933245448+931944577
1495+937271704+941730899+939614818+933414897+934026320+938932163+940607578
1481+938895082+936346624+932288709+925594714+919177171+920434168+928232913
1468+933176584+931744592+928528934+927294558+923200249+912769100+907464907
1454+915144495+923745363+927471361+926698840+927662559+932078254+935097977
1441+936344131+937313770+936194438+935209904+936884260+938068405+939279598
1427+942668256+945728176+946340098+943529895+936059640+932582736+938427681
1414+944168801+945015794+942570725+939119497+935596476+933465501+931672487
1400+925710879+917322959+913224287+913232949+915264399+918118227+916996526
1387+910617621+907920031+911156068+914167191+914244156+912444038+910178202
1373+910302967+913072163+915331518+916346527+915610962+912603142+911956258
1360+916178761+920470501+922581347+922419003+919688757+916757777+916010933
1346+916841847+916893698+914553264+911254035+910206433+912691948+916245880
1333+918347876+919906067+921579239+921425246+920090784+920588909+922608394
1319+923609069+923383221+923774467+925890298+929273722+933379187+937601627
1306+939978767+940667343+942949632+947407019+951807819+955190121+957714275
1292+960587795+964113683+965871984+965664146+967117577+971472883+974678009
1279+973693911+971449700+971166642+971338396+970486168+971289039+973168926
1265+971841632+969175077+969497272+972139335+974960631+978462401+982450579
1252+984145002+983957169+984836133+986689784+988161661+988711325+987722865
1238+986055177+986544515+989226526+990808274+991048331+992331690+994050667
1225+994470892+994689324+995511140+996266460+997759527+999267737+998770297
1211+997043966+995419965+995470071+997934397+1000139596+1000922524+1001343870
1198+1000196058+998059910+998756898+1001055577+1000819509+999912127+1001304609
1184+1005220558+1010553918+1012223225+1008081926+1004659739+1006877028
1173+1012118029+1014962570+1014506387+1014667235+1015260523+1012747899
1161+1009381675+1009448607+1013583924+1019475485+1022901162+1022867883
1150+1022428214+1022842394+1022588314+1020690292+1018520428+1018222476
1138+1020585781+1023572661+1024238303+1023830916+1024276630+1023741549
1126+1021580597+1019094771+1017888564+1019201712+1021836982+1025576130
1115+1029089491+1027143980+1019566098+1013582802+1014620495+1018570658
1103+1018059259+1014737158+1014111090+1016083835+1017968334+1019349847
1092+1020028701+1022701924+1029743230+1034082831+1033153077+1033784256
1080+1034674125+1033581715+1035503856+1039635121+1041466773+1041789467
1069+1043402126+1046924461+1046936177+1041884194+1039450280+1042685506
1057+1048558994+1053348174+1055665113+1054566782+1048408429+1043930725
1045+1047546416+1053207580+1053480791+1050947851+1050352319+1050970660
1034+1051682231+1052750150+1053169066+1052375232+1049311074+1044991851
1022+1044349330+1048083492+1051842519+1052256948+1049210863+1047142457
1011+1050458139+1056630328+1057789482+1052112490+1047756311+1049967181
999+1055169044+1057552541+1055810568+1052971511+1049864228+1046646389
988+1046383148+1048659081+1050090575+1050503882+1049847152+1047828477
976+1045366457+1042176039+1040219872+1043123866+1048853021+1052225040
964+1052667139+1051317409+1049462512+1050320037+1051497888+1048476856
953+1044879363+1044472724+1046152314+1049695465+1053659027+1053350044
941+1049834189+1048663069+1050776221+1054840742+1058259252+1057215638
930+1053001549+1051022261+1053928624+1060416277+1067173901+1068703737
918+1062588883+1056260021+1057118918+1062215460+1065771449+1066996289
907+1066937833+1065792263+1061987742+1058064688+1060965318+1069476756
895+1073741823+1068283325+1058475503+1054537741+1061043467+1069641406
883+1068848818+1062727483+1060254369+1060058310+1056973961+1051932759
872+1050526816+1054151107+1057505053+1055510808+1048066042+1038755535
860+1034065631+1036225274+1039288185+1039480817+1036975172+1032420753
849+1028769477+1027375437+1027791487+1028745608+1029698608+1032920561
837+1034301326+1026016983+1012073034+1001247274+997307955+1001928808+1011215882
824+1014103238+1008961949+1007250887+1010218137+1008022847+1001731813+998045701
810+995671365+993502000+993471027+996584106+1001446512+1000757625+990890225
797+979629159+973559736+970108009+963279652+956820167+956898753+957875372
783+956860738+957894255+958312237+955488510+952862837+952339473+953043690
770+953625574+950694532+942679848+934797719+933516354+938067595+941181796
756+940490354+939076060+936357218+931945076+929120041+928744935+928428661
743+927173096+923361035+917367456+915433349+916696080+912883645+905234593
729+902435234+906919792+912179676+913483663+913140030+913784919+917071871
716+921379191+923074611+921793807+916274485+908487768+905201065+905567881
702+905265815+904675581+902627678+897585479+891971305+888358605+888157436
689+892633644+900845696+908078386+907217994+896039814+885604366+885862496
675+890961656+890842874+884144703+875874444+874801229+878916977+880951917
662+883971827+887982192+888586759+886393028+881300473+878079830+882159806
648+875036363+850018495+838896777+856781978+878426704+871578591+844451373
635+827185573+831149883+836245117+829331568+826138657+816484454+794487993
621+790782000+813015028+837453131+840040851+827459657+828888097+849148070
608+870646904+881705492+876050187+857236790+850515125
##END=
