##TITLE=Sample description
##JCAMP-DX=4.24
##DATA TYPE=INFRARED SPECTRUM
##DATE=25/8/2023
##SAMPLING PROCEDURE=Instrument type and / or accessory
##ORIGIN=Default
##XUNITS=1/CM
##YUNITS=ABSORBANCE
##RESOLUTION=4
##FIRSTX=4397.6552
##LASTX=599.8556
##DELTAX=-1.9287962
##MAXY=1.9321053
##MINY=0.61421883
##XFACTOR=1
##YFACTOR=1.7994133e-009
##NPOINTS=1970
##FIRSTY=0.72984308
##XYDATA=(X++(Y..Y))
4398+405600584+405319225+405677234+406298915+406649570+406772197+406706843
4384+406251215+405498859+405471796+406692831+407669208+407373340+406250520
4371+404812056+403733854+403508806+403867544+404374647+405116867+405853755
4357+405661235+404775089+404643286+405652358+406569045+406578816+406096888
4344+405395245+404914940+405244297+405338006+404359277+403985533+405029021
4330+405660705+404822059+403760486+403769197+404198259+404274478+404838191
4317+405975222+406259761+405153900+403854360+403582541+404212304+404985297
4303+405360465+405070824+404406811+404124325+404312605+404357488+404151023
4290+403720769+403151127+403459616+404886983+406128522+406746261+406856963
4276+406196593+405293553+404420789+403727361+404058937+404783436+404836733
4263+404715696+404654416+404555473+404773035+405058932+404886884+404452655
4249+404228468+404234928+404353215+404762568+405310248+405397531+405147673
4236+405438407+406342274+406781207+405943091+404478956+403986660+404850579
4222+405757594+405806486+405280138+404830142+404898279+405215644+405235751
4209+404836634+404462360+405022297+406344891+406839341+406049719+404963368
4195+404301177+404172223+403942670+403246625+403183159+404107332+404539938
4182+404093685+403778903+403666975+403409565+403512317+404141947+404360337
4168+404132871+404313830+404401080+403972515+403932534+404353016+404458452
4155+404242215+404276234+404650110+404576010+403977484+403894474+404024720
4141+403427319+402858175+403169445+403559420+403136851+402951022+404210780
4128+405523868+405388289+405011134+405530758+405784027+404770186+403602581
4114+403403669+403686386+403883642+404121178+404599098+405358941+405757561
4101+404843159+403321288+403083289+403953138+404320853+404078017+403711759
4087+403251296+402906834+402933102+403378858+404129956+404694364+404513902
4074+404254272+404669620+404894237+404392468+403895369+403712819+403596751
4060+403821733+404189812+403595228+402595795+402646973+403358056+403920775
4047+404463453+404837893+404686249+404287927+403959531+403903252+404054962
4033+403897753+403605927+403325230+402641176+402124666+402335006+402920515
4020+403792384+404569121+404443248+403777644+403468924+403320725+403125423
4006+403287534+403564919+403736238+403890102+403517650+402804811+402727664
3993+403320361+403889770+403837831+403387934+403347026+403606059+403642695
3979+403610730+403580918+403400224+403273158+403177031+402736045+402582214
3966+403555578+404381205+403604105+402554622+402623057+402992726+403004121
3952+403009255+403048044+403086568+403370080+403503373+403041519+402676023
3939+403043307+403719179+403854559+403017271+402194492+402462370+402926908
3925+402666152+402222449+402076900+402023802+401971564+401892662+402119233
3912+402979808+403906498+403734450+402109395+400452310+399793132+399486168
3898+400480134+402302114+402609575+401215399+400879483+402006544+402462469
3885+402377141+402408211+401568771+401100490+401643731+401476718+400304972
3871+399053496+399144157+400380993+400411401+399928413+400958717+402066267
3858+401715877+399100698+394801305+395714845+400234881+403049667+403131452
3844+401240242+398784525+396542527+395974011+398040847+399882105+400443863
3831+401063953+401555422+401312188+400716709+398926530+396646704+397122007
3817+398413796+400235477+403278756+404797779+403303865+400474437+399568018
3804+399434957+398386832+398262052+398977177+400629029+403395454+405341617
3790+405674286+405198320+404912820+405051181+404828419+403816234+403613943
3777+405135450+406455163+406368708+405378782+404905169+405332905+405862533
3763+405835370+404444440+402488174+402414505+403356963+402798186+401070611
3750+402384594+405586142+407949408+411156853+414912838+417262855+418019882
3736+416994944+415811970+418081891+422304038+424866018+424745313+422756982
3723+420141738+418554313+418328768+417738689+416078820+414580235+416304895
3709+421829463+427851926+432928055+437583006+443901933+452487668+461587595
3696+469173136+473688467+475735362+477375388+479617254+480883007+479620599
3682+475752222+470286715+463395430+453510784+445429072+442123248+437801529
3669+434716314+435142494+434963058+433168407+431033964+428933871+426469277
3655+424398963+422042288+416961389+411299321+412342179+416837437+419930072
3642+420900951+420614159+420097516+419288120+418061454+416620803+413341081
3628+408878219+407788688+407763746+405823446+401344684+396698477+394151171
3615+391808971+389592181+388750488+388040299+387594642+388451440+388779306
3601+387335774+385343667+383745842+382253981+380667914+378894727+376322809
3588+373230771+371856833+372056011+371822086+370281698+368294029+366932116
3574+366098273+365307890+363986190+361246430+358385634+358362248+359368239
3561+358968823+357749412+356953430+356056253+354405263+352803197+352072206
3547+352164159+352193772+351677726+351397923+351301796+350721621+349577898
3534+348307376+347238912+346497321+346310433+346365916+346185851+346051101
3520+346323186+346592554+346238884+345420378+344680708+344309614+344207790
3507+344009804+343653484+343434001+343367057+343130051+342730537+342368652
3493+342116574+342066093+342263548+342296473+341773305+341343946+341778406
3480+342817654+343674353+343664515+342978639+342667898+342968569+343233433
3466+343211339+343008021+342710927+342490152+342518871+342760978+342955054
3453+343001197+343028756+343117696+343105307+342689363+342062416+341831770
3439+342315156+343175829+343829342+344208253+344555232+344888498+345182411
3426+345357375+345256975+345108477+345506336+346528226+347482543+348004982
3412+348427154+348844324+349305946+350241614+351628934+352799752+353240539
3399+353322026+353846022+355126184+356848525+358325447+359496232+360920320
3385+362609370+364097554+365212756+366595803+369043272+372326671+375329240
3372+377430989+379414583+381978849+384599725+387182474+390419830+394037653
3358+397195676+399854015+402775430+406443635+410166927+413737548+417665815
3345+421306593+424313469+427498123+431075071+434678585+438085008+441232000
3331+444236524+446898706+448832182+450157990+451282169+452810234+454791377
3318+456325008+457348157+458571941+459634773+460111865+460850243+462071941
3304+462905585+462792829+461748447+461127959+461822745+461470698+458211414
3291+454492925+452799900+451848730+449910086+447477954+444775592+441858947
3277+439838453+437743163+434388812+431923323+431344440+430913192+429632533
3264+428014600+426873031+426562257+426637350+425851406+423809447+422112347
3250+422160841+422964375+422675629+421174162+419527345+418494854+418239398
3237+418350663+418189413+417546434+416633788+415489238+414345217+413674314
3223+413269798+412731657+412567658+412768491+412095004+410747997+410128768
3210+410232613+410385582+410590788+410901927+411203624+411534074+411724341
3196+411439272+410630339+409737833+409109792+408810877+408868050+408792460
3183+408337561+407861198+407903498+408736049+409260277+408784245+408741879
3169+410036119+411282659+411353215+410944790+411196072+412131077+412331944
3156+411304985+410623018+411499260+412707874+412215081+410581182+410477668
3142+412863791+414674110+413292388+411231780+411939087+414546217+415245441
3129+413556954+412923249+415011980+417318802+416754030+414481160+414552841
3115+417819115+419449303+416861685+414589543+416272334+419574381+419628573
3102+416524047+415516930+418916496+422470455+421083003+417322579+416954996
3088+420683787+423458923+421050541+416993388+416310857+418811524+420423892
3075+418806788+416616961+416862811+419358642+420693360+419263740+417747036
3061+417975131+419507371+419882770+418089609+416455678+416075442+416484761
3047+416854033+416562869+416172828+416317350+416790467+417067752+417148808
3034+417234468+417382998+417768898+418064402+417900071+417859626+419908376
3020+428819360+445284450+456879214+453407767+442659467+434214743+429455218
3007+426674086+424617784+423065868+422392315+422463897+422417920+422346371
2993+423122312+424933427+426759017+427027954+426168606+426210011+428097213
2980+430726039+431360240+429528489+428165383+429042718+431160798+432038696
2966+430815210+429392712+429083064+430618086+432931566+432662430+430287172
2953+429087271+430476181+433298420+434009802+431814377+430187401+431493533
2939+434609653+435771594+433466295+430765125+430303436+432431221+435201223
2926+435132225+432461298+430469556+430556607+431794270+431900434+430313042
2912+429201053+429818361+431551666+432776478+432225717+430956983+430876490
2899+432291966+433732782+433600648+432367655+431732096+432353213+433765310
2885+434646421+434059753+433064462+432910731+433500976+434350421+434812375
2872+434390336+433562489+433355063+434102186+435010625+435250645+434727112
2858+434084762+434259163+434912543+434777760+433832817+433120111+433178708
2845+433614891+433945308+434365128+435155578+435953083+436330536+436590531
2831+437138509+437737963+438129594+438308632+438252850+438277958+438539112
2818+438729644+439161951+440211368+441243296+441584875+441415410+441207952
2804+441106889+441156476+441452212+441959944+442463999+442735885+442855597
2791+442975342+443157792+443547071+444071431+444402146+444480651+444614839
2777+444852440+444864962+444656343+444689634+445088916+445458387+445752035
2764+446181892+446507671+446649841+446983372+447453872+447685810+447593856
2750+447416640+447733178+448587260+449177704+449250611+449190324+449152397
2737+449284729+449779443+450364256+450745519+451117904+451566509+452043866
2723+452563060+452948065+453117431+453201600+453486802+454099440+454604721
2710+454692865+454609524+454709791+455115003+455546549+455728336+455832049
2696+456100457+456431072+456625314+456846321+457235732+457465914+457538623
2683+457752441+457858638+457795371+457893916+458009719+457976528+458261763
2669+459074903+459630235+459598535+459569319+459663459+459948330+460546923
2656+460969757+460936268+460706019+460592402+460740436+461145018+461674016
2642+462225407+462815652+463187971+463087041+462753510+462623530+462756657
2629+462914893+463142955+463468337+463866526+464562107+465366403+465758564
2615+465762771+465841541+466181232+466525595+466672104+466904141+467431251
2602+467878034+467962833+467934180+468168801+468509453+468538669+468525949
2588+468870543+469363601+469762188+470101482+470283634+470257996+470236962
2575+470153124+469968620+470021487+470325007+470502554+470544390+470771690
2561+470990047+471003396+471248285+471750453+472056357+472259974+472662767
2548+472996033+472937071+472664954+472532157+472683106+472925312+473083813
2534+473226944+473441723+473741764+474053996+474406043+474819403+475060384
2521+475058363+474967934+474949417+475225609+475640659+475856233+476117618
2507+476674905+477324476+477874839+478112441+477890540+477599542+477820581
2494+478536335+479144203+479277628+479256959+479409629+479670650+479980795
2480+480189413+480136844+479994045+480086760+480464247+480736596+480848127
2467+481117197+481410382+481410845+481222102+481307431+481706780+482018183
2453+482186820+482228623+482146076+482198248+482345983+482280463+482201262
2440+482428330+482733208+483033349+483479172+483883092+483992369+483791900
2426+483673778+484022678+484629154+485130792+485502548+485912728+486266630
2413+486270108+486079841+486043504+486116013+486313237+486853364+487517080
2399+487901986+488350094+489906150+493538615+500223799+511213478+527064870
2386+547098462+569812487+593406000+616988648+640474838+663521996+686714504
2372+711223711+735761007+757737184+776576206+790600651+798674017+803528609
2359+804113323+796012663+778341145+755840409+736018318+725940788+730155747
2345+744528529+752032749+745133382+734333408+726312843+722929839+725898124
2332+731310135+731300132+726807457+724672717+725811073+725635381+720718978
2318+710945597+700263612+696150280+699480881+701382690+695242271+681335816
2305+664289159+651030155+642934994+635717830+627636912+618834212+607887364
2291+595451768+584021965+573947152+564861436+557335287+551523463+546811802
2278+542494390+538440582+534989805+532158688+529580874+527102434+524906114
2264+523104606+521519831+519921906+518509345+517469203+516591768+515889827
2251+515332177+514651634+513913587+513354247+512993985+512701430+512548461
2237+512648232+512666583+512324374+512030063+512126190+512231724+512132384
2224+512230532+512646708+512997530+513219265+513529144+513914747+514305814
2210+514483527+514504694+514877642+515404156+515601744+515635961+515796946
2197+516256880+516860739+517232860+517534524+518147725+518921513+519422753
2183+519622228+519858837+520123236+520195779+520313934+520667008+520990932
2170+521222704+521487137+521609035+521354772+520903550+520757637+521092426
2156+521580614+521728317+521284548+520628948+520205749+519951817+519877022
2143+520267096+520955688+521432151+521760414+522317502+523066347+523689319
2129+524061009+524384404+524790377+525243719+525644592+525879246+526130495
2116+526618319+527136320+527329171+527200482+527094616+527332715+527930778
2102+528426651+528416648+528238835+528346556+528699133+529160027+529624665
2089+529901221+529912417+529961971+530360260+530931393+531492256+531944108
2075+532151997+532402550+532976035+533630475+534072820+534419534+534876950
2062+535414096+536087054+536943918+537825394+538771164+539754100+540327353
2048+540712822+541483993+542123429+542436919+543198020+544314050+544936327
2035+544941991+545096981+545761027+546412454+546702425+546707460+546606000
2021+546679868+546876230+546697689+546226923+546149710+546396852+546334346
2008+545916977+545709221+545998066+546269488+546096910+546050668+546575989
1994+547063515+547015187+546832605+546905147+547069643+547126883+547184420
1981+547550512+548068115+548186999+548138703+548532023+549165894+549582003
1967+549852929+550354698+551027523+551458307+551621014+551670138+551737215
1954+552058390+552602327+553146927+553582845+553891069+554065337+554265375
1940+554811168+555602843+556364011+557074067+557878263+558640193+558816283
1927+558402823+558093440+558432171+559089493+559331236+559563240+560294364
1913+561003294+561547065+562002196+562135688+562085537+562351924+562937897
1900+563314787+563417804+563473188+563555403+563750970+564210142+565135905
1886+565952887+566169124+566370720+566979349+567619513+567809449+567788779
1873+567781227+566973850+565561886+565873786+567855691+569449575+570030512
1859+569970689+569712252+569800827+570488425+571151180+570994633+570136643
1846+569247582+569184778+570290738+571419024+571945306+572429917+573033976
1832+572366517+570322206+569764920+571009142+572324317+573489437+574274355
1819+574619910+574785797+574737899+574316755+574004987+574708021+575807489
1805+576153044+575733489+575075637+575098294+576018691+576347286+575165934
1792+574426198+576155164+578224252+579028382+579147564+579441643+579803694
1778+579811776+578924371+576698074+574649523+576057645+579411897+581699276
1765+582189253+581540676+581518151+582205484+582244968+582163747+581933797
1751+580455319+578881243+579354327+580898392+581874305+581752937+581497680
1738+581554124+580161769+578052601+579682855+583036644+585546089+586951097
1724+587305463+586913136+585263736+581676618+579424749+582037808+585647317
1711+587798686+587880504+585688391+583104151+581999450+580503945+578558412
1697+579088801+582122474+585700051+587408016+586964612+585234652+581927570
1684+579224346+581712923+584628143+585302690+584230318+583134692+582365343
1670+581436466+583054928+585865674+586062897+584782768+585255587+586173930
1657+585034448+580689641+575974304+577379776+578044055+577079204+579918503
1643+584293850+586367311+585763982+582689234+581385057+586731150+592163301
1630+594471350+595189687+596268883+597947897+600927511+603916864+605022294
1616+606783589+611449174+615485326+617479553+618680250+620214443+621742940
1603+623238775+625027100+626706379+627793989+628605406+629821274+631436358
1589+633217130+635095024+636675062+637903053+639172383+639603134+637968904
1576+637114027+640031964+642576786+643537594+645340494+648099830+650163022
1562+650163486+646321045+642903857+648056040+653894098+658916433+663141926
1549+666458084+668746324+668961434+665687211+661219910+667057969+677355644
1535+682614421+685644517+690624717+695342903+697991736+699787613+700877608
1522+702293945+706750513+713121413+720947272+728857201+734046086+735026107
1508+731851787+734413436+746947676+756109778+760850223+763491437+767516261
1495+773729223+778245151+780495032+784900324+793819888+802726135+809664523
1481+815700534+820636811+822473962+820798591+820100194+827296622+838478853
1468+846577791+850703379+854262274+858309226+859093216+857590159+863430537
1454+874175326+882321035+887696609+889640884+890310794+893211042+898062653
1441+902877364+904836147+903261542+904073688+909217921+914370568+918409701
1427+921800125+922467186+919693607+914706847+906971948+902057533+904849397
1414+908779286+908913176+905248348+899612548+894095863+891953504+891571976
1400+887273610+880469707+876557705+875411134+875443199+874930630+872318698
1387+869235670+868439224+869102178+869993492+870920381+870411986+868161707
1373+868076180+870953704+873099641+874020767+873711848+870150435+865370174
1360+864473693+866679784+868549264+869405664+870165408+870331163+870036156
1346+870354482+871011407+871167423+870464522+869421697+869626472+871744850
1333+874041702+875044115+876225798+878488002+880249893+880270695+878778437
1319+877767610+879469215+883234940+887056578+890365317+894281427+899674093
1306+904671982+907666635+910148984+912780393+915153763+917476452+919440403
1292+921716320+925430768+929659308+932739421+934257782+934982148+935802973
1279+936815787+937493581+938202378+940098755+942824437+944717369+945724817
1265+946880133+947065895+945695469+945273132+946438319+947791852+948782406
1252+949178973+950107916+952783381+955369741+955689193+955028824+955562128
1238+957582920+960154904+961399656+960568497+959146529+958192875+957875940
1225+958264159+958978521+959597817+959939396+959616168+958384400+957239022
1211+957383511+957959745+957432336+955992481+954189383+952145536+950945435
1198+951698487+954101868+956514854+956972767+956351484+956538373+955831695
1184+953770888+953543919+955433406+956195601+954675451+952924955+951464629
1171+950575634+953338415+958064153+958680003+956497828+956408591+958321994
1157+960623351+962284080+963303851+965137424+966930187+967435534+967814545
1144+969153569+971933045+974721928+975267224+973792985+972623757+974884039
1130+980224369+982906923+980299628+977653512+978423192+980366341+982513470
1117+984859877+985659369+984650132+983011000+981609172+981708280+984204078
1103+987199592+989032038+991288081+994224633+996426352+997831493+999748738
1090+1003980193+1008376475+1008883412+1008463592+1013345413+1021685696
1078+1025380533+1023857999+1023076129+1025401336+1031559112+1038399319
1067+1038963694+1035787718+1036937204+1042075077+1045722414+1045854714
1055+1044397501+1043424171+1042623022+1040967129+1039784452+1040548171
1043+1041872090+1042703581+1044348146+1047514780+1051188551+1053481031
1032+1053342703+1053082278+1055294000+1057305452+1055548264+1051771940
1020+1049280051+1048828961+1048417887+1047266148+1049593011+1057169973
1009+1062456111+1058964525+1052835965+1051485082+1052843716+1052795420
997+1051743983+1051439304+1052234888+1052559110+1050730307+1049388434
986+1051362124+1052358707+1049065603+1046486000+1047915984+1050387667
974+1052086755+1053552513+1054213943+1053913769+1053039283+1051913779
962+1052432310+1054646350+1054560293+1053051936+1055119567+1059052040
951+1061933075+1065061087+1068779311+1070359746+1067363636+1063564059
939+1061814092+1059732682+1057852271+1058634804+1062239874+1066691541
928+1069189525+1068121989+1066075028+1066498557+1067250881+1065821360
916+1064484588+1066749045+1071533016+1073553477+1072170530+1070865226
905+1069832471+1067065052+1063873972+1063078918+1065818445+1071114389
893+1073741823+1071095309+1067452476+1066446751+1067137529+1066176256
881+1064160300+1063397575+1063458657+1063217776+1059906983+1053640161
870+1049502184+1047602494+1044391207+1040684710+1037548947+1035199559
858+1034357469+1032122626+1028531600+1028346699+1030400815+1030728283
847+1028785665+1024776807+1019977068+1015329305+1011536154+1010293853
835+1009679857+1007677946+1005948516+1001655384+991834834+984122393+986019698
822+992551582+992212188+983614926+977553277+979057261+981532588+979901869
808+976233332+974048574+974909943+976374310+974568164+968429402+960044467
795+953320262+950612203+951174723+952667445+952546607+948869524+941917157
781+936414782+935578720+935745403+934726626+934279114+933239734+929719329
768+925200420+922178606+920482632+919062386+917225104+913091366+908542910
754+908000000+909399841+907098351+902225341+898888645+895831918+893593431
741+895103775+895866698+892979369+891693874+892921468+893495714+893863727
727+895092645+896825188+899073613+901624397+902158629+900157048+899711855
714+900214155+897076140+892414597+890119070+889410205+888468940+886607476
700+885848263+889263000+893317901+892638651+891127445+891529577+889984319
687+887604722+887405246+886943889+883078658+877939063+877668701+880715888
673+880913774+881195200+880791744+873425122+870886130+876645618+880335222
660+876744726+872213097+872292331+873912914+874715255+873254332+868223915
646+865460008+866751797+867530885+868508918+870006874+868367212+864917892
633+863907728+864696356+865488627+868329582+863646508+842380520+829193728
619+837856510+837680354+812442011+794052090+804577132+828589338+832608929
606+817638449+808595331+814772717+829381411
##END=
