##TITLE=Sample description
##JCAMP-DX=4.24
##DATA TYPE=INFRARED SPECTRUM
##DATE=25/8/2023
##SAMPLING PROCEDURE=Instrument type and / or accessory
##ORIGIN=Default
##XUNITS=1/CM
##YUNITS=ABSORBANCE
##RESOLUTION=4
##FIRSTX=4397.6552
##LASTX=599.8556
##DELTAX=-1.9287962
##MAXY=2.1036022
##MINY=1.3085321
##XFACTOR=1
##YFACTOR=1.9591322e-009
##NPOINTS=1970
##FIRSTY=1.4090799
##XYDATA=(X++(Y..Y))
4398+719236770+715612358+712834099+712788707+714890397+716261789+715288525
4384+713746333+714310759+715446182+714103997+711994518+712584562+717225317
4371+722446381+720781883+713452497+709322317+709041139+708270681+707339037
4357+707574945+709939194+715205711+718768666+717068025+715723223+718106153
4344+721141373+724048752+727069186+728386120+725764848+720296499+717302473
4330+717421978+716793114+715377850+714686130+715349799+717304481+717771915
4317+716255948+715998317+715563376+712239553+710525830+713809919+717244180
4303+717843716+718374189+718346868+715592400+712512213+712777145+716241101
4290+718583262+717345370+715863113+715848631+713896749+711411899+714008161
4276+718683479+717526758+713118381+714110508+718920117+719156085+715293150
4263+713371691+714671709+716465447+716379408+714843544+713438502+713714570
4249+715852282+717060115+716960203+718273303+720203645+721068112+721151778
4236+719235431+715824779+713939586+713578331+713771950+714451074+715020977
4222+717517814+721695638+721867777+719462212+720046535+721849218+722312089
4209+722284829+722527978+723253286+723595374+722131796+719902934+718655550
4195+716449992+713722967+715028096+719422174+723346688+725354489+723071898
4182+718503491+716602477+717179560+719006582+722166723+724680233+725096372
4168+723703074+721671360+720112251+718081692+716227836+716177515+717505401
4155+720077872+722076607+722505403+723392689+723650806+722883574+722844327
4141+721415859+718562817+719060128+722522136+722902862+719868737+719294210
4128+721959779+723471791+723523147+723634560+721994280+719033051+717936448
4114+719324513+720867922+720701321+720743914+722602760+723447209+720395438
4101+715071298+712893609+716298967+721360122+724241336+725198353+726196930
4087+727586090+727034016+723921580+722082266+724350802+727438655+728078959
4074+727764192+726460950+723537994+721752774+722098452+721998539+720952258
4060+721271466+723005574+724064633+723124897+720037773+717103195+717816151
4047+721616170+723947805+722834287+721187192+721563415+722399163+722416930
4033+723297644+724248516+723360135+721406427+720080428+720602017+722098026
4020+724369908+728103116+728845035+724451383+721630956+723063136+724708162
4006+725677653+726575040+726624448+726353675+726111195+725453793+724693741
3993+724422846+724434346+724282591+724182800+724454791+725167199+725774036
3979+724682058+722305396+722252154+724665690+725511295+724530121+724499940
3966+725356011+725362278+724843731+724133331+722813294+722672248+724694471
3952+727901587+731425173+733158185+732149751+730484159+730023418+731379659
3939+733125388+732820844+729939874+725447404+721684746+721776383+725017331
3925+728300202+730211621+732142693+733985779+732942540+729868499+728602008
3912+729349891+729766396+728691151+726622927+725411443+726976576+728302819
3898+728650748+730637131+733038011+733368476+730638165+726576439+723739644
3885+725289808+728227671+727231224+728070866+733499178+737141539+737173971
3871+734459603+729409157+727802831+728874060+729195702+730315427+731449999
3858+730530403+726057223+717060602+717452280+727392350+734661010+735827040
3844+732906336+729306567+725359479+723773415+729186210+734547711+734839051
3831+734394739+735417594+735470288+734465383+733050545+729733781+729516736
3817+734427901+736904901+736544560+738454457+739799867+737110020+735583830
3804+736425845+733152770+729299509+728992227+729741509+733656652+738809140
3790+740009732+738533133+737122007+735823572+735854482+736478479+736947495
3777+739205686+742230441+743648808+742342219+740000300+740028108+741200101
3763+741195720+739510961+736778764+735757612+735094430+731681709+727690809
3750+728841689+734726908+739319898+736221518+734332065+738172000+740183757
3736+736444343+732857292+733422022+736281209+740210226+742320496+740498585
3723+739163519+740745141+742699518+745137393+747974067+746805602+740719220
3709+737787989+738122774+738224573+737725498+739139666+742778134+744244632
3696+744614222+747124629+749109308+746455666+742358648+742520321+744721193
3682+745189297+744496238+743292421+737068948+731248227+731488699+729755747
3669+729042183+733006005+736047918+736791968+735938635+732349211+727826075
3655+729503898+735448626+734299512+720159652+712553103+718301414+724482233
3642+727424295+728686952+728145648+726182631+724398811+723364334+718849472
3628+709701279+707275086+709624732+712070822+714101746+712371289+708065319
3615+706686442+706503716+705325090+705332453+706499091+708043779+708141744
3601+703878672+699089812+698451821+698930938+697057063+693559702+688744373
3588+684461404+685902284+689936264+690926626+689050743+687712452+688296897
3574+688846720+687358560+683915049+679728402+677328009+677893166+679190323
3561+680300982+681014973+680510968+679159230+677433276+675122391+672497590
3547+670649636+672099523+676070524+678907806+680319054+680854699+680170463
3534+678304133+675252240+672898213+673644027+674460973+672319731+672133658
3520+676432448+679698648+679285733+677630363+675738659+673674817+672575415
3507+673264458+674852286+675539686+674849122+674201578+674223605+673477182
3493+671742588+671372997+673040720+674968689+676204633+676500111+675277979
3480+672855559+670496421+668861922+667914153+668561880+671668719+675714503
3466+677599696+676007364+673757509+673716923+674344327+674262487+675728011
3453+678883589+680242507+679114811+678530974+679358446+679087612+677130192
3439+674404323+671696039+671687399+674481479+676390220+676847858+678181037
3426+679803915+679593381+678134854+676644017+676552562+679065707+682529236
3412+685422863+686694343+685579486+684500164+686104239+690464060+694194347
3399+693089347+688801388+685842106+685817584+688478711+691921978+694379142
3385+696141605+697879850+700132443+701421873+700535439+702190201+708741827
3372+713271596+712581763+712854240+716464717+720128376+723521017+726705924
3358+726156892+722687643+722939128+727947831+731375643+731505310+733786198
3345+740244179+747339483+751791184+753605854+754862791+755506198+755582806
3331+758424834+763403844+765320617+764825861+767433138+772844716+775165337
3318+772887553+770292446+769618920+770260501+771956335+774647582+778072959
3304+780069748+779131836+778742592+780581844+780389200+776450630+773143480
3291+771940819+769631272+766878326+765846404+765854740+767078029+768300648
3277+767793845+767203497+766814192+766423852+766003331+763854301+761763746
3264+761799282+763093762+764653662+764193225+761935399+761191045+761107683
3250+757897586+753235107+752947783+756713240+758244237+755996998+753857461
3237+753188315+752798218+752359748+751778832+751259433+750936939+750504249
3223+750252642+750898300+752706764+753804462+751967704+749305056+749415495
3210+751238988+752274439+752170875+750315255+748560216+750048436+752041208
3196+751254870+751103419+753664633+755079288+754098358+752878903+750146766
3183+746362264+746400537+750743929+754917554+756011906+755260920+755796078
3169+755980630+751428530+746393540+748377672+754780646+757802845+756873879
3156+756323630+757024173+756821245+756206680+757494650+759756492+760346414
3142+759436006+759039520+758684837+757955087+758206694+759344734+761775612
3129+763748730+762275904+760546908+761376023+762455953+761174920+758334900
3115+757423580+759065807+760537781+760450220+760673228+762351356+763851563
3102+764536347+764132498+763350967+764842777+767649087+768647360+767691255
3088+765477361+762802178+761727907+762718756+764160549+764719803+764361104
3075+764424569+765098947+765570398+765820300+764883059+763360702+764623359
3061+768681921+771200846+769733862+766882037+766489020+768746846+770652302
3047+770208841+768004500+766969658+768874992+771410468+773021358+773234569
3034+771656780+770532309+770560969+771196830+773171774+775129559+775355427
3020+774453355+773269253+772406489+772268668+771885691+770626867+769930279
3007+771351445+774230712+775936525+775477244+774438143+773929028+774279451
2993+775634841+777600840+779555217+780575820+780528481+781475032+784166218
2980+785762139+784430785+782480667+783422108+787241294+790005375+789641017
2966+788553968+788818291+789522060+790106261+791123883+791488545+790533049
2953+789906558+789592461+788224841+787061184+788233846+792099581+796319147
2939+797217872+795122328+792853792+790683161+789124783+790245360+792799029
2926+792913302+791239616+792030275+794546827+793787627+789786627+786954639
2912+786279226+786254826+787312608+789630734+791258540+791692325+791450029
2899+790314727+789594104+790208364+791547081+793574902+794862081+793386151
2885+790902944+790060686+790401192+791082507+792277562+793528779+794105983
2872+794016598+793839226+793734993+793866911+794172734+793672380+792822577
2858+793288247+795234045+797135058+797128547+795002761+793254415+794936254
2845+798317822+798064694+794252992+791728347+792320033+793645121+793836913
2831+794349740+795743160+797080477+798870808+800060022+799546039+799195128
2818+799322483+799097041+799359600+800073530+800122634+799771054+800332195
2804+801760784+802215623+801120968+800272685+801092308+803485156+805887314
2791+806764559+806623331+805824518+804272407+803116356+803078265+803557808
2777+803588780+803549777+805194316+808582454+811081056+811317998+811269867
2764+811895507+811863257+810968305+810116798+809608656+809614193+810224194
2750+810250663+809644009+810166450+811467015+812256822+812465713+811970289
2737+811132594+810900338+811718804+812924203+813218647+813083199+813889374
2723+814701817+814907057+815587399+816436837+816926724+817374383+817543175
2710+817262058+816961468+816807645+816323234+815553080+815460531+816332057
2696+816936582+816971873+818016816+819820290+820443861+820012996+820334638
2683+821811663+822626053+821973762+821130835+820486637+820171870+821168439
2669+822395317+822101725+821296889+821313074+822234192+823494232+824435612
2656+824676205+823169365+820152825+818213173+818914446+821228861+823576681
2642+825115953+825155444+824268645+824050322+824822605+825471062+825016710
2629+824188264+824072957+824593816+825493393+826087027+825838097+826239329
2615+827981408+829411762+830262904+831069626+830894445+828818311+825965026
2602+824822118+825657926+827316461+828839182+829153705+829186320+829990426
2588+830782363+831141305+831606367+832710150+833654024+833307373+832327902
2575+832083111+832393314+832210344+832003522+832700353+833642402+834560781
2561+836520999+838250665+837711551+836604544+836407883+836314968+835625438
2548+834413529+834194050+834668725+834038096+833901371+835028641+835141575
2534+835089489+837166901+839954470+841441656+841616229+840615583+838665770
2521+836653891+835974280+837230731+838690048+838472395+837785664+838410573
2507+839122799+839223624+840567392+842506922+841701294+838481766+836387438
2494+836303346+837528521+839726351+841281869+840961383+840204190+842054517
2480+846006230+847405978+845732353+844736819+845598305+846326473+845177845
2467+843099582+841745592+841297507+841446341+841422732+840850335+841381477
2453+843185864+843597379+842155525+841733544+843770370+845333860+844272123
2440+843159274+843810530+845413084+847250207+848493392+848885558+849339423
2426+849173977+847793275+847197269+847418817+846642396+845341892+845090103
2413+845726877+845706980+845531616+846183663+846297631+845694506+846442510
2399+848755526+850317859+850476186+850311957+849803450+849261964+849356156
2386+849114042+847801246+846116243+844144768+841783439+839965362+839619502
2372+838751018+833824216+827975384+825492420+824431839+824312394+825485301
2359+826219553+826610076+827457932+829352131+833230826+837308433+838675019
2345+838289425+838376012+836870024+833474583+831163272+830894993+832104347
2332+834148962+835989249+836201121+834405132+832931697+834704443+838480731
2318+841250532+843390192+846107907+849047170+852009677+854668552+855630194
2305+854805947+853907222+853476357+853515057+854526472+855577196+856271593
2291+857407808+857962194+858068922+859486254+860765036+860272958+859527022
2278+859357500+859435690+859808323+860427147+861761240+862615911+861011957
2264+859526962+860277400+860051228+857986898+857982213+860459275+862001102
2251+862227883+862789145+863109814+862207864+860926283+859723866+858271545
2237+857527618+858297528+860131973+862338748+864411109+865739300+865441449
2224+864107965+863482812+864023690+864643731+864391273+863571955+862644570
2210+861457365+859831993+859269331+861658650+865033585+865662023+863745797
2197+862799307+864219621+866438808+868186789+868492611+867451015+867076070
2183+867766938+867287030+865154003+864150011+864865522+865116946+865451184
2170+867324938+868842061+868229261+866771160+865825521+865835865+867094081
2156+868800441+869469343+868800745+868535509+870167757+872118057+871524728
2143+868879665+867680838+868530398+868515794+867516183+868251410+870359185
2129+871431570+871319670+870978800+871046950+871684880+872001837+872056540
2116+872650538+872509797+870794552+869160357+868672843+868855874+869091964
2102+869636797+870660626+871001374+870128206+869063426+869007446+870415895
2089+872813976+874749855+875223861+875379632+875583108+875252399+875286778
2075+875265299+873765760+871679526+870926471+871464002+871701431+871740374
2062+872995972+874011891+872332911+870891909+872723495+874871490+875354015
2048+875116343+874268547+873432070+873498455+874567433+875752326+875394966
2035+874302014+874781800+875587793+875257145+875997300+878620579+880497923
2021+879719434+878041732+877706034+877823045+877834727+878691102+879164074
2008+878174807+877549472+877934701+878057674+877702261+877058003+876311641
1994+876113520+876431086+876461449+876618741+877922409+879831576+881347300
1981+882043888+882184691+882413175+882472258+882119887+881726262+881461695
1967+881772810+882748082+883191847+882830227+882695266+882841727+882341678
1954+880934994+879670816+879251269+879781499+881328803+882557324+883175783
1940+883852717+883415159+882646405+883330093+884294778+883758403+882459906
1927+881890977+881739831+882088490+883233589+883094673+881602132+881654278
1913+883273201+884925954+886408638+887217368+886369634+884536101+883036684
1900+882157492+882211829+883873710+886425006+887484856+885650106+883447165
1886+884167301+886678438+888625026+889560990+889934719+889570483+888610544
1873+888086339+887656448+886754193+887047968+888416318+889501420+890731949
1859+891928647+892128533+891820824+891817599+892104498+892090077+891416368
1846+890303275+888770879+888108792+888591438+889153856+890571311+892939880
1832+893565458+891095516+888853754+888849677+889798419+892298542+895128157
1819+895729274+894777672+894146618+893410418+891611568+890219001+890759270
1805+892071031+892139790+890114403+888316101+889357089+891111884+889819047
1792+887222723+889278351+893670056+896264311+896972703+896849060+895811967
1778+894290888+892991844+891256155+888961151+889280846+892967262+897163888
1765+899143091+897726489+896388441+897937205+898845727+898510698+898512341
1751+897178491+894142663+893017279+894658593+897326048+898907366+898003408
1738+896728764+894509272+888470898+886729489+891608343+897108455+900516065
1724+901040454+900295917+898821814+894104268+888252332+889726862+895743026
1711+899715914+899363300+895585551+891703266+891168290+890773752+887332736
1697+885360044+887295801+892614100+896949642+897091600+894897482+889945610
1684+881715613+882307543+888576774+892372716+890810747+887635638+887014014
1670+885721603+886020427+890165333+892843862+892530495+892637526+893239252
1657+892072127+887592375+880739064+880772530+880648461+875030121+873308366
1643+878206630+881657869+880485632+874743953+869005195+871769155+877441588
1630+879532630+878498153+878264253+879893885+883595087+887878239+889573221
1616+889616301+892333043+895457771+896670776+898042959+901046112+903671339
1603+905644457+908921001+911971555+912020172+911103132+912043416+914028704
1589+915985211+917379360+917388488+916613527+917081570+918627596+917299467
1576+912892185+913181091+915829257+916122971+915879092+917366156+919837742
1562+921915093+918059459+906600258+907712803+914543174+920042556+923575330
1549+924497725+924428602+923815437+921034683+916938882+917951940+922733133
1535+925204414+925514982+927250489+929293765+927564526+923085626+919639195
1522+918840625+923278575+927691881+928999383+932181490+936534313+937085109
1508+930966477+924886848+931007367+938198749+939264867+934582370+932154778
1495+936174884+939576592+937035031+931958786+933933791+939553409+942167317
1481+941506691+940189209+938657909+935776147+931667689+929301797+931052090
1468+934122359+935926198+935922000+934891295+931084583+920947792+914662801
1454+922161466+930630292+933304257+930803648+929022992+930132251+931964202
1441+934993520+937668520+937329536+939709727+945473676+946895633+944682835
1427+944847672+944605436+942047568+941266158+940930764+941191133+944507714
1414+944926957+941046984+938014806+936909624+934454589+930809733+928466111
1400+926069977+923277236+922038918+922088996+922330989+921393443+918999560
1387+916886066+916053665+915936715+917060213+919236685+920395961+919514456
1373+918252590+918742903+919854049+919849303+919189467+918057268+916274056
1360+914660246+913348667+912985952+914195245+915005436+914820519+916443275
1346+919245995+919866462+918149635+915213171+912717369+913368625+916321335
1333+918319036+919127585+920456444+921082935+919581085+919182895+923173977
1319+928403133+930620860+931066694+931663674+932925235+935142172+938009695
1306+940248719+940994594+942458353+946223202+950171325+951992567+952401830
1292+954541307+958971164+963411669+967643526+970952380+971335844+970409129
1279+970895304+972573127+973009468+971749124+972715512+976108701+975720369
1265+972116281+972195870+975174197+976801090+978811508+982673957+985356138
1252+984696302+983582479+985007844+987006944+987548248+987602707+986544377
1238+983884285+983163540+986162313+991123007+995282821+994726305+991344129
1225+991196451+993635057+993949458+991738911+990941254+992273765+993001690
1211+994234470+997735178+1001405834+1002796637+1001203453+998394588+997829066
1198+1000570026+1003077998+1002107046+1000107763+1000246071+1001653972
1186+1003274537+1005532850+1008162153+1009588796+1009234112+1009591412
1175+1011847595+1013397090+1013292918+1012900753+1012713584+1013744532
1163+1016526868+1019414045+1019953280+1017399367+1016160441+1019739886
1151+1023954158+1023839642+1020365282+1018005474+1019165724+1022363713
1140+1025797731+1027924247+1026521822+1022088193+1019284865+1020974066
1128+1024111389+1026178518+1027764825+1027867537+1027705438+1028859603
1117+1027334630+1022898567+1021644003+1025484729+1030307785+1031006320
1105+1026811459+1022108151+1021007411+1022783929+1025819636+1030289774
1094+1035254972+1039911183+1042694492+1043084406+1043536994+1044098864
1082+1045618726+1049019521+1049335687+1046065107+1045539745+1046554690
1070+1045207637+1044914593+1046068393+1045095190+1044533806+1047049141
1059+1049211679+1050823786+1056721053+1062118150+1058227285+1054250016
1047+1059424652+1062877046+1058357135+1054611696+1054163977+1055819529
1036+1060217988+1063923632+1064532964+1065419398+1066983191+1065675689
1024+1062329292+1060199491+1060002830+1059552555+1057701558+1055815878
1013+1053828096+1049853260+1044467360+1043811297+1050153971+1055736168
1001+1055342238+1053128222+1052320039+1049689579+1044222021+1040460032
989+1039926395+1040417803+1041577932+1043387064+1043395705+1043481501
978+1047422018+1051129243+1050766467+1048265249+1045089105+1043460569
966+1045001362+1046837390+1047882637+1050891084+1054524075+1055083147
955+1053050580+1051497739+1053252230+1058063847+1060958265+1058982287
943+1056732371+1057043183+1056883883+1056759753+1059443028+1062037100
932+1061374466+1060578574+1062136039+1064614379+1067780422+1070638696
920+1071075463+1070816738+1071653884+1072886422+1072669073+1066910417
908+1057853678+1055617392+1063876049+1073741823+1073453282+1065413191
897+1061806730+1065868091+1069613164+1066799552+1062011666+1060128785
885+1058309430+1054502900+1052587283+1056637327+1064349325+1068524715
874+1066370087+1059771121+1052020423+1050082536+1054717085+1057250309
862+1055613376+1053575942+1052736482+1053864483+1052885195+1046144574
851+1037470448+1031552005+1031674188+1038416756+1046485932+1050114420
839+1047717374+1038998219+1027625849+1021003395+1021011549+1023300164
827+1024172968+1022264531+1018846759+1017289780+1017017485+1013841645
816+1009604068+1008263708+1008256711+1008189596+1006017626+1001660604
804+1002053561+1005335702+1000965903+991168643+984951133+984197652+986064469
791+984922778+979883894+976602056+975465355+974199716+971844290+968041229
777+967464511+970967348+970890497+964282708+956859130+952712338+950983950
764+951849331+953876908+951152743+945235517+942977083+942246359+938347766
750+932941786+927983890+924978911+926161614+929479717+930672764+931275037
737+933464349+933532316+930182390+926868607+925341079+924273075+922721937
723+923270239+926387543+928657721+928281498+924673272+919211190+916870184
710+918663497+919627694+918670494+915965983+909597022+904724374+904338050
696+903894773+904248361+908142268+912613075+915352635+915587508+912008550
683+907101889+904337320+903113180+903021665+905249432+907719678+906663783
669+904441492+907600721+910232945+907517602+907447505+912518700+915224793
656+915299271+915271768+910911704+904604930+901581332+900163269+900011575
642+904161226+910557204+912798601+910265620+903100645+893837753+901554315
629+933771083+959856016+934551277+875767295+845634388+866877279+904375411
615+919290779+916396117+895402399+866794952+852173906+858088454+884503912
602+932467962+983025720
##END=
