##TITLE=Sample description
##JCAMP-DX=4.24
##DATA TYPE=INFRARED SPECTRUM
##DATE=25/8/2023
##SAMPLING PROCEDURE=Instrument type and / or accessory
##ORIGIN=Default
##XUNITS=1/CM
##YUNITS=ABSORBANCE
##RESOLUTION=4
##FIRSTX=4397.6552
##LASTX=599.8556
##DELTAX=-1.9287962
##MAXY=1.7962755
##MINY=0.3050552
##XFACTOR=1
##YFACTOR=1.6729119e-009
##NPOINTS=1970
##FIRSTY=0.44753286
##XYDATA=(X++(Y..Y))
4398+267517289+267254167+267082701+266937547+267164239+267908730+268540010
4384+268262957+267099572+266254784+266316600+266369545+265983093+265818574
4371+266088805+266377241+266482544+266465228+266571243+266868391+266954899
4357+266535311+265821692+265352508+265200709+264819707+264180465+263868637
4344+264077193+264607553+265204539+265372603+265086304+265033875+265493885
4330+266081037+266142177+265698450+265408838+265108216+264497708+263862723
4317+263304947+262922146+263003131+263715645+264444941+264172644+263241188
4303+262800347+263079003+263610200+263916220+263810348+263428277+262993867
4290+262769171+262649546+262416441+262435842+262683037+262704843+262699213
4276+262735822+262609552+262533626+262572195+262517931+262418526+262372457
4263+262085517+261404338+260923432+260963871+261140610+261445437+261604058
4249+260945807+260223584+260357158+260723017+260735791+260756509+261114173
4236+261386755+261064560+260290656+259597079+259373683+259348992+259335043
4222+259666930+259967926+259579068+258924701+258801477+259161333+259396450
4209+259243904+258973851+258907795+258817973+258332703+257920240+258241581
4195+259054445+259518944+259095810+258283231+257952894+258166385+258397085
4182+258155091+257600663+257476869+257948797+258313320+258105388+257668217
4168+257341924+257116248+256868232+256570461+256367302+256266347+256429868
4155+256802087+256808304+256355402+255825577+255654468+255778546+255676540
4141+255445751+255298531+255104405+254880796+254612151+254360305+254296101
4128+254271909+254173038+254324231+254773124+254846289+254150716+253294063
4114+253087360+253582286+254081381+253912178+253170679+252547577+252591810
4101+253103037+253361064+253239105+253062616+252780450+252452019+252465113
4087+252857462+253205667+253362721+253477768+253365554+252912581+252319727
4074+251843204+251757978+251938494+251934076+251560788+251169347+251170630
4060+251214454+250765347+250135938+250009026+250438003+250890601+250971302
4047+250612461+250086146+249888421+250135759+250497290+250594077+250285598
4033+249791456+249318940+248810742+248410964+248406510+248520560+248437401
4020+248471445+248708433+248778551+248589199+248271297+247891845+247541538
4006+247349407+247302537+247328618+247415642+247676645+248275448+248744668
3993+248460916+247845189+247505660+247226736+246757463+246439543+246598966
3979+246802587+246340529+245600366+245630598+246214223+246341651+245981831
3966+245700538+245481596+245155481+244905720+244907537+245103658+245011361
3952+244284648+243286049+242771116+242841520+242733064+242671141+243346458
3939+244088153+244088776+243105747+241748289+241611775+242591456+242806906
3925+242146464+241961530+241825355+240825811+240261461+241387810+242889406
3912+243512597+243134998+241270090+237602858+234280766+234148083+236471112
3898+239350385+241094064+240766203+239476459+239466679+239776208+238856724
3885+237750132+237012196+236907321+238247784+238752080+237301470+235296842
3871+233888791+234409459+235695569+235651086+236022129+237580697+238035380
3858+236228031+231882061+227908755+231201809+236416278+239058920+238774473
3844+236108228+232630703+229551282+228786197+231513013+234472238+236149522
3831+237103674+237205110+236714745+235435796+231861627+228433806+229608913
3817+232241453+235189598+238173924+239116122+237394177+234788394+233711197
3804+232527218+231221209+232444754+234422446+236654763+239063516+240278189
3790+240306942+239444803+238163039+237602715+237410691+236755148+237109446
3777+238687912+239262969+238032048+236142752+235560267+236203607+236939227
3763+236915729+235487441+233938191+233523644+232357605+228708686+224565927
3750+225274183+227977003+229235714+230885421+232823992+232783945+229898668
3736+225929228+226329986+231270662+235283534+236228173+235159170+234401532
3723+235066802+236556444+238251596+239325427+238551381+236240697+237662644
3709+245831493+255787044+265455120+276338635+290146869+304045655+315122797
3696+323316926+328116902+329277419+328709845+329083346+329712168+329027159
3682+325956984+319382777+309959866+300573297+296046810+294190846+290385176
3669+287222774+286196829+284372557+280916267+276530677+271693593+266508500
3655+262396863+258529982+251464215+243720316+244428109+248674514+250393894
3642+249669978+247813354+245479369+242630826+239204839+235121350+230036304
3628+227591138+229524703+230404835+228216218+223971060+220955327+220317313
3615+219642780+218686027+217725996+216426525+216345094+217294757+216781446
3601+214735257+212916970+211580141+210341792+209752449+209058853+206487417
3588+203644824+204172120+205907764+206227965+205473301+204612070+203780803
3574+202764781+201302573+198555271+194137151+191272076+192542812+194582998
3561+195410559+195437727+194920817+193843085+192801962+192149465+191036674
3547+189581485+189135673+189640255+190110686+190102991+189710677+189433944
3534+189177342+188142917+186461892+185492989+185564818+185810767+186190789
3520+186851284+187219602+186846136+185847804+184659353+183782838+183624644
3507+183697220+183069842+182349828+182592321+183268974+183815420+184282057
3493+184420762+184004541+183524810+183412542+183431782+183357691+183353576
3480+183650564+183905723+183637755+183116178+182924386+183177888+183539133
3466+183567761+183313778+183342246+183644792+183692874+183536283+183665279
3453+184097497+184212295+183916144+183836638+184023460+184286190+184931062
3439+185541730+185369481+185115016+185485472+185992939+186387926+186693589
3426+186775465+186653079+186581125+186897032+187538912+188449168+189687535
3412+190805546+191477105+192034721+192848120+193835603+194707505+195495927
3399+196387443+197359356+198386620+199507143+200862338+202651747+204654700
3385+206528052+208285057+209967293+211696667+213895973+216797123+219812215
3372+222358515+225017991+228289293+231790084+235418997+239244299+242939340
3358+246604453+250866908+255608399+260174736+264613503+269111236+273557218
3345+278061970+282607126+287030964+291372142+295622341+299669382+303215457
3331+305971417+308101549+309961433+311788610+313849941+316098078+317829768
3318+318750179+319728381+321458075+323361213+324713059+325657556+326563074
3304+327282892+327236146+326535425+325953350+325087238+322682618+318889062
3291+315120802+311779916+308328757+304880021+301711973+298521709+295055070
3277+291650924+288927012+287116955+285798334+284469379+282959286+281109111
3264+279189191+277898966+277142218+276239176+275053879+273821142+272658844
3250+271695196+270935723+270136273+269177827+268139786+267156311+266392651
3237+265700730+264693188+263482576+262384696+261387931+260672192+260229427
3223+259398855+258209140+257523562+257266069+256750193+256071098+255674669
3210+255643761+255425443+254659894+253954060+253582019+253188369+252765004
3196+252486134+252304514+251912253+251066254+250167487+249892643+250160522
3183+250324025+250168164+249930606+249698054+249385710+249126845+249022719
3169+248885938+248627697+248385436+248196547+248013662+247961269+247919654
3156+247655196+247480416+247517168+247408409+247199515+247146071+247164082
3142+247176481+247213304+247199800+247165596+247292311+247602856+247715195
3129+247436307+247179759+246949914+246510605+246230684+246167335+246036077
3115+246041955+246320220+246648241+246920965+246971434+246557565+245926623
3102+245559250+245487065+245433817+245354310+245367653+245323634+244992762
3088+244561434+244344363+244148331+243769467+243503583+243453809+243437918
3075+243239267+242761265+242357763+242112474+241717220+241185168+240659850
3061+240217744+239843744+239505105+239269916+239070036+238759313+238389606
3047+238202036+238326293+238464908+238149108+237465721+236909708+236483992
3034+235938044+235444080+235212080+235265702+235601169+235766703+235332418
3020+234773644+234614648+234687617+234673223+234486988+234240167+234097863
3007+234144751+234279466+234250268+233978345+233872009+234367042+235222181
2993+235920764+236361124+236723759+237100574+237554295+238247071+239087156
2980+239599166+239584576+239406002+239222084+238897287+238553144+238282540
2966+237996508+237616237+237240098+237022671+236664525+236076820+235798769
2953+235851483+235751917+235535148+235472583+235560427+235764601+235950621
2939+235820343+235228202+234406092+233896807+233889450+233901475+233545200
2926+233058272+232655287+232072374+231185330+230298553+229667487+229259960
2912+229136682+229360274+229566585+229620261+229767837+229984623+230202372
2899+230352816+230211172+229875135+229634352+229486116+229355036+229323576
2885+229452518+229533628+229293326+228948542+228895134+228959195+228767313
2872+228395326+228045072+227811807+227798161+227876475+227838173+227720472
2858+227649534+227591102+227308401+226642330+225731539+224977997+224747191
2845+225058127+225611023+225956484+225981371+225957446+225975350+226013402
2831+226131281+226260776+226368590+226632086+227041966+227367564+227529624
2818+227555384+227529285+227579433+227676826+227742687+227862330+228061302
2804+228218177+228327826+228414797+228451371+228446222+228410379+228373396
2791+228382891+228504334+228640545+228603508+228540943+228617279+228711162
2777+228750318+228696287+228572404+228583306+228698015+228704125+228690532
2764+228824409+229039290+229172009+229234146+229337827+229351847+229249253
2750+229290672+229430962+229474768+229548860+229740634+229851067+229815010
2737+229839630+229961714+229992604+229945912+230037978+230279776+230470464
2723+230593082+230756692+230901774+231051702+231326155+231561771+231629716
2710+231723564+231979453+232309487+232511078+232471761+232277546+232090278
2696+232112226+232392753+232667134+232698007+232560246+232425514+232362557
2683+232446143+232606422+232614741+232549736+232626623+232744770+232719883
2669+232539973+232386197+232421541+232478067+232456387+232523512+232621511
2656+232644759+232691593+232774806+232744735+232527467+232360045+232453982
2642+232644331+232737092+232758060+232770031+232783677+232850197+232947180
2629+232971266+232966527+233000517+233068676+233171645+233273455+233389126
2615+233556512+233705656+233789474+233827829+233894331+234103902+234359133
2602+234462707+234451947+234461424+234515278+234568366+234669303+234853044
2588+234957152+234917960+234909053+234992835+234988809+234815009+234624019
2575+234571412+234689291+234791779+234692373+234478455+234290493+234233237
2561+234336544+234408515+234306241+234162602+234138249+234198908+234235143
2548+234263058+234313011+234304531+234264644+234278112+234307773+234365136
2534+234438835+234454174+234498016+234590634+234590474+234558390+234596620
2521+234637130+234741221+235009314+235272667+235314817+235240886+235303433
2507+235480832+235618557+235701484+235779530+235926429+236196357+236484508
2494+236604294+236555500+236519514+236612471+236735321+236708456+236604811
2480+236638641+236769240+236805991+236768919+236808450+236888010+236918295
2467+237005907+237186601+237256630+237150598+237031275+236978829+236961388
2453+236944304+236935628+236974607+237094927+237254742+237276797+237135544
2440+237048716+237122059+237307260+237519984+237572537+237390597+237288198
2426+237489236+237788005+238028663+238249191+238440449+238516927+238457978
2413+238436191+238575502+238748927+238867751+239073439+239412772+239668109
2399+239715888+239685051+239742004+239909195+240088107+240235541+240284585
2386+240041041+239399571+238329802+236721051+234535426+231968729+229357121
2372+226880494+224478671+222107881+219907381+218259634+217448658+217345119
2359+217827646+219103442+221412647+224836246+228541157+230498362+229608663
2345+227072322+225284284+225016014+225620767+226554236+227392148+227890887
2332+228175137+228726304+229712469+230839441+232012731+233278639+234623876
2318+236054071+237424052+238586796+239548323+240445736+241458445+242480595
2305+243330389+244084394+244783797+245349144+245821321+246249211+246599928
2291+246944873+247331023+247706520+248069867+248315424+248369705+248396374
2278+248449194+248526652+248725321+248905872+248957000+249091643+249351702
2264+249519195+249570483+249655192+249749039+249791117+249962352+250338971
2251+250643886+250715662+250741422+250863452+251047905+251267773+251473390
2237+251567807+251535509+251505402+251623834+251899551+252201688+252389151
2224+252450879+252474430+252550855+252682327+252756649+252763205+252845633
2210+253061832+253358428+253653937+253796579+253748907+253733551+253894363
2197+254084392+254154208+254200668+254321968+254454812+254622163+254809697
2183+254865528+254872832+255008224+255197629+255332076+255390437+255386304
2170+255443222+255616362+255825185+256062832+256292196+256408739+256458496
2156+256603934+256884301+257162495+257336454+257428093+257489090+257564232
2143+257696560+257896547+258085382+258177662+258238802+258382690+258586775
2129+258763407+258861031+258921031+259023786+259136820+259223381+259320952
2116+259522916+259902404+260285668+260464010+260530388+260714074+261013254
2102+261237665+261407901+261668672+262067399+262629754+263315885+264081362
2089+264922961+265782126+266669669+267634029+268498947+269078618+269467244
2075+269732825+269891500+270200833+270715320+271108667+271396730+271866395
2062+272394011+272744906+273033432+273378644+273637045+273754818+273884883
2048+274093492+274328342+274459619+274464126+274607801+274980234+275334460
2035+275569346+275755616+275924623+276100365+276251308+276276908+276213220
2021+276134533+276022604+276063025+276410803+276777944+276980105+277188554
2008+277499758+277822737+278057695+278240045+278541736+279019151+279323799
1994+279154595+279043788+279608619+280506513+281393130+282339853+283276422
1981+284122279+284932560+285717740+286521537+287532286+288586414+289330994
1967+290219695+291813856+293628277+295202895+296630543+297882645+298908447
1954+299854975+300756716+301374350+301499587+301118888+300495874+300481337
1940+301299350+301964798+302110771+302019168+301891651+301805927+301680655
1927+301257450+300404913+299827006+299920746+300002979+300327953+301154659
1913+301480739+301021691+300722548+301206464+301929311+302455021+302836967
1900+302940150+302667158+302402753+302494926+302508180+302514237+303236336
1886+304066997+304439572+304691649+304858216+304938560+305058560+305020294
1873+304114455+301990237+300373416+301481344+303636381+304845069+305297098
1859+305547358+305742464+305905254+306118994+306199730+305633972+304289395
1846+302915601+303342511+305466337+306738836+306932268+307094096+306938574
1832+305425791+303522546+303383271+304215357+305243903+306697684+307662098
1819+307925434+308078782+307951229+307061709+306307294+306888230+307968902
1805+308193972+307367408+306522852+306853527+307612965+307212848+305780159
1792+305969778+308617248+310604756+311142116+311046380+310676121+310752973
1778+311359847+310852771+308570359+306682756+308047428+311022723+313430834
1765+314243431+313827210+313933385+314417979+314692182+314902573+313804229
1751+311159753+309610271+310873258+312846015+313903635+314172778+314470390
1738+314276424+312393666+311091095+313640655+316931874+319410425+320573543
1724+320536559+319859461+317533617+313223080+311638183+315591037+319663927
1711+321413717+320698103+318590560+317239854+316390594+314424784+312905481
1697+314059299+318146547+322080412+322823353+321504037+319155925+315577391
1684+314559392+318781924+322185055+323216523+322788508+322308795+321381650
1670+320728423+323790439+327332310+327938506+328078779+330113211+331424297
1657+329681990+325197867+324107682+328260025+328479395+328207294+333004455
1643+337812235+339478758+338366982+335363506+336007434+342843730+347726758
1630+349708352+351307928+353177112+355237695+358803046+361782295+362493847
1616+364451213+368867925+371834633+373040327+373911000+375098773+376121904
1603+376947470+377959911+378748352+378855026+378945773+379726696+380744268
1589+381665855+382581706+383403744+384092850+384423811+383622473+381759311
1576+382457609+385902069+387083999+387222348+389615032+392492275+393877291
1562+392896026+388678303+388157545+396414916+403213445+408105559+411716123
1549+414907295+416475055+415121605+412282522+412961723+424798695+435595329
1535+440428227+445790967+453680786+459486256+463414598+467653698+471585175
1522+477656654+487269896+496358284+506359458+516482021+523561986+526576152
1508+527927286+540486678+558819295+569419362+576591108+583879718+594733929
1495+607278249+615395597+620337734+628451518+641483212+653843507+663517854
1481+672118904+680118746+686618239+692160872+700087746+714373162+729304752
1468+740634791+751633763+764502702+774409494+779106858+782279004+791480265
1454+804134574+814351412+822812653+831056128+839734636+846926549+852259753
1441+857403480+861199424+863855088+870755624+880132395+886078423+888078080
1427+888131025+885315814+881323695+877751005+870997974+864306867+862762053
1414+860946527+855822538+849849361+845025584+839961737+834941999+831969449
1400+829416041+825738957+821592635+818148709+816847955+815722569+812196838
1387+808292297+807961372+810280197+812537169+813984929+814702859+813554385
1373+811453896+811538694+812717168+812767120+811625558+809670936+808942460
1360+810945894+813115076+813746854+814128444+815467392+817054035+817753010
1346+817908639+818891793+819416256+818239849+819570816+825431975+831260996
1333+833588942+833057567+833000346+834664234+836479332+837662010+838450415
1319+839345992+840919666+842603720+843927846+845927147+848735091+851739423
1306+855179073+858407514+860951943+864468268+870140164+876250727+880815907
1292+884447386+887536301+889521779+891341223+893645868+895716641+896804831
1279+896692313+896622195+897361431+897488129+896660603+895629492+893925415
1265+892297869+892389294+893095823+892947819+892876560+892920954+892432406
1252+892709815+894260116+895586879+896666375+898744204+901207754+902622379
1238+903069527+903205346+902931428+902367274+902484066+903136510+903054705
1225+901989461+900416927+898764797+897382809+895917590+893063614+888792376
1211+884908286+881749964+878417415+875545980+873944159+871740560+867578134
1198+864212948+863085994+861537902+858329272+855477932+854006870+852944904
1184+852162770+851806335+851428735+850822681+849848648+849004306+848728535
1171+848807703+849191003+849894325+850949664+852346759+854295681+856846809
1157+859137771+860564581+861521940+862797824+864848361+867568442+870499164
1144+873141503+875627928+878482189+882071625+885496882+886357400+885440160
1130+886601318+890186193+893802351+896650200+899359806+902272714+904622536
1117+906034239+907811499+911814947+916814732+918042161+915988703+916130223
1103+918164298+919691797+922598006+927359004+932075322+935885304+938895906
1090+942923868+948818019+953519017+955203570+957150282+962274485+968376284
1076+971964865+973847587+977275908+982659349+988125664+993221578+996895170
1063+997779132+999818624+1006548567+1014611401+1019897147+1020975930+1020013869
1049+1021269302+1023519433+1023262903+1021535025+1021126927+1023128651
1038+1026320607+1029705389+1033350976+1035194222+1033179101+1030106004
1026+1030003321+1033134422+1037547250+1040515027+1040803054+1041594380
1015+1044398262+1046584546+1048090880+1048533681+1045749894+1042872616
1003+1042479340+1041892170+1040197712+1038918693+1038849144+1040628684
991+1043763491+1045130230+1043617981+1042692332+1043876293+1045274528
980+1045360680+1043745320+1041749225+1041113670+1040838612+1039354581
968+1039160687+1043037865+1049030424+1053314132+1054148000+1053572659
957+1055345144+1059264436+1061304711+1061230887+1062214825+1063414320
945+1062928978+1062205419+1062427104+1062337176+1061049605+1060162792
934+1060332174+1061591954+1064774147+1067517246+1067422187+1066707748
922+1068213727+1070990958+1071603924+1070180035+1070586565+1073138691
910+1073741823+1071951238+1070604024+1068599093+1065697373+1064936118
899+1065194929+1063979614+1063073704+1064229803+1065024764+1064203865
887+1065191865+1067254230+1066263950+1064456263+1064010327+1061871288
876+1056667204+1050562270+1045987470+1043821067+1042116207+1038412614
864+1033174968+1027926918+1023700715+1019003707+1010883011+1002154123+997276047
851+995358265+993005664+988259773+982101395+975892067+968548017+960312879
837+955013024+952241066+947698690+943241039+941472616+939766828+937222684
824+936441477+937228955+936148747+933622274+931248224+927978953+924498186
810+921287561+918240687+917017178+917243851+915941744+912941687+910323790
797+907709314+904874007+902821547+901011152+898705581+896432291+894941419
783+893066678+889637716+886112698+883943659+882994138+881655760+878595918
770+875250970+872659367+869356106+865507930+863575113+862922741+859987530
756+854869027+851329472+850963916+851936666+852747019+852704691+850410807
743+847278423+846402086+847877637+849018629+847248566+844795063+845663419
729+849470479+853766159+855948167+854748458+852920391+852802387+852667067
716+852113103+852810581+853164879+851309021+848223169+844850288+841639520
702+838914236+836391612+833423978+830698339+830173021+831099952+830097700
689+827233676+826119763+827282275+827671061+826366388+825563946+825364992
675+823705808+820726345+816325630+810192192+809626257+816036178+820343544
662+823346593+824986538+819075142+811007390+810991927+816441497+819891765
648+817186505+806838266+794578374+789286571+792185369+797395367+799092033
635+796516464+794657257+797347695+799320559+792415320+779333175+771328773
621+774391252+782569810+783569710+777957387+777586628+781410149+780574072
608+777913919+777818931+779881225+784296548+785526185
##END=
