##TITLE=Sample description
##JCAMP-DX=4.24
##DATA TYPE=INFRARED SPECTRUM
##DATE=25/8/2023
##SAMPLING PROCEDURE=Instrument type and / or accessory
##ORIGIN=Default
##XUNITS=1/CM
##YUNITS=ABSORBANCE
##RESOLUTION=4
##FIRSTX=4397.6552
##LASTX=599.8556
##DELTAX=-1.9287962
##MAXY=2.1054249
##MINY=1.2651681
##XFACTOR=1
##YFACTOR=1.9608297e-009
##NPOINTS=1970
##FIRSTY=1.3492142
##XYDATA=(X++(Y..Y))
4398+688083305+688579517+690235156+691386984+690283062+686978715+684993565
4384+685547532+685660672+685274014+686211478+688301317+689421957+689981518
4371+691407290+689761682+685790774+685819165+688773697+690080979+690302821
4357+693060193+697967896+699790662+697217925+694841010+694262238+693246348
4344+691636002+690995827+692236295+692809473+690154480+688048105+688788652
4330+690915455+693368243+694532838+694663792+693634101+691556785+690761157
4317+689411987+687115626+688923193+694128063+696511787+694486391+690425749
4303+687462524+687543139+688710895+689592002+691236333+693486612+695292841
4290+694738813+691438235+689080592+689494243+690162688+691314212+694275978
4276+695212713+692856103+692738525+696840021+699581587+697149956+693403444
4263+693400404+696647239+697622883+695901220+697070983+700203097+700960121
4249+699830787+698147242+696534768+694970808+692710559+691514107+693627170
4236+696642497+696234074+693616957+692693658+692147716+690144328+689514306
4222+691496112+693633493+694001913+693654832+694075536+693727726+693000735
4209+694929102+697431013+697392164+696518900+694518612+691288617+691074800
4195+694346622+697774628+698410729+694862228+690531898+688715090+689375631
4182+692483671+696842818+699267275+697476062+693429768+692132152+694535209
4168+696487895+696352017+696735757+698007474+698227067+698678715+701203788
4155+703023636+701612151+699430753+698302696+697054446+696908781+699297672
4141+701489344+702125020+702432340+701807790+700393691+699603716+698210409
4128+696010043+695248399+694242358+691735463+691288131+693590207+695352481
4114+695566116+696647482+699012907+700318973+700124732+700004844+701363376
4101+702760635+701849860+699351537+696879173+695650439+696317060+698748569
4087+701034352+699890913+697342920+697522206+698293577+697283341+696894980
4074+698211989+699954627+701235159+700978663+699352814+698784864+700397946
4060+701817456+700533702+698153991+697717845+698846206+699482004+699978823
4047+701328662+702180222+701076118+699062516+698362519+699814980+702034009
4033+703963714+705695043+706289986+704918201+702208066+699955235+700103758
4020+701807912+702482922+701777757+701926949+704149565+705783440+704504184
4006+702390027+702152256+704717090+708846491+710830182+708833845+705820403
3993+704604497+704160934+703383726+703869299+706387502+708863514+708818099
3979+707048530+707163068+709526973+711072025+711232282+710732848+708807278
3966+706406531+705606343+705431678+704398765+703627212+703886929+704091688
3952+703391995+702824349+703527082+705260114+706074893+703955628+701731005
3939+701709909+702035225+702304974+703004120+704087554+705427909+705802955
3925+705603242+707031750+708935556+708523911+706162681+704371894+705126303
3912+708716206+712612518+713081372+708881083+703624354+703266939+706566788
3898+708483482+707813031+705686046+703764062+704471173+706636824+706360570
3885+704356330+703880850+703139937+703617667+706105047+707678491+708858893
3871+709162931+707932676+707450995+707406918+709415049+713090066+715197657
3858+714816957+710264116+701475300+698910406+703504040+708438737+710312509
3844+707893950+703967909+701902752+702936273+706655427+708267476+706463922
3831+705257195+705372038+705803989+707817226+707795279+702922351+703495894
3817+708221028+709383314+710942471+714303480+715342654+712378578+709975217
3804+708664774+704800866+705355015+710946422+714496870+715872182+715757218
3790+713855844+713074745+714438871+715821296+716389003+716122658+715850842
3777+716288508+716768244+717353703+717008872+715302772+714373941+714624418
3763+714947424+714096107+713714616+715396701+715216078+711761384+708075910
3750+708083631+711136955+713557886+712910719+713322608+716310151+716390766
3736+709164694+703016097+704783417+709346228+714168271+716917740+716160959
3723+715368067+715562551+716160777+718791816+721975729+719338184+711079868
3709+710128300+715216929+718438231+717452495+714897450+714836837+716424082
3696+718434705+721036258+723140932+722479783+719635230+718785251+720470497
3682+722630798+723045787+721449484+717936669+715262830+715590030+714468357
3669+713555515+716748729+719986749+720423685+718947696+716347419+712276685
3655+708989238+706914172+702470885+697723924+699463948+703623990+706225361
3642+705792924+703070995+700063633+696650826+694181745+694191351+692678946
3628+688255903+688179909+691619648+694659597+692879509+687444346+686332886
3615+685414208+680601589+677785853+676974296+675539344+675915241+676758290
3601+676049903+675293609+674475122+672244419+670795180+671966585+672346373
3588+669311470+667973061+670161389+671245309+669046585+665634690+663032164
3574+661487051+661956694+663664982+663296137+660864446+659329242+658187992
3561+657674575+658350680+658646997+656608651+652829917+651429558+653469241
3547+655020069+653971350+652719330+653071457+653906238+653813707+652665831
3534+651769829+652672579+653741969+652640236+651632432+652070158+652205367
3520+651774753+651460138+652001398+652571415+651217990+649757321+650904955
3507+652383558+651768431+650895653+651261094+651327178+650072241+648175184
3493+646262441+645220774+646503494+648825754+649954177+650281803+650252986
3480+650290861+650892492+651839865+652355592+651789405+651334170+650827623
3466+649795622+650791815+653296582+653395314+651219327+649502954+648502688
3453+647543946+648202177+651499229+653927091+652907735+652621511+655527224
3439+657449146+655792109+654161153+655498103+657387074+656967647+655470015
3426+655646504+657830515+659036026+657851307+657443492+659713347+663061042
3412+665504406+666468681+666619757+665736766+663425874+661246240+661105317
3399+662835734+664202292+665225781+668512741+672618858+672799238+669705242
3385+669431906+673340012+677425823+681152698+684250646+683634303+682468796
3372+685333228+687864624+687572685+689544642+694623423+700074758+704914796
3358+707816618+708626655+709306772+710489181+711844369+714422213+717197884
3345+716965768+714783763+715622252+720867795+726304660+730228877+734891818
3331+740054436+743754318+744256791+742713441+742903183+745361564+747980931
3318+750433111+753438649+754882234+753181059+751188006+750762256+752208638
3304+754604947+754468340+753193401+753888535+753090110+748895110+744944447
3291+743228499+743164907+744757623+746673406+745656604+743003557+742508804
3277+741601069+736822921+733541615+736022794+738143152+736080488+733763518
3264+731987017+731324409+734712776+739231389+740163685+737308615+732755835
3250+730005515+728931566+727504517+728726199+733964872+738306205+736585698
3237+730324265+727075727+729274816+731730522+731296990+729308436+727601181
3223+727142237+726748892+725861584+725981594+726174133+725102068+724580809
3210+724985827+725213019+727067581+730236172+729707679+724709877+720374866
3196+720871625+724999871+728358752+730378130+732102042+731071379+726999672
3183+724953241+727391255+729810180+728557066+726745426+727985347+731266714
3169+733536569+734224772+735331672+736532623+734762385+731222881+730481907
3156+732829093+735164911+735668235+734664079+733738713+733761268+733782790
3142+732877486+732513018+734055517+735062106+734817344+736045470+737161004
3129+737361628+739931021+742974071+743018938+741312899+739554637+739189501
3115+741272106+743494114+742233948+738345844+736287375+737190125+737635876
3102+736245669+736680721+740738991+744105168+743789883+743850192+746994223
3088+749251006+747573298+744783644+744610985+746072201+745372933+743028239
3075+742307997+742686813+742349703+742307268+743110678+744019750+744813737
3061+744717985+744298375+744432672+743479280+742309456+743667806+744995576
3047+743397024+742823177+745648579+747917035+747994549+748305396+749182490
3034+749730256+750163726+749646297+747836238+747444655+749717306+751399817
3020+750809434+750945068+752141034+752418929+752637002+752637124+752135623
3007+752391815+752587819+752153010+752501489+753913643+755031365+755584724
2993+755648864+754859558+754456363+755300749+757115186+759052490+759372395
2980+758615493+759999681+764391293+768287726+769719699+770042948+769636592
2966+769613429+770748843+770561228+767865928+765199323+764641830+765687449
2953+767894806+770485781+771011053+769526917+768770563+769053018+768486952
2939+767347952+767968976+770386563+772197109+772098621+770459396+768226445
2926+766540651+766748206+769115455+771032879+769926768+766444655+763071122
2912+762300967+764564499+767449176+769620664+772205499+774177152+773712858
2899+772361743+771231071+769220995+766501499+765289544+766835630+769286897
2885+770730787+770748964+769545642+769907253+772759831+773904546+772728278
2872+772629242+773563241+774323365+775353603+776628602+777231814+777248471
2858+777633123+778368686+778537150+777125543+774770636+773404200+772877652
2845+772190361+772607599+775165988+777557251+777669661+776329064+774636279
2831+773983823+774879825+775648703+776553277+778526632+779483855+778281688
2818+776824789+776726604+777725411+778728169+779701685+781026962+781968499
2804+782358805+782773612+783444367+784668602+785927977+786453675+786440725
2791+786554960+787091539+787001562+786080756+785650143+785314005+784826731
2777+786197240+789030546+790168756+789470278+788896066+789486875+791108165
2764+791467952+789858517+788764140+788975951+789060335+788447883+788136550
2750+788712708+789823560+790661927+790350473+790193378+791641948+792593881
2737+791591366+790943775+791903307+793274242+794009987+793279714+791916621
2723+792527918+795000282+796409700+796451649+797151403+798073364+798005274
2710+798013663+799151205+800508582+800232267+798124797+796432803+796914058
2696+798708372+799656840+798841757+797199188+796255523+797096688+799166768
2683+800872929+801950769+802576900+802691682+803002346+803424691+803681734
2669+805026952+807028213+806713718+804141529+802418650+802134067+802256570
2656+803032804+804368660+805414218+805947515+806019010+806221155+807387270
2642+808918035+809457290+808036625+805637580+805014306+806456433+807682796
2629+807837642+808033281+808614545+808660020+808449303+808889340+809469814
2615+809549577+809599429+810372381+811668781+812129609+811476789+810903976
2602+810830292+811179865+811691944+812205725+812802492+812965302+813305999
2588+814605560+815569105+815307807+814802598+814693105+814561666+814513030
2575+814656567+814915130+815482411+816026408+816291536+816154017+815871319
2561+815712217+815652820+816496964+817900181+818808463+819439214+819769151
2548+819933176+820343119+820626426+820586726+820178486+819171776+818502115
2534+819031278+819616433+819580442+819256585+818173152+817743754+819940289
2521+822543728+823483928+823246583+821882518+820559186+819768178+819638988
2507+821806159+824753517+826023349+825953556+824826228+823524417+823818180
2494+824910186+824736555+824221922+824065435+822632732+820717558+820735553
2480+822637657+824412576+825594681+827230865+827823802+825759983+823776961
2467+824295424+825192884+824510335+823496330+823181167+823630444+824566692
2453+825039072+825084547+825492970+826160989+826979902+828085405+829079287
2440+829550146+828947178+827416291+826647473+827068056+827484260+827448452
2426+827544448+828362267+828838355+828347980+828779505+830781556+832654356
2413+832991892+831839151+830619901+830426572+830350213+829384479+828549212
2399+828293203+828181340+829597932+832538176+833947108+832846895+831072583
2386+829556773+828249005+827510038+827658743+827606885+825465916+821465097
2372+817506409+814976351+814980789+816244420+815224153+812518700+811905457
2359+812757564+812901832+813624506+815875939+818991822+821675631+822768671
2345+822225586+821148779+820844438+821360347+821808956+821338096+819913783
2332+819124295+819863019+821659581+824104709+825675782+825228085+824833523
2318+826738970+829983070+832814309+834232420+834154298+834993517+837297235
2305+838406263+838183022+837764811+837106884+836888629+838110858+840135100
2291+840551487+839393822+839268523+839833676+839584233+839689531+840749133
2278+841345900+841753411+843033760+843971103+843988369+844034755+843840271
2264+843338345+843203622+843082214+843392027+844674809+845120438+844306571
2251+843920278+843929458+843673388+843432517+843663721+844312408+844703930
2237+845007541+846323152+847781632+847262075+845611604+844716636+844158960
2224+843731630+844668851+846760332+847889483+847604475+847461667+848194554
2210+849402497+849856395+848661158+847045279+846610836+847224382+848170418
2197+849089401+850061640+851417740+851857838+850372729+848902333+848545039
2183+848662131+849041433+849192753+849719605+851660192+852851233+851488932
2170+849774138+849660816+850685704+851681714+852245833+852726603+852837858
2156+852251609+851280951+850855687+851984474+853705225+854932197+856043049
2143+855981098+854009992+852758764+854331417+856836124+857047023+855006245
2129+853970718+855057739+855635234+854480062+853464354+853913024+855121392
2116+855922309+856005417+855459049+854594357+854195540+854384735+854326371
2102+854214751+854806229+855213679+855023329+855468290+856669119+857654125
2089+857824413+857046415+855918358+855607815+856563031+858053854+859150785
2075+858685457+856827734+856169686+857346866+858447808+858762485+858906631
2062+859582857+860455574+860666959+860090984+859005180+858140062+858168758
2048+859287452+860815604+861402644+860714501+859086767+857464140+857462255
2035+859147927+860991971+861970168+862089692+861923599+861650263+861113319
2021+861009967+861158915+860737968+860540444+860667567+860504210+860617533
2008+861439607+861968770+861352427+861264517+862809387+864290604+864334134
1994+863031229+861479306+861282512+862854132+864356141+863947536+862901188
1981+862764824+863165891+864095573+865382792+866327369+867065242+867316448
1967+866312353+865367715+866515348+868917068+870349588+870585535+870923800
1954+871914095+872771796+872486423+871048248+869262933+867871388+866871183
1940+866051966+865914204+866836226+868335865+869820243+870848900+871216712
1927+871496979+871679790+871497769+871695050+872131499+872581993+873192074
1913+872593848+870119660+867755087+868112746+870703599+872603879+872565578
1900+871895431+871396605+870851940+871771165+874518142+876032553+875581209
1886+875036969+874912399+875853937+877008258+876514843+875072169+874122182
1873+873736374+872681150+870519450+869869974+871590847+873905142+875726327
1859+876435505+876294824+876430033+877369625+877944566+877306763+876442739
1846+874884312+872389150+872620111+875059402+876704706+877461365+877534441
1832+875340398+871741254+871916709+875164882+877097140+878552945+880034527
1819+880525328+880881650+881225569+880738841+879994220+880350177+881228487
1805+880789909+878827254+876620201+875981424+877062669+877996364+877297643
1792+876315616+878585957+882100474+883981178+884332879+883231328+881889758
1778+882779741+884372882+882716696+877214536+874753480+877787167+882182913
1765+885418805+885446163+882610426+880624364+880843227+882617235+883161231
1751+880617372+878800504+880857635+882986870+883307566+882390164+880707532
1738+879812017+878158688+874584895+876123868+880953996+884017473+885503797
1724+885562586+885313994+884578614+879304011+872357658+874072998+879840834
1711+883695014+883851684+880376684+877179396+877088933+875610269+872503871
1697+873756376+876292636+878217051+879609325+879118281+877394065+874148871
1684+869922136+871655958+876003554+878709980+879108919+878264046+877441971
1670+876073712+876185575+878687546+879504088+877524288+877183834+878958207
1657+880286646+879797608+873915295+869836172+868910988+864816180+861551531
1643+862981741+865000815+865503775+862761602+858542953+861323610+866386888
1630+867757397+867077705+867356026+867924402+870113034+873444557+873708895
1616+872938375+876859005+881460543+883738301+885220430+888047899+892250619
1603+896284207+899001880+900240402+900450694+901124975+902712219+903356832
1589+903234268+904587269+906637530+905608630+902032406+901346999+903137118
1576+903016925+904261770+905933034+904649280+905826217+910368904+912830021
1562+913049067+908375182+895298593+894400768+901710859+908389591+913485395
1549+917647686+919803975+916835521+909127038+900997487+900864527+908193344
1535+912506043+912990703+915284876+918594209+919226419+917304132+914136817
1522+911577820+913822748+917955736+919644448+920517043+921771494+921055143
1508+913435542+905678484+914168309+924101232+928060953+926730508+924773263
1495+926555600+928765206+927355241+923390413+922682877+925701061+929075506
1481+930505959+929997102+927766643+922923809+916635140+914896758+918942809
1468+921833384+919522128+915615967+914944179+913715019+907672388+905860809
1454+915236422+923373816+925705377+925244792+926148393+928978780+932423869
1441+936352646+938807197+934705518+928288875+927580609+929735561+932884820
1427+935575256+934676580+932679818+933660994+933858518+931799501+932453841
1414+932782562+929027052+924248417+922661477+923297457+922946060+920535768
1400+917455634+915528665+914133959+912019802+911227699+911240588+908436099
1387+904048257+904258427+908332504+912381169+914387111+912187536+907727104
1373+907069967+909280607+909751041+908824764+907728077+906785932+906610598
1360+906981571+908101543+909687389+910132289+910212721+911735766+912932583
1346+911658191+910054897+909880840+909263767+908110115+909544763+912355027
1333+912561184+910715985+909596317+910606918+914386381+917661791+917993855
1319+917876337+918282025+919608822+922652236+925946917+927859782+928907407
1306+931391869+935291342+938567967+941457387+944961508+948687958+951376023
1292+952093894+951946770+953365733+955897068+957322597+958630061+960650594
1279+962019948+962840806+963425232+963982299+966065330+968283934+967839398
1265+967265855+969086371+970313100+969308092+968989707+970863784+973420531
1252+975514140+977238721+978608561+979448996+980604594+983128937+984732779
1238+982175423+977431138+975249559+978052284+983579796+985813294+983206391
1225+980178054+978778363+979624087+983358561+986519371+987125987+988946382
1211+993494663+997304645+997871805+996391743+994351026+992156314+989914791
1198+988393813+989889013+992880508+993419398+993676562+996247414+999276785
1184+1001121680+1001721365+1001749270+1001366685+1001230504+1002218914
1173+1002630924+1001191473+1000864577+1003407767+1005059576+1003792662
1161+1001719663+1001492471+1004558440+1008054415+1010110148+1012253001
1150+1014676728+1017034614+1018032570+1016012706+1010682962+1006796863
1138+1011446612+1021063643+1025510699+1024255154+1022716060+1021256607
1126+1018445492+1017959251+1022068589+1025220706+1023690122+1020611690
1115+1017597032+1014653140+1011711862+1008873693+1010305970+1016533539
1103+1021367011+1023113296+1023388213+1022220213+1023207772+1027994067
1092+1030154490+1028669381+1028629257+1030335295+1033807316+1039019786
1080+1045092875+1049558535+1046509649+1038598475+1034931300+1038057396
1069+1043332850+1044845073+1044038198+1046039580+1049189264+1049759038
1057+1049499928+1050777360+1052284598+1051720660+1047715829+1042188317
1045+1039484384+1040271562+1042689028+1044747922+1044319194+1045101265
1034+1050170136+1053307905+1049247020+1042982426+1042929169+1048230765
1022+1050567616+1047933476+1044343998+1043445808+1046033014+1048583135
1011+1048373269+1047188976+1046391463+1043804865+1039919922+1040877205
999+1047041730+1048987059+1044676670+1043001272+1046964155+1050675832
988+1050758270+1049947382+1047447235+1041892609+1037270340+1035049122
976+1034695658+1036561345+1038617929+1039255429+1040279952+1042718817
964+1043759269+1042077791+1040608611+1041345694+1043701999+1046893633
953+1048949609+1047498911+1045168991+1044147021+1043014039+1044326367
941+1049331525+1053819315+1055565965+1055182833+1052060263+1045896346
930+1042070253+1043865539+1047026288+1050569683+1054369391+1055222836
918+1054661695+1055110121+1055708104+1053941149+1049632827+1048529027
907+1050785385+1049117647+1047809818+1054668869+1061577285+1061865455
895+1060670341+1058217006+1055354154+1056812269+1060678244+1063760203
883+1062196547+1054808698+1053796213+1064559783+1073741823+1070258859
872+1056144980+1041808468+1036026711+1037215381+1041997298+1049027184
860+1050993670+1044978945+1038069920+1031712066+1025279677+1023284617
849+1027101713+1034187530+1039322061+1035919711+1025272260+1015214706
837+1010097624+1009501951+1009405895+1005786566+1001103502+998522011+997967375
824+1000426242+1004733591+1007591762+1008915763+1008075389+1001574119+995007433
810+992492938+984899845+976294752+977984862+983953504+983536509+976234382
797+970609538+971780030+974572299+973786823+970947681+969140783+968981682
783+969434789+967582113+963851954+960665185+954169994+942643868+933452587
770+934655788+942399714+944409486+940164939+936631332+934826075+933295249
756+930110789+925403468+924867922+928708059+928071836+924536040+924413659
743+923286453+919888359+917472292+914494840+912983894+916729981+921626862
729+925607011+931168385+933276645+929199346+923504891+920233433+921206462
716+921106515+917928013+918639623+919914865+914703611+909925099+908734726
702+904559120+899148336+901052750+910080917+913786088+907804193+901737487
689+898184730+896767408+900965448+906513933+904547387+896560522+892854317
675+896635908+898899561+896850455+899518276+906600384+912375697+916895161
662+914932627+913968657+918709841+908497259+887194697+875035510+866813185
648+864899895+872167551+868610842+856018427+845557070+837445818+841661792
635+876679780+924563945+911341204+885189242+937436505+1000416333+948639504
621+932213700+1000432079+1002793552+911572226+842533232+811665680+830489981
608+857152624+858550552+916412690+1004247411+952148002
##END=
