##TITLE=Sample description
##JCAMP-DX=4.24
##DATA TYPE=INFRARED SPECTRUM
##DATE=25/8/2023
##SAMPLING PROCEDURE=Instrument type and / or accessory
##ORIGIN=Default
##XUNITS=1/CM
##YUNITS=ABSORBANCE
##RESOLUTION=4
##FIRSTX=4397.6552
##LASTX=599.8556
##DELTAX=-1.9287962
##MAXY=1.7964504
##MINY=0.31183973
##XFACTOR=1
##YFACTOR=1.6730748e-009
##NPOINTS=1970
##FIRSTY=0.43816611
##XYDATA=(X++(Y..Y))
4398+261892722+260973487+260084321+259800793+260379997+261257229+261765396
4384+261751822+261437994+261207389+261278052+261480069+261665038+261729360
4371+261568100+261444300+261344744+260877405+260341770+259989520+259717339
4357+259894969+260223511+260094225+260105162+260572644+260627988+259910484
4344+259285536+259237192+259190505+258997751+259041001+259259156+259347401
4330+259280959+259351622+259507574+259378644+259094600+258829099+258405151
4317+258016919+258032773+258370398+258709841+258798086+258673200+258443841
4303+257930687+257344714+257437091+258040664+258021551+257226133+256570476
4290+256486951+256617163+256674129+256823811+257045083+257235235+257300395
4276+256978356+256801847+257202549+257391686+257015389+256529595+256329396
4263+256697179+257052778+256561373+255814104+255492973+255308093+255218708
4249+255433870+255653681+255326155+254616079+254155313+254093787+254393204
4236+254814871+254768896+254131800+253581720+253609900+253955185+254264168
4222+254389125+254400294+254337129+254141187+254061011+254140617+254119990
4209+254029589+254061866+254136538+253806643+253071540+252683486+252823780
4195+252872837+252683308+252558956+252502471+252340392+252224162+252247301
4182+252029521+251622549+251342673+251198032+251397857+251845799+252067266
4168+251985185+251732117+251425841+251179667+250954209+250796761+250772535
4155+250637318+250395133+250110608+249633560+249336245+249481794+249543534
4141+249185334+249026069+249479906+249853300+249735058+249448146+249269180
4128+249222617+249040230+248658429+248409600+248442590+248476113+248384484
4114+248442447+248419272+247879310+247249161+247094420+247425865+247871437
4101+247847354+247412843+247198038+247089290+246614611+246228926+246573428
4087+247133644+247145489+246821651+246740762+246913512+246792936+246164729
4074+245435932+245148253+245515341+246044278+246142783+245820085+245342823
4060+244963658+244877586+244944206+244811732+244365002+243863123+243703876
4047+243726676+243587397+243664723+244006873+243942961+243430056+243108604
4033+243147205+243189885+243066156+242712730+242381802+242465077+242662676
4020+242609166+242444094+242455494+242591638+242409074+241852866+241419994
4006+241381216+241492065+241595950+241646610+241539537+241386007+241110887
3993+240788010+240900285+241253034+241168957+240700139+240492726+240515063
3979+240242241+239968403+240181890+240550956+240533054+240115413+239726610
3966+239544652+239380274+239384282+239643193+239799305+239487241+238367610
3952+236808785+235756452+235694642+236167432+236338062+236483682+237240820
3939+238012671+237811652+236234818+234502228+234768068+236304074+236632028
3925+235780785+235245186+234927600+234465533+234615607+235576132+236442142
3912+236701053+236226909+234218326+230321343+227098205+227272878+229401360
3898+232004200+233837326+233423746+231718516+231698975+232405916+231688145
3885+230602769+229991359+230163325+231965706+232805816+231075809+228426228
3871+226816708+227480826+228671209+228240493+228455994+230459643+231222872
3858+229109068+224218001+220162234+224090763+229819981+232524568+232070499
3844+229433316+226318605+223674992+222837305+224727147+226943464+228436471
3831+229562246+229863391+229362546+228094873+225232641+222799933+223666762
3817+225379794+227782203+230421523+231200036+229746788+227517717+226261266
3804+224899487+224019511+225470034+227131960+229038832+231293732+232511832
3790+232832072+232470577+231401856+230646553+230298329+229641870+229951601
3777+231503639+232123261+230775287+228596840+227852100+228361265+228975097
3763+229137302+228007696+226719912+226603345+225478780+221649629+217439406
3750+217918681+220129939+221041390+222680551+224686035+224708301+222152024
3736+218691957+219167436+223666032+227200202+227861559+226811631+226464725
3723+227794672+229924899+231812034+232533118+231352443+228741944+229800405
3709+238243312+249331970+260314356+272614114+288068626+302976139+314163641
3696+322253265+326725159+326894524+325578222+327247398+330132412+331012049
3682+328243994+320941986+310655746+300423122+295127827+293097619+289417134
3669+286645963+285942424+283881364+279737138+274581157+269133223+263568436
3655+259120571+254802491+247646816+240420583+240867901+244348169+245802254
3642+245211970+243454406+240995780+238175409+235150048+231306165+226061547
3628+223671893+225780673+226702117+224701069+220657700+217860895+217734032
3615+217409035+216371238+215558221+214809099+214818932+215394645+214756302
3601+213029786+211640967+210396326+209002146+208302491+207569775+205202920
3588+202904290+203804411+205698547+206206909+205339777+204071872+203191861
3574+202536329+201175868+198102233+193604083+191256591+192954785+195107456
3561+195996178+196313568+196209345+195158847+193824714+193208939+192370753
3547+190821903+190303280+191268686+192016650+191744113+191096382+190930027
3534+190875538+189960916+188569978+187938973+188014001+188148738+188521224
3520+189136393+189603269+189789984+189467588+188639056+188062969+188218405
3507+188373769+187589253+186460021+186387202+187141935+187758493+187890736
3493+187579723+187041399+186575467+186434371+186561947+186717471+187196941
3480+188176384+188752204+188435205+187886247+187612303+187625680+187909066
3466+188168885+187988547+187677427+187937744+188755054+189512334+189711268
3453+189345463+188859224+188769892+189191630+189646964+189918219+190330570
3439+190781022+191018540+191326846+191767946+192049123+192145954+192154308
3426+192153649+192214694+192384950+192861285+193653656+194516317+195413215
3412+196217699+196757306+197382948+198355283+199424681+200403963+201253336
3399+202109531+203172570+204274654+205396173+206721364+208112249+209662844
3385+211678072+214025545+216464043+219013711+221504935+223730871+226256367
3372+229373608+232247007+234705527+237526218+240830441+244404618+248368185
3358+252540858+256606974+260952076+265891096+270796449+275221389+279445381
3345+283616094+287663186+291774316+296061811+300247273+304207047+307993358
3331+311616966+314914562+317530316+319566188+321197530+322296586+323196423
3318+324602574+326521023+327995326+328683011+329374829+330389880+331357940
3304+331965823+331968139+331546080+330938624+329538245+327060505+323988313
3291+320420317+316689689+313223191+309763640+306315240+302791740+298945079
3277+295614974+293631739+292505019+291230238+289395830+287501160+286105608
3264+284807439+283044728+281283138+280010299+278969545+277892042+276616228
3250+275287813+274274455+273644127+273382883+273068307+272200463+271265802
3237+270594576+269486257+267864374+266630937+266103194+265778946+264979325
3223+263507622+261925605+260801486+260365782+260312700+259908917+259222639
3210+258896182+258845095+258429395+257562494+257010686+256928034+256525088
3196+255775397+255191757+254794458+254564743+254427761+254035058+253325427
3183+252700177+252372704+252169085+251898560+251501350+251201007+251208043
3169+251327087+251336741+251235065+251106100+250944216+250623762+250356319
3156+250497664+250654560+250344705+250004906+250027208+250083514+249993969
3142+250060856+250153430+249703547+249004320+248795659+249009432+249194419
3129+249130043+248821274+248542520+248518152+248498469+248249035+247986294
3115+247787841+247578468+247526739+247637197+247642452+247396313+246948799
3102+246470167+246186015+246255770+246600682+246760321+246336944+245630217
3088+245111790+244738111+244368814+244028516+243724111+243501218+243307218
3075+242965602+242572062+242316251+241970858+241352448+240738704+240265255
3061+239773779+239219833+238688403+238301186+238024694+237667136+237305089
3047+237162674+237129275+236963526+236714021+236547808+236292443+235638958
3034+234711957+233923308+233467833+233209581+232969214+232780450+232819158
3020+233029208+232924770+232268614+231640139+231547049+231618230+231423962
3007+231151763+231060650+231170164+231367638+231515449+231693721+232145456
2993+232855354+233506914+233926230+234213320+234527202+234878668+235154715
2980+235342498+235396934+235286405+235119588+234896142+234654190+234418347
2966+234062605+233580713+232978904+232394979+232029102+231738823+231438943
2953+231170947+230930206+230887152+231045758+231101459+230924559+230627084
2939+230347956+230109476+229733464+229226313+228845116+228471384+227891503
2926+227334564+226946368+226466684+225720929+224914289+224235903+223723942
2912+223570092+223820933+224081144+224090710+223972592+223746831+223507978
2899+223515602+223541181+223251508+222813578+222519594+222519326+222697046
2885+222752426+222548700+222184141+221927902+221845999+221705383+221505113
2872+221306428+221004909+220664308+220360563+220118841+220023061+219956156
2858+219722736+219346599+218922936+218417442+217729775+217047255+216846540
2845+217130442+217388871+217436592+217461014+217557577+217698851+217878601
2831+217980812+217901829+217894776+218086817+218245815+218334362+218376935
2818+218357466+218494910+218786383+218898551+218847481+218886919+218965919
2804+218944829+218850438+218710909+218599472+218665950+218832465+218837684
2791+218661229+218500147+218458322+218564666+218739909+218722523+218525851
2777+218472412+218545249+218564897+218587341+218545356+218340241+218136479
2764+218065940+218141716+218291861+218397901+218483439+218563276+218614310
2750+218669494+218624927+218385040+218190452+218309264+218521932+218509980
2737+218467835+218614595+218751772+218772667+218783586+218712334+218563027
2723+218633851+218940589+219145776+219224099+219389973+219594287+219655065
2710+219568476+219531497+219627383+219664221+219609143+219646301+219789071
2696+219920352+219935689+219797087+219649400+219658823+219762352+219809503
2683+219770938+219686896+219587643+219490117+219414484+219378234+219351711
2669+219265461+219187262+219292180+219452283+219403831+219249020+219117614
2656+218909737+218643969+218464432+218443306+218508377+218536860+218529752
2642+218537679+218580501+218634546+218623876+218528683+218455276+218494999
2629+218551431+218518690+218488462+218602625+218801969+218884746+218808542
2615+218657382+218535755+218570401+218730664+218839608+218824271+218817110
2602+218918982+219033857+219124739+219260117+219391968+219491115+219607896
2588+219615271+219393785+219117881+219024826+219098981+219115334+219039736
2575+218994117+218883873+218684333+218611905+218645144+218588659+218469990
2561+218342681+218207641+218148111+218123939+218013499+217893101+217864191
2548+217825252+217695200+217549419+217449987+217397813+217394180+217445000
2534+217535650+217650739+217765561+217827176+217835708+217849798+217907013
2521+217998393+218031472+217960096+217965956+218098787+218185856+218319400
2507+218565004+218691244+218668657+218674001+218763440+218910556+219066508
2494+219155929+219196970+219278785+219408819+219454794+219325651+219235874
2480+219283559+219263466+219221659+219274047+219274492+219134785+218980472
2467+218944241+219011752+219106267+219134554+219044260+218930667+218911127
2453+218941195+218896235+218863281+219015136+219177714+219104592+218926285
2440+218844007+218889555+219023811+219123848+219126734+219071621+219019554
2426+219097592+219313752+219493591+219507556+219431210+219477987+219662546
2413+219817643+219915828+220001597+220090519+220230938+220386267+220447098
2399+220500162+220712189+220974591+221086688+221070264+221062373+221062462
2386+220860019+220269022+219203312+217618159+215647161+213451596+211091190
2372+208656504+206234626+204049446+202308662+200820821+199550298+199052801
2359+199710721+201341902+203673807+206699062+209854458+211468610+210643712
2345+208499608+207059809+206871526+207338011+208002308+208576026+208890833
2332+209080398+209615640+210614748+211650141+212503949+213427281+214669803
2318+216127718+217447280+218475120+219361526+220242321+221163212+222053946
2305+222732351+223175304+223612166+224192902+224776560+225180004+225416061
2291+225643817+225951962+226307508+226692142+227005792+227101465+227064414
2278+227078023+227163543+227254727+227299491+227325587+227400739+227454320
2264+227471528+227624024+227872193+228011383+228058374+228129287+228216089
2251+228271220+228351913+228520672+228694384+228795044+228890949+229042074
2237+229204617+229299631+229296745+229303834+229400060+229473021+229453570
2224+229466324+229603643+229748925+229833038+229944101+230055788+230099305
2210+230132865+230176827+230144728+230099092+230216888+230388409+230407059
2197+230376421+230482158+230684905+230850939+230966616+231068167+231128553
2183+231097309+231026503+231088509+231292485+231456773+231540334+231611746
2170+231720743+231872527+231939165+231947911+232057389+232148733+232113428
2156+232074703+232148128+232354383+232614559+232828777+232950403+233002453
2143+233046985+233110684+233186638+233265531+233378234+233536038+233658573
2129+233727420+233822060+233943330+234036082+234061483+234004197+233974521
2116+234107191+234377823+234651019+234809358+234869013+234968784+235207868
2102+235517278+235744892+235852215+235987058+236317203+236773551+237228279
2089+237739830+238328351+238936074+239554235+240120472+240563674+240897898
2075+241193592+241561999+242004685+242317444+242414150+242608703+243110439
2062+243597230+243890787+244201479+244570634+244896717+245122620+245182614
2048+245160882+245269915+245514540+245807135+246228499+246718870+247110701
2035+247441611+247767017+248041639+248214852+248294547+248316937+248303506
2021+248202026+247939553+247781624+248074896+248551284+248762652+248772663
2008+248860801+249071278+249266828+249380101+249587799+249958361+250122186
1994+249888338+249819171+250428087+251318875+252090316+252769932+253401791
1981+254066836+254836478+255693707+256556136+257372680+258024775+258479271
1967+259330300+260940694+262611348+263867016+264834381+265560916+266186951
1954+266943393+267681275+268023051+267848592+267255760+266494668+266457475
1940+267457242+268372220+268715617+268809099+268877875+268982187+269078323
1927+268902083+268238677+267799588+268032813+268447088+269355991+270627868
1913+271237907+271126380+271173673+271971905+272967201+273591063+273978155
1900+274187065+273945985+273442111+273190308+272855497+272442451+272815346
1886+273501499+273743523+273769120+273739426+273689105+273711709+273652606
1873+272724162+270423055+268632110+269838151+272149607+273319006+273565091
1859+273625353+273783531+273982858+274122849+274034533+273415445+272132524
1846+270670797+270897769+273118379+274626420+274824660+274836060+274623516
1832+273175274+271409213+271439923+272439013+273631480+275218681+276246112
1819+276512593+276668153+276576969+275764504+275085013+275634524+276660832
1805+276956205+276193884+275231026+275361487+275998352+275597882+274329140
1792+274739959+277430510+279265114+279559936+279328029+278930267+278849984
1778+279213724+278600194+276415815+274826673+276511168+279507067+281656960
1765+282232513+281726626+281775950+282141667+282360338+282653360+281544525
1751+278764892+277235815+278564444+280370975+281116855+281168851+281601936
1738+281761433+279991346+278485675+280845439+284035090+286563792+287942938
1724+287994560+287127481+284539907+280171435+278804241+282949838+287123366
1711+288943631+288253934+286082309+284629880+283812784+281918525+280311854
1697+281519676+286038507+290315011+291084119+289712650+287298966+283648389
1684+282937601+287574158+291025764+292015093+291719791+291617259+291075801
1670+290748969+294039672+297639393+298364485+298852951+301306215+302829646
1657+301026944+296438447+295851155+300512223+300596406+300157390+305026048
1643+309812305+311372038+310178894+307303036+308225994+314661013+318897456
1630+320510700+321743816+323126489+324985230+328585895+331402365+331919866
1616+333925741+338363292+341163980+342119535+342748366+343857683+344933083
1603+345674563+346390606+346958518+347032192+346950894+347292260+347939510
1589+348753773+349750049+350714974+351511888+351818591+350727016+348430932
1576+349002477+352521167+353596817+353638891+356162837+359248068+360708014
1562+359556659+355109703+354929971+363452876+369956296+374626590+378333812
1549+381770527+383516976+382376807+379951580+381242054+393705993+404538127
1535+409211949+414903386+423498290+429756035+433994473+438585358+442715244
1522+448742882+458595556+468591268+479795977+490768691+498207075+501507949
1508+503942153+519029435+539005824+550129128+557828115+565866723+577363706
1495+590693887+600353041+607404387+617124818+630603487+643208041+653246040
1481+662237638+671111814+678957971+685401968+693641648+708361021+723827610
1468+735481026+745988645+757993190+768119256+773041247+776074286+787940673
1454+803454573+813561616+820302019+826184339+833318051+841138629+847659007
1441+853562631+859227990+863854144+868231701+872711504+875493738+877608129
1427+881538868+884582167+883803600+879156000+870450548+861948591+858231893
1414+855979273+852544232+847098827+840725370+835600810+833069454+831731705
1400+827440077+819773047+813550073+811051421+811173190+810233239+805712680
1387+800979719+800858449+803763948+806218637+806605320+804881529+801781514
1373+800457944+802573832+804973658+805839864+804993680+802415725+801350655
1360+804099828+807206114+807890984+807399562+808257360+810529147+812806063
1346+814447131+815188290+814651409+813951647+815119817+817576644+819820002
1333+822257092+825692275+829086845+830672977+831190976+831742321+831888031
1319+832567130+835274051+838866842+841762864+844012634+845879284+847983060
1306+851244887+855224219+859009248+862541476+866379515+871011868+875442436
1292+878587269+881431705+884401116+886343364+886789257+885965303+884960085
1279+885171489+886304247+886414687+884239945+881792310+881075732+880353241
1265+878206857+875722669+874558489+875362563+876548404+877138510+877455295
1252+877108371+876882075+877902399+879198038+879568190+879401960+879924662
1238+881015952+881472604+881391662+881312074+880952467+879953234+878316513
1225+876814101+876162434+875409803+873402645+870723655+868249087+865718657
1211+862285754+858241939+854748971+851322195+847630792+844839011+842449445
1198+839630232+837179390+835044050+832854773+831347801+830816407+830810992
1184+830929626+830874762+830297980+829400566+829165008+829836341+830892076
1171+832093307+833121895+834115499+836104844+839011269+841490612+843745654
1157+846510004+848801741+850360726+852279532+854728949+857412071+859923192
1144+861463367+863021070+866146380+869319500+870928575+872451935+875694596
1130+880200050+884109911+886622314+888349240+890415038+893311844+895904548
1117+897719255+899834787+902331658+905194975+909425612+913279612+913309609
1103+910933510+910668169+913697218+917946165+922191907+927305422+933486358
1090+938580848+941357595+944132062+949754242+958352389+966521174+970218278
1076+969838364+970121661+974684899+980581256+983057107+984384525+987127000
1063+988808752+990201792+995164539+1002852232+1009761502+1015177908+1019154247
1049+1021180429+1022570192+1024251516+1025472484+1025567035+1025120644
1038+1026850491+1030387421+1031387366+1030475702+1032376766+1037839557
1026+1041061697+1037526335+1032808052+1033281020+1037633711+1041854585
1015+1043722732+1043528500+1042508960+1040416514+1038178002+1039030029
1003+1041842615+1042609995+1042065633+1041902253+1041504954+1041079582
991+1041740155+1043833457+1045316773+1043736768+1041667265+1042159115
980+1041613399+1038049606+1035634319+1036523753+1038774663+1039878208
968+1040821793+1043526148+1046035844+1047713107+1050609557+1054142640
957+1056221335+1056197537+1056558497+1061459967+1067993242+1068418543
945+1063852027+1060211425+1058473955+1057387225+1058058415+1061939918
934+1066429982+1068653674+1068349572+1065277273+1061886052+1061415791
922+1061462248+1059714730+1059365027+1061272647+1063159604+1065798194
910+1068969959+1068999244+1067308942+1069162196+1072929341+1073741823
899+1071022647+1066419508+1062696967+1062635904+1065731858+1068193459
887+1067146987+1062700458+1058008824+1057026193+1056640508+1052104701
876+1047542816+1045248585+1042469416+1039754373+1035998272+1030045556
864+1025832804+1024225082+1021612713+1017502563+1014502513+1010655353
853+1002534023+993140708+985928832+980935020+977900912+975833404+971999782
839+965264295+957639160+950860994+945929812+942957337+940055971+936104427
826+933509158+933593449+932788590+929348705+926221685+926184919+928413313
812+929005201+925737530+920102239+915354673+913094785+911862132+910507140
799+909427179+907323903+906327662+911941934+916325476+909262018+898969294
785+892502141+887857461+884456906+882545154+882017607+882550926+882850254
772+881778914+878662368+872967369+866321374+861981937+860523558+859986677
758+859406903+858840880+857371814+854697955+852158547+849652271+846196924
745+843557194+844227173+846395075+846257987+844618629+844769968+846158377
731+847039688+848503838+850306646+850571417+849313541+846812538+844243775
718+845117889+849292094+850723112+848110386+845644581+843019957+840515462
704+839320074+835254029+828862260+826348004+828577681+832368124+834272823
691+832602756+828851715+824250499+821471044+823760359+827848848+827653619
677+822921585+819040651+819518892+819479918+812422943+805158128+808116353
664+813643911+815469520+813740671+810155361+806186930+804315720+806574254
650+811498311+814344030+812637838+808503249+804821607+804470693+807091113
637+806657049+801112675+795551842+792711753+790752262+790533804+794286556
623+795802791+787610849+774029150+765718789+767611873+772711993+773757254
609+774509030+777978200+776741771+768925896+765701617+772373833
##END=
