##TITLE=Sample description
##JCAMP-DX=4.24
##DATA TYPE=INFRARED SPECTRUM
##DATE=25/8/2023
##SAMPLING PROCEDURE=Instrument type and / or accessory
##ORIGIN=Default
##XUNITS=1/CM
##YUNITS=ABSORBANCE
##RESOLUTION=4
##FIRSTX=4397.6552
##LASTX=599.8556
##DELTAX=-1.9287962
##MAXY=1.8790654
##MINY=0.91204047
##XFACTOR=1
##YFACTOR=1.750016e-009
##NPOINTS=1970
##FIRSTY=0.97065115
##XYDATA=(X++(Y..Y))
4398+554652722+554941546+556035196+557194308+557990245+558149507+556914680
4384+555546340+555717523+556928236+558276651+559498467+560018317+558762509
4371+556391969+555517185+555942043+555542117+554830682+555268313+557157797
4357+559181850+558318851+554336377+551735016+552669812+554444891+555326044
4344+556020653+557146080+557727748+556883618+556829089+559051232+560919360
4330+560762448+560666435+562168798+563777496+563266399+561618976+561024843
4317+560217020+558848544+558828449+559873904+560637552+560141101+559256781
4303+559470095+559656741+559510694+560465041+562063418+563083670+563675352
4290+564031341+564021805+563476512+562262939+561255051+560870417+560856112
4276+561274465+561049536+559770704+559531641+561617886+564028855+564666381
4263+564924313+566056859+566233526+564878741+563908182+564020204+564171598
4249+563118854+561298681+560950389+562201530+563047738+563493133+564120850
4236+564398843+564966240+566038637+566223035+565486805+565376623+566363292
4222+567019005+566506206+565073698+562651149+560726890+561300145+563683730
4209+565807407+566429163+565860710+565863026+567285146+568127437+566648608
4195+564773327+565126422+567465253+569444484+569277933+567926725+567387052
4182+567693043+567826351+566660018+564677552+565002139+567518828+568567588
4168+568355023+568411425+567433986+566175079+566643738+567469817+567639092
4155+568367727+569059475+568701646+568542997+569684194+571382979+571854396
4141+570931078+570657001+571308763+571121164+569983781+569651361+570733124
4128+571669385+571370684+570515314+570222709+570801618+571732191+572548937
4114+572279254+570262797+567971785+567320125+568692041+570650666+571374021
4101+570977807+570512827+570219371+570473795+571544728+572512085+572619032
4087+572330071+572277007+572415969+572343627+571663595+570754752+570866876
4074+572387972+574457359+575435547+573963973+571855282+572144924+573899737
4060+574391964+573614863+572503434+571928374+572862421+574206272+574505927
4047+574340943+574393395+574456337+574909532+576447795+577720734+577030621
4033+575655912+575305372+575848825+576424021+576178997+575057487+573249950
4020+571893224+573216571+575911767+577018768+577004463+576651334+575730093
4006+574992501+575272743+576555150+578042732+578873103+578601376+577708064
3993+577524756+578297429+579153004+579781333+580183916+579859125+578568338
3979+577325508+577198057+577733200+578038645+578282852+579098985+579971317
3966+579889915+579776701+580057487+579440466+579471800+581431924+582210932
3952+580335481+578550287+579257771+581289487+581490165+579877176+579681402
3939+581193712+582316312+581930350+580120633+578522903+578720516+580275400
3925+582074354+582664605+580918852+577752341+576143235+578034490+581654060
3912+584203616+584876836+584117105+581240101+576630694+573930050+575152921
3898+578417182+580786973+581492345+581013060+580853662+581777014+582034572
3885+580852708+579573979+579333246+581369390+583969492+584336721+582598734
3871+581159652+581627289+582975976+582629660+581314214+581377701+581989001
3858+582298125+580426351+575352101+576594796+582508816+586641526+588534484
3844+588634960+586947857+582584837+577794575+578360712+582616785+585523285
3831+586113672+586054545+586444254+587612698+587017271+582524961+580545492
3817+582146764+584302730+587269788+589288085+588034627+584209066+582727002
3804+584233044+585575601+587129394+588937749+590084123+591352430+592677412
3790+593248453+593297022+593557782+594509812+595439841+594299188+592267745
3777+593248862+595587931+595664156+593385577+592294038+593625628+594301641
3763+593528354+592393492+591018783+590243044+589986645+588144435+583674060
3750+581280563+582697370+584526500+587669918+591341463+591642753+587641649
3736+582424213+581662915+585776483+591002980+594449323+594959125+593618067
3723+593100295+594678066+596555629+597247991+596722385+593220797+589077938
3709+591542346+596532128+599387948+600731186+602495808+605460550+608122367
3696+609562470+609626093+607155895+603006428+603149137+607221357+609973432
3682+608950421+604851566+600241206+595191138+592112638+592660450+592426257
3669+592894848+595606323+597060936+597030895+597220334+597052149+594637331
3655+591315101+588724673+584112269+577542603+576909437+581045417+583864316
3642+583145933+580838199+580068659+580112595+578588978+574963823+568895036
3628+564395914+566045824+568997964+569983305+567381841+563132988+561350417
3615+560703525+559768899+558105093+555609589+554571251+555119268+554843761
3601+553587137+551694587+548520448+545698279+545023901+545265383+544146392
3588+540314598+537511945+538082373+539399283+540052715+539496148+537926381
3574+536907355+536853575+536454023+533280327+528332062+528039389+531031685
3561+532698761+532528191+531536311+530041576+528556548+527651554+527217874
3547+526880890+526971318+527957408+528682705+527637658+525203869+523037073
3534+522359629+522968613+523563326+523435398+522790346+522079354+522169509
3520+523460432+525085921+525644224+524864705+523744965+522708194+522106057
3507+522594912+523273752+522970486+522371142+522501964+523132405+523466665
3493+523138842+522051561+521161212+522077889+523700585+523772792+522838540
3480+522630709+522981351+522883362+522935950+524448395+526729700+527719605
3466+526932728+525733494+525235067+525665307+526254093+525612583+524411713
3453+525119708+527230647+527681288+526698127+526885624+528138230+529248024
3439+529282356+527797294+526262880+526079879+527768208+530985262+533435331
3426+533944827+533589893+533195552+533176309+533531617+534262875+535932947
3412+538137345+538820953+537913643+538794114+541707222+543038982+542293726
3399+541439412+541705724+543173824+544765219+546594622+549684533+553471062
3385+556692885+558893230+559822406+559891922+560875526+563518746+566681272
3372+569402284+571590299+573867993+577190564+580781864+583376243+586545615
3358+590813268+594444214+598185512+602584499+606296302+609667509+613249069
3345+616519597+619986443+624401030+629015681+632101470+633212082+635040872
3331+639338770+643260448+645129019+647185327+649360093+649470582+648587283
3318+649410501+652036078+653618278+652865154+653137971+656488334+659724190
3304+659630117+657083013+654677800+652881980+651416468+650670906+649758453
3291+648720251+648984417+649047767+646673753+643105681+640501016+639001650
3277+637544653+636193309+635950124+636218036+635828055+634650891+632857591
3264+631009660+630107560+630563004+630722947+629580047+629489244+630534598
3250+630053337+628674950+628238376+628743955+628842455+627138663+624768055
3237+623428291+623025435+623270595+623418141+622344995+620613274+619712673
3223+620013964+620748014+620503262+618829783+617879047+618916363+619867440
3210+619565536+619315063+619861854+620585141+621118036+621906853+622111006
3196+620949101+620040871+620321248+621038132+621040925+620135828+620477649
3183+623187763+626131660+626997861+625843449+624489584+623938910+623918884
3169+624474666+625678328+626334587+625485075+624334409+623840819+623447977
3156+623701175+625483644+628032792+630426834+631762102+631679405+631930969
3142+633400022+634566832+634653071+634226510+633711054+633574816+634393061
3129+636077302+637652553+637953162+637428101+637602214+638198391+638409423
3115+638776040+639149877+638953081+638817184+639132574+639465676+639976705
3102+640938068+641437857+640833096+640541479+641940302+644015274+645368321
3088+645704556+644682908+643055001+642916651+644262342+644955043+644728412
3075+644501643+643830944+643030682+643424751+645073230+646748548+647042481
3061+646325665+645892020+645947400+646807743+648530676+649811858+649706069
3047+649376714+650624926+652867811+654129511+653732581+652335325+651434384
3034+651574845+651291606+650709734+651651138+653246348+653803085+654395924
3020+656059049+657363186+657042959+655850400+655197344+655888206+657288460
3007+658361810+659284005+659894010+659711452+659638496+661040316+664106079
2993+666826342+667310599+666270082+664959133+664671875+666252508+668184702
2980+668991980+669066162+669306077+670638552+672453854+672897241+672761616
2966+673696004+674495857+674434005+674625010+675151297+675502587+675290464
2953+674472151+674155194+674719900+675421934+676445626+678025986+679857841
2939+681614902+682696631+682986546+682362848+681069542+680499795+681158096
2926+682434850+683355206+682977622+681368311+679541769+678923113+679551306
2912+679680051+678875293+678250642+678127211+678489399+679346132+680402316
2899+681967213+684253422+686087457+685989026+684653826+684304852+685053343
2885+685735759+686668035+687840159+688299621+688465286+688914054+688990075
2872+688662763+688305615+687728784+687226952+687484918+688309362+689168615
2858+690105591+691017568+691920894+692472112+691920757+691258437+691109869
2845+690793729+691049175+692147730+692778443+692656442+692328449+691962787
2831+692072322+693317196+695404293+697042827+697312238+696920281+697184106
2818+698431024+699493066+699198179+698685584+699463162+700825610+701987992
2804+703124897+703591104+703014545+702779330+703737968+704694767+704648583
2791+704461051+705142581+706340181+707270618+707820202+708085593+708071901
2777+708390426+709149407+709171955+708399758+708207254+709111193+710377729
2764+711485139+712811074+714065894+714677194+715279229+715888417+715609606
2750+714567999+714066916+714689387+715442102+715891278+716105785+716001563
2737+716548149+717967885+719097979+719717861+720251165+720634879+720910624
2723+721432484+722250933+722684374+722382812+722382130+723147651+723824618
2710+723917600+723434773+723043770+723603640+724540412+724851443+725010433
2696+725875612+727090309+727848678+728453302+729702944+730850204+730988417
2683+730830586+731029766+731688135+732476204+732753380+732741732+732899018
2669+732766799+732170758+732398071+733960107+735314789+735622347+735727045
2656+736364026+737217965+737317487+736601829+736345838+736993105+737558969
2642+737876880+738510863+738863311+738863651+739774743+741254014+742015312
2629+742240922+742565713+742668437+742046306+741644813+742196713+742743844
2615+742957942+743559569+744495387+744955940+744928556+745062546+745688355
2602+746939564+748357937+749379518+749737142+749490007+749797427+750623506
2588+750583520+750345445+750578003+750592853+750964442+752247871+753716244
2575+754461533+754287489+754367189+755575074+757053937+757399096+756603534
2561+755756679+755251850+755423169+756363143+757189630+757641259+757976268
2548+758009646+757788804+757834444+758564203+759724746+760542105+761023979
2534+761381740+760807497+759801652+759930874+760927182+761985410+762655564
2521+762395690+762107752+762857060+763362980+762778178+762663602+763539067
2507+764626110+765812061+766246251+765362203+764563985+764688984+765279916
2494+766408783+768178991+769503428+769664257+769669843+770225080+770355460
2480+769584013+769333539+770004511+770226170+770288159+771082494+771667908
2467+771358444+770803615+771168664+772853655+773996896+773452898+773267819
2453+774261198+774904786+774935303+775186798+776040669+776832008+776811504
2440+776891067+777720551+778125587+777526889+777173692+777732881+778050383
2426+777581589+777291334+777619735+778263868+779288037+780672010+781420706
2413+780659340+779607243+779722432+780238297+780514792+780829706+781238079
2399+782504342+784275504+784636126+783706574+783100520+783100588+783066256
2386+783176200+783889065+784070738+782191812+779155546+776819474+774480132
2372+770853206+766840044+763383347+761208036+760225761+758307326+756066553
2359+756823559+760038365+762887646+765945915+770489791+774292464+774589054
2345+771640593+768653576+767759106+768420064+769409220+770905385+773273745
2332+775136799+776075138+777244672+779182861+780527394+780282029+780654504
2318+783004949+785775552+787806587+789350503+790882703+792110548+792402778
2305+792455502+794006503+796724654+798272317+798267753+798192754+798473064
2291+799061816+800398923+801714846+801911914+801582014+801317031+801379019
2278+802381117+803784436+804328707+804189063+804261610+804302277+804263585
2264+804722026+804872296+804050100+803850375+805555870+807639766+808315914
2251+808101203+807631455+806818728+806502860+807441676+808791181+809482724
2237+809837556+810422289+810729915+810446063+810578895+811737667+812854477
2224+812823415+811902991+811607968+812548419+813053180+812689084+813061218
2210+814611538+816298232+816658309+815631960+814637559+814367876+814930948
2197+816289308+817615653+817718512+816822203+816529836+817118657+817657546
2183+818068031+818690093+819451527+819735379+818858824+817821917+818115646
2170+819006233+819495191+819818484+820001656+820477535+821804629+822818648
2156+822226149+821347755+822113344+823767681+824510314+824494034+824382659
2143+823551540+822882952+824117131+825573515+825576172+825598310+826268942
2129+826877857+827423831+827585409+826606948+825139257+824188111+823705284
2116+823997038+825264595+826654972+827326080+827071315+826585014+826866754
2102+827852503+828786755+829576799+830372292+831163221+831893934+832002720
2089+831743254+832158235+832651417+831835147+830359009+830131492+831270849
2075+832251490+832543244+833193848+834274828+834386952+833568434+832684318
2062+831952243+832050267+833153317+834285523+834899138+835324269+835722084
2048+835776511+835685367+836051303+836909942+837805843+838395413+838942204
2035+839666717+839809154+838820747+837748691+837791947+838317348+838428382
2021+838481038+838602699+839093768+840336258+841319556+841494826+841581132
2008+841663897+841093128+840468750+840806756+841405862+841619279+842052584
1994+842599102+842401012+841910011+842114776+842805707+843702493+844911469
1981+846142719+846678952+846639579+846814577+847160485+847396585+847299448
1967+846898091+847157079+848406108+849614539+850298862+851062884+851522824
1954+851111249+850624266+850436394+850282718+849648939+848338330+847986700
1940+849659906+851261111+851473233+851788488+852411163+852134123+852303535
1927+853605766+854233414+854156644+854634839+855397839+856125691+856960489
1913+857193728+856265335+855408466+856163837+858032272+859577415+860066577
1900+859853297+859382254+858928854+859279326+859589200+858572388+858258427
1886+859503234+860206971+860085991+859804456+859553301+859887016+861049670
1873+861645711+859771690+857098225+858204409+862133511+865034903+865556013
1859+864414407+863656379+864516177+865993541+866858516+866662129+865539460
1846+863992819+863148075+864914809+867764498+869596013+870708327+871027192
1832+869209097+865486191+863412241+864258755+866032437+867818108+869066524
1819+869808203+870233470+870451110+870527063+870107518+870128703+871395307
1805+872551899+871975068+869950163+868966730+869809429+870703831+869985653
1792+868491872+869682864+872465797+874114412+874100175+873123894+872139984
1778+871893121+871859879+870394095+867499788+867794811+871714717+875036539
1765+875993814+874673260+873139698+873576136+875261604+877319342+877447814
1751+873194193+867702101+866707291+868886077+871042587+871771256+872078881
1738+873247121+872884728+869978773+870428086+874027015+877177995+878915437
1724+879506710+880622022+881243267+877576218+872161986+873354136+876774254
1711+877255991+875016307+871744826+870327610+871620440+869559433+863383222
1697+863523138+870245323+877211032+879759772+878064222+875578561+871711107
1684+866369217+868084725+872289573+873421846+871330458+869399421+869003718
1670+867249450+867321384+871103009+872532962+870309695+869843761+871776433
1657+872509597+868216603+857731732+855509146+856318059+853845612+854950093
1643+859716378+862003745+860609690+855309080+849888650+853821703+860307514
1630+862388208+861385906+860743476+861027395+863949631+867925667+868003664
1616+867190459+872750670+878674637+880551927+881645509+884205148+886264588
1603+887458646+889612159+893547119+897325406+898397463+897285693+896538973
1589+897506535+900427544+904039689+905931216+906034621+905239264+902337328
1576+900643481+904836681+907874719+906842784+906871190+908486291+908903996
1562+908539764+903791259+893439219+895687622+904472721+911744217+915424821
1549+916883657+916750961+912061038+901970507+892926283+897364098+905888165
1535+908298214+909656983+914730621+917748700+915767391+913061910+911618197
1522+910307247+912231881+915476864+919666794+926701167+931149813+927011858
1508+913435611+907538279+920821342+930894230+933597327+930900906+927078274
1495+928296241+930178709+926380940+922850129+928986014+936099269+937601974
1481+937203614+938187047+936790609+930760240+924337643+923254279+926476579
1468+928492969+928476893+929329674+929784504+925098668+915018491+913384181
1454+921756752+926997280+928827842+929892064+931850689+934345751+936599262
1441+938942896+939649221+937267509+939126408+945876862+949118507+949396773
1427+951041029+951483802+949628923+946626170+941536457+938176761+939209718
1414+940193015+939632328+938878319+938212183+936701850+935354865+933728456
1400+928871438+923320150+920485243+918290722+917180996+916807568+914669995
1387+911515746+910097577+910934350+913115315+914590840+914078858+912517572
1373+911870850+913247126+914509779+913879815+912936094+913290109+914721288
1360+915661194+915732106+915956149+916129921+914990290+913025126+912632761
1346+914120479+914998669+912996993+908970685+908859378+914182127+918230982
1333+918730771+918081870+917347820+917564438+919486415+921691017+922951490
1319+923822732+926059827+929457806+931317999+932272005+934869654+937533991
1306+938365928+939515299+942131885+944718839+948481527+954652152+960320468
1292+963327307+964251613+964206791+964922517+967665055+971287622+973676282
1279+974655832+975367744+976399882+978193455+981085310+982833447+980377554
1265+976293004+975425713+977602795+980462498+982470373+982631406+982014725
1252+982173101+983704688+986037491+987358386+987538152+988313277+990329054
1238+991509079+990196631+989083430+990391655+993136577+995882385+996526245
1225+994323618+991867248+991256085+992616830+995337978+996744362+995490973
1211+995301330+998538752+1002003215+1002214520+1000274832+998146046+996061129
1198+996114126+999887985+1004778654+1007293879+1007182845+1007036389+1007508386
1184+1006964728+1006322979+1006635509+1006428087+1006385172+1007882223
1173+1009604134+1011129522+1013530307+1015940833+1016590143+1016676382
1161+1017508591+1017820917+1017415677+1017063434+1016536057+1015706776
1150+1016177206+1018229086+1018092984+1015610456+1015380827+1018307218
1138+1021756558+1022622214+1020426399+1018736844+1018545634+1018451766
1126+1019652772+1022586315+1025447380+1027533456+1029453798+1029990507
1115+1027892715+1025518701+1024619190+1024140245+1022154032+1020242342
1103+1022251443+1025693562+1026605335+1025831776+1025418225+1026211675
1092+1027914036+1030960998+1033887661+1035248951+1036548388+1037965263
1080+1040808276+1046045331+1048375408+1045276200+1042586318+1042182917
1069+1041548253+1043485761+1048604901+1053920020+1060305901+1063913550
1057+1059532614+1052895715+1050802351+1052866288+1054907336+1054368583
1045+1052425217+1049649369+1046373051+1046689055+1051587013+1053722339
1034+1051269443+1052913494+1060767611+1067697014+1068331269+1064683635
1022+1062655120+1062432167+1060507874+1057629439+1055259580+1053480925
1011+1053007226+1053068329+1052970101+1053780240+1054061026+1052798373
999+1051308407+1049384931+1048964365+1052251650+1056966982+1059339429
988+1057752053+1054291064+1050726875+1048108314+1047838427+1048721453
976+1048434944+1046508199+1045859094+1047692448+1049866533+1052704846
964+1055798060+1056901111+1056286950+1056397166+1058482833+1059947118
953+1058782352+1056418215+1054349715+1053249866+1053757693+1055192346
941+1056504318+1058382903+1059759246+1059267768+1059196856+1061327822
930+1063423093+1062927460+1062002336+1061578023+1059049174+1057042117
918+1059830499+1065875853+1071393694+1073741823+1071322169+1066127757
907+1063312672+1065405219+1068761032+1066675025+1059891670+1057047430
895+1061729179+1069410751+1073225481+1070103929+1064838333+1062645788
883+1061891166+1060032608+1058510966+1057392930+1053645569+1048694273
872+1045587231+1042383255+1039002442+1036762691+1034138135+1030984158
860+1028688413+1029226348+1031784761+1031998109+1029463539+1027135300
849+1024799910+1021075777+1017876910+1016593413+1015375446+1013450676
837+1009522255+1002117995+994290921+989045011+986318822+985581298+986257924
824+987414516+988221317+988474447+986997968+985007804+986924945+990250990
810+988363481+982957832+977740804+971358738+965344650+963169748+962710490
797+960970731+957628542+953635136+950459906+947751496+945109297+942115468
783+938315656+935248191+933076558+931101925+929150249+925431634+921538362
770+921929910+923965237+921205601+914569996+909370679+906783998+904536889
756+901655525+898931788+897713548+898562515+899518020+898296306+895252410
743+891550007+888529340+888455703+890091921+889967263+888968843+888418033
729+887681531+889095272+893782198+895953763+891808928+886365473+883622049
716+883241060+885411671+887079973+883833082+879374491+878160883+877518113
702+875775357+874047111+871196127+865820042+860755941+860033335+860941157
689+859364203+857683027+856584949+854347717+853970611+857155718+861491081
675+863730084+859697441+850010991+841969479+844385931+851526570+853265716
662+849771962+842629756+837938607+841779427+849603231+854475645+853769183
648+847791743+842220565+839407933+834622439+830071819+832423627+835830052
635+832077037+827880364+831079912+834598938+828906031+817722599+811560080
621+816459674+827593515+834987693+834784222+824662764+812567424+812279962
608+820075360+820103630+818294186+832439362+849582250
##END=
