##TITLE=Sample description
##JCAMP-DX=4.24
##DATA TYPE=INFRARED SPECTRUM
##DATE=25/8/2023
##SAMPLING PROCEDURE=Instrument type and / or accessory
##ORIGIN=Default
##XUNITS=1/CM
##YUNITS=ABSORBANCE
##RESOLUTION=4
##FIRSTX=4397.6552
##LASTX=599.8556
##DELTAX=-1.9287962
##MAXY=1.9835968
##MINY=0.9876439
##XFACTOR=1
##YFACTOR=1.8473685e-009
##NPOINTS=1970
##FIRSTY=1.0669835
##XYDATA=(X++(Y..Y))
4398+577569376+578324626+577607319+576192580+575539996+576238847+577812199
4384+579604241+579778341+577163487+573777573+572987025+574992981+577183943
4371+578791108+580453640+581599872+581319945+579616889+577472195+575718290
4357+574600837+574767839+575749006+575535156+574302841+574779454+577158454
4344+578166207+577687981+577714825+577034429+575818827+575797467+576194258
4330+576162638+576071717+576167349+576237557+576081073+575602976+574857535
4317+574888121+576613891+578190470+577916866+577553631+577894668+578885063
4303+581329624+583105856+582181152+580078337+578898549+579400264+580613349
4290+581868701+583140315+583098435+581281679+579177832+578276294+578985535
4276+579622180+578636432+577486520+577972232+579376776+579840934+579184672
4263+578604425+578458008+578267195+577689594+577327585+578436391+580797968
4249+582978346+584241183+583886079+582475599+582343895+583496064+584358885
4236+584507302+583843941+582802181+582487859+583290797+584154456+584471617
4222+584400893+583380621+582048867+582049512+583528071+584977914+584614033
4209+582984283+582969377+585822860+589049386+589677385+587300128+583628027
4195+581960268+583814581+586745112+588318851+588124618+586819256+586223651
4182+586939409+587048076+586290632+586360905+586664386+586723882+587240438
4168+586794799+585669603+586051939+586841389+586312701+585360766+585739617
4155+587258893+587887344+587082083+585967018+585560097+585854479+585806856
4141+585195958+585279330+586596372+587791905+588563868+589781922+590294026
4128+589309891+588680086+589715328+591191693+591100965+588954270+586918953
4114+587619031+589628278+590023455+589389843+588970790+588554060+588371636
4101+588897807+588894194+587497652+587284060+589393456+591169817+591149297
4087+590221173+589856325+590375204+590642678+591261449+593132087+593876625
4074+592605335+591704119+591073669+589437852+587856499+587632002+588904776
4060+590782255+592003277+591943587+591211181+591136004+591342562+590372042
4047+588872770+588208764+588481400+589898333+592066580+593409176+593448797
4033+592508928+590437281+587815716+586659288+588071510+590018164+590332615
4020+590023778+590990749+593092789+594692340+594613743+593443183+593027033
4006+593606700+593867914+593693750+593516746+593842941+594887670+595783916
3993+596693391+597459870+596527229+594858696+593967934+593497581+593613540
3979+594009814+593804159+593513713+593809515+594441256+594802233+594975494
3966+595451074+595864255+595792950+595419520+595449010+596116565+596205163
3952+595333309+594190044+593056523+592569198+592472405+592396841+593609281
3939+595814826+596955961+595698673+592634760+591555444+593789253+595557483
3925+595952338+597017780+598235576+597986493+596534585+595923493+596650609
3912+598096128+600341810+601209277+597837237+592659475+590511748+591813884
3898+596189483+600851075+601921099+599841192+599578171+600577407+598096386
3885+594565346+594371887+595708482+598262743+601108676+601858506+599697873
3871+595058801+591808205+592758269+593250885+591769552+592621015+595734293
3858+597707598+595342859+587582830+586300053+592904751+599384003+603108889
3844+602803665+598468333+592136723+587841270+588550511+590864659+592679479
3831+595892003+600500101+603369393+602322600+597176199+591837372+593804095
3817+599027285+602737007+605610688+607902250+607793325+604151036+601398154
3804+601521986+600182036+598464655+599762338+602556260+605190667+607229081
3790+607945936+606923729+605638693+605899133+607227403+608434423+610657068
3777+613932830+615413712+613727047+609908529+606580820+605567001+606635412
3763+607768287+606726075+605297721+605585715+604578929+600423956+594441966
3750+592332957+594473715+596277823+599454598+604263898+606610955+605315982
3736+601351048+598944107+600896246+604096315+605473821+605348376+605883001
3723+606634638+606619344+607230307+608944526+609811283+607305935+604215694
3709+606508160+610565243+612279269+611753484+611462909+612724456+614066987
3696+615121330+615514700+613637028+611232217+612671542+614970267+615450623
3682+614342785+611998631+608349502+602397002+600655874+604521047+604666238
3669+603132636+606070652+609360675+610290800+609801410+608516956+606527906
3655+605444008+604324233+598648047+589286789+588084158+593173579+596800316
3642+597372239+595997379+593869656+591723994+590411534+589229810+585107811
3628+580704142+581286841+580958968+577339394+572700193+570068819+570757863
3615+571139166+569581366+568711963+568211732+567146677+566739304+566457247
3601+565906683+565379221+563969128+561486495+560428796+561642010+561343691
3588+557588283+555172244+555109199+554651170+553846555+553667938+553969290
3574+553833778+553067558+551436710+547898507+544794457+545519960+547392017
3561+548064735+547785581+547494619+547257926+546805124+546490286+545370445
3547+542607755+540674459+541335174+542602722+542918463+542528965+542188057
3534+542102168+541744418+540931317+540162032+539756433+539853389+540214043
3520+539991965+539519095+539694937+539420365+538219669+537821427+538177306
3507+537629356+535975697+534622035+534981237+536168188+536763567+537059595
3493+537709437+538089837+537451255+536508160+536240880+536349902+536730399
3480+537898733+539047096+538759102+537602221+537485423+538403513+539271690
3466+539806476+539330315+538167562+537946098+538961046+540638903+542230517
3453+543029582+543071978+542560261+541878897+542110105+543260339+543695911
3439+543240851+543707462+545246936+545791886+544955651+544238344+544097348
3426+544672368+545395934+544803040+544125289+545333018+547299612+548782300
3412+549871295+550381012+550228723+549401652+548659565+549614598+551942103
3399+554328976+556332221+557263572+557407214+557880601+558057604+557775676
3385+559622180+564594546+569376808+571726253+572844029+573651677+574763386
3372+576255561+577550469+579163313+581324978+584889122+590110376+594276191
3358+596831871+599431883+602435913+605882420+609146567+611333592+612673994
3345+614132807+616986935+621890641+626963027+629521869+630293317+632240035
3331+636519421+640848816+641823144+640332647+640886631+644693920+648500952
3318+649676546+648729515+647415635+646613407+646795896+647978330+648988664
3304+649257235+649116045+649127338+648987374+647154550+643948543+641099706
3291+639200288+638239254+637919641+637513752+636797348+635884646+633722917
3277+630250146+627853659+627474227+628078866+628968660+629084619+627105056
3264+624154133+623232333+624539502+625857125+626127244+625062770+623386623
3250+622540580+621887866+620115248+619117561+621536505+625039797+625163758
3237+621952267+618935783+618507696+619626697+619306890+617595962+616991775
3223+617489424+618540025+620045427+619887783+618283263+617578991+617291513
3210+617373917+619160151+621482687+621942135+620437055+619331089+619531258
3196+619481055+619210677+619647863+619911142+619315860+618852992+619692259
3183+621299747+622219740+622190638+622227806+622922593+623305445+623128893
3169+623563691+624772453+626239460+627717051+628578904+627769320+625931462
3156+625616108+627060014+628050474+628191147+628834246+630028489+630652938
3142+630683848+631089349+632291013+633988971+635309175+635263552+634058146
3129+632826993+632395873+633133055+634583801+635303367+634767387+634088023
3115+634240699+635880904+638590487+640461189+640802743+640400467+640326001
3102+641103707+641747451+641320654+640303480+640268311+641937683+643655451
3088+643334225+641383119+640146222+640246178+640758927+641259803+641627620
3075+642642536+644563442+645275394+643595633+642150952+643375911+645560806
3061+646311281+646032257+645696124+645215768+645016050+646073556+647404084
3047+646710459+644978043+645034570+645891970+645545577+644967331+645215123
3034+646435887+648412999+650029973+650474773+650397596+650488582+650085920
3020+649119788+648536250+648387316+648530829+649259364+650535108+651970044
3007+652805182+652352380+651689149+652869130+655181471+655800887+655248969
2993+656169801+657779031+658268098+657988235+657833365+658669987+660469643
2980+662482052+664621519+666603083+667786936+668499339+669046611+668758876
2966+668382993+668659242+668059701+666800284+666357807+666813254+668158173
2953+669064938+668387639+667791453+668628462+670451090+672262620+673197197
2939+673244303+673003738+673169643+673942187+674644072+675188182+676109144
2926+676737658+676596856+676505869+676022287+674212565+672270815+671246736
2912+670850591+671395024+672633276+673287796+673247078+673238044+673707688
2899+674513464+674953618+675198894+676122501+676970286+676468378+675922073
2885+676644994+677327004+677561503+678437617+679317473+679575009+680108021
2872+680495519+680204040+680237337+680797967+681853343+683265630+683986874
2858+684172847+684350109+683972677+683386945+683162641+682405068+681344401
2845+681857925+683454765+683919763+683440117+683362682+683055781+681984402
2831+681781522+683198197+684781938+685920428+686783506+686883914+686893335
2818+687602705+688686216+690360620+691843890+691665208+690594087+690014098
2804+690372558+691687922+693055233+693321287+693007287+693665550+695138237
2791+696202324+696796832+697052496+697249117+697861564+698334822+698731676
2777+699454598+699602047+698891967+698596230+699728718+701244252+701428289
2764+700724210+700760605+701989822+703588793+704740575+705070771+704634489
2750+704192012+704157682+704327007+704963653+705923912+706136407+705419487
2737+704530081+703946220+704226406+705457882+706812738+707842496+708370926
2723+708228381+708190373+709343446+711077476+711603841+711344111+711883446
2710+712689674+712794083+712146403+711337722+711718767+713527458+715274006
2696+715873676+715827473+715973955+716358420+717097538+718332563+719147955
2683+718902679+718409740+718235898+718254483+718738839+719627213+720439959
2669+721264062+721629814+721010849+720521976+720826425+721473524+722107717
2656+722366867+722620015+723078947+723150639+722602657+721614004+721040662
2642+721447454+722420878+723793286+725157950+725797177+726135439+726735884
2629+726844938+726373939+726701102+727917285+728650144+728610394+728601101
2615+728784881+728777524+728738097+729239425+730368235+731524341+732288819
2602+732662120+732359607+731469362+730800000+730714628+731378376+732699483
2588+733702009+733950898+734030527+734477199+735060995+735086678+734965943
2575+735641952+736740239+737533304+738032373+738035019+737242600+736299892
2561+736244719+737028556+737554082+737943968+739055226+739971412+740084016
2548+740633676+742006019+743058298+742941629+742015570+741483720+741941684
2534+742324084+741950008+741681824+741441001+740984070+741573738+743069139
2521+743765022+743638286+743855815+744314746+744254024+744279126+744956167
2507+745431296+745475950+745782400+746533649+747317421+748017564+748892580
2494+749391391+749134436+748572128+747891731+747612772+748147719+749136501
2480+750101987+750513038+750677782+751376311+752147306+752363479+752380966
2467+752538934+752651537+752472856+752335215+752649795+752733941+751820207
2453+750756572+751011914+752045221+752234485+752240035+753107630+754252314
2440+755379576+755714160+754703890+754230181+755143270+755964017+756245171
2426+756511677+756852907+757088891+757039720+756876267+756927116+757107282
2413+756722623+756157669+756812189+758070445+759027156+760317805+761244510
2399+760848365+760624384+761593290+762278204+762067128+761664079+761011365
2386+760634386+760803194+760292252+758696185+756458956+754039110+752026378
2372+749781922+746648124+743701590+741825595+740797193+740150739+740433958
2359+741767842+742221999+742310081+744833110+748691701+750698947+750242338
2345+748855089+748820307+749964282+750034683+749680224+750091856+750430247
2332+751000621+752515768+753973484+754607483+755312014+756811092+758676439
2318+760166097+761024788+761980143+763372942+764846403+766498287+768415580
2305+770356426+771665079+772071549+772569198+773408917+773811192+774301937
2291+775631111+776946410+777195945+776470894+775432748+774507076+774121578
2278+774596836+775283556+775279039+775087323+775809018+776947249+777366689
2264+777260022+777311968+777441414+777663975+778885901+780925154+782210061
2251+782150436+781314008+780698334+781206115+782281882+782301692+781538118
2237+781687955+782866065+784100574+784338364+783530264+782894716+782789662
2224+783011449+783489417+784156198+785510990+787211658+787989106+787911477
2210+787466613+786528422+785798145+785981601+786731818+787639422+788277358
2197+788053119+787351622+787595929+788894580+789545809+788723320+787830945
2183+788529732+789907044+790242209+790276668+790928478+791674371+791910096
2170+791246929+790572470+791136455+792362705+793437310+794036077+793806675
2156+793521263+793932249+794398538+794328846+794222954+794554118+794604967
2143+793885982+792993155+792520285+792955083+794044530+794631036+794382986
2129+794099703+794522756+795809147+797370755+797809618+796755404+796044033
2116+797013004+798699218+799545713+799361224+798882288+798626816+799088910
2102+799890363+799843257+799522676+799814283+799693743+799100396+799215065
2089+799739171+799744656+799546552+799729944+799634569+799079941+799229068
2075+800622383+802520317+803507227+803572208+803629639+803204134+802448432
2062+802675575+803705784+804043143+803401529+803190647+803966934+804640425
2048+804618808+804492653+804583446+805002757+805546416+805370961+804898091
2035+805413873+806827192+807545080+806872234+806272435+806561332+807142934
2021+807744863+808075188+807944581+808270841+809486572+810332679+809888524
2008+808879480+808961755+810484904+811511241+811059343+810641387+811247381
1994+811836275+812024055+812974958+814186624+814507398+814961878+816098367
1981+816063586+814150358+812405552+812323342+813070977+813152478+812846738
1967+813422275+814537598+815257228+816039903+817579765+818937976+818450264
1954+816586402+815458108+815789401+816983579+818212732+818250417+817486972
1940+817828073+819150987+820360136+820613736+820013421+819949020+820828102
1927+821626910+821088349+819618566+819059033+819258041+820084080+822373255
1913+824573186+824643265+823178257+822469855+822727004+822744169+822960536
1900+824157295+825412260+825329340+824200852+823192260+822915688+824329265
1886+826215649+826515516+826570172+827551533+828260193+828188759+827720213
1873+826989290+825092453+822111718+822531416+826743563+829338283+828630204
1859+827560051+828064218+828863864+828912971+828848635+828842053+828368667
1846+826851584+825944949+828351309+831309071+832348702+832609335+833092853
1832+832069484+828839730+827816039+830026423+832218546+834408217+836263497
1819+836346998+835463076+835238837+834993755+833670454+833303154+835141656
1805+836490511+835521346+834150939+834551472+835477789+835214832+833407110
1792+831715283+833238431+836309894+838164916+838812531+839067938+839096395
1778+839240812+838942751+836618924+831767164+829407007+832587460+837450061
1765+840282572+840345940+840418083+841542118+841590193+841794621+841616198
1751+837998882+833785768+833723755+835813019+837091149+835976278+834201401
1738+834727056+834558441+831431612+832379288+837385274+841745450+843988228
1724+843925119+843327384+841465716+834274319+828042472+833742662+841590322
1711+844236408+842060675+836835936+832385032+831295520+829330411+825795757
1697+826002444+829988222+836163025+840431376+840319354+837568149+833063234
1684+828536120+830484645+834584769+837150323+837144709+835307045+833064008
1670+830098825+831008752+835782045+837413408+836050551+836853230+837661459
1657+834672012+826022835+815314014+816137472+816896142+814325426+818746776
1643+825947659+827704403+824315521+817807876+813041810+818090127+825643597
1630+828457137+827472291+826734851+826699166+829206257+833971806+835663698
1616+834654848+837873050+842632792+845437362+848300201+851972303+854616324
1603+856694617+858923393+860767961+862413328+864225502+866002509+867659361
1589+869434948+870676749+870374881+869805669+870739665+871962236+871449938
1576+871361920+874169071+874967427+872497054+872481567+875307045+876644736
1562+875155078+867449319+856834323+861446034+869847096+876214842+880563855
1549+882899426+882328536+877281188+868554382+858515116+859151568+870131864
1535+877789291+881646010+885423359+887654586+886470217+883603311+880731954
1522+878913713+881028207+885178664+890014614+895188311+898372958+897709146
1508+891409478+888368473+899170410+909078037+912872743+910864077+907953615
1495+909460953+911065344+907725697+902903750+904992432+910876531+915085645
1481+916416625+915857156+913020580+906553137+899866487+901070539+907977232
1468+911773552+909426495+906074910+906282824+903942154+894548697+890350360
1454+899090588+908614717+914301356+916084945+917525366+921425966+925985086
1441+928250578+926391104+922322083+923587373+928621944+932086971+936253043
1427+940766477+939711811+933801900+928569353+924736961+924119416+926273209
1414+926416657+925312820+925355861+924933582+922290335+919921273+918715544
1400+915325823+911520275+910876209+911618101+913126924+913975806+910258599
1387+902216965+898098451+900808356+904587640+905605976+904483426+902204446
1373+901138294+902597881+904635457+905139559+902749848+899069422+898119939
1360+900417180+902634082+903837230+905665214+907202301+906789055+906880364
1346+908356084+908218120+905005145+900553466+899003860+901320718+903950543
1333+905759040+907345039+907593864+906795315+907439446+908984469+908999505
1319+909020090+911948233+916238589+919171701+921709249+925622431+929663833
1306+932893070+935989635+938298878+939920563+941982272+944332427+946759501
1292+949943180+954356980+958476011+961050147+963258402+965579519+967201978
1279+967671170+967043559+965780076+964193108+962552194+962437719+965050896
1265+968654080+971358242+972427685+971283194+969631375+969511867+969947117
1252+970434699+973606699+979008958+982436751+983471736+982751654+980162805
1238+978830535+980666069+983910470+986527712+987530303+986678388+984624422
1225+983458895+984229374+985596232+986366002+985754264+984306938+985243709
1211+989023316+991375278+990618221+988947688+988608264+990453155+993023290
1198+995407065+997335457+997237824+995328016+994083376+995732486+999049418
1184+999378969+996448502+995624335+998628816+1001615359+1002624532+1003112566
1171+1004475424+1007693110+1011405284+1012671928+1012437429+1012307661
1159+1010831683+1009159731+1009095976+1008854120+1008439262+1009354803
1148+1012000050+1017287899+1021494754+1019064066+1013966514+1010633320
1136+1008463073+1009629568+1013389429+1015680540+1016938021+1017617966
1124+1017184716+1017089665+1016174124+1011800461+1007767254+1008708026
1113+1011900288+1012104135+1007802423+1004386180+1007980201+1015003563
1101+1017013198+1014024784+1013909147+1019095814+1026660578+1035585617
1090+1039759820+1034453000+1028436422+1027324906+1028002915+1028831922
1078+1028833019+1030023584+1036383005+1043696620+1046455826+1046789765
1067+1045792724+1042052544+1039832351+1044853759+1054125708+1059026252
1055+1056821352+1051857117+1048647239+1048233413+1048651434+1049131660
1043+1049551552+1049171281+1050891824+1052529706+1047784806+1043661839
1032+1047731247+1054644781+1057419796+1054344204+1049377517+1047741378
1020+1048901872+1049897752+1049300791+1047458353+1047754671+1051005267
1009+1052658893+1051295842+1049322667+1046498996+1043025516+1042418619
997+1046020641+1048987373+1046907531+1044008361+1044653202+1045628045
986+1044796199+1044216210+1044234923+1045203701+1048366344+1050305189
974+1046675613+1041761324+1041801590+1045211122+1047926770+1049558715
962+1049866068+1047413505+1043734434+1043054877+1048175789+1057952356
951+1068286714+1073741823+1070792191+1062483922+1054474294+1048826760
939+1045947594+1046027288+1048344404+1050705722+1051782780+1052750525
928+1055274586+1059807056+1062901491+1060136090+1054493202+1052808343
916+1054837981+1056533164+1059355674+1063500774+1064741607+1063730821
905+1062543418+1059978123+1057634614+1057889698+1058649982+1057298417
893+1053270179+1048858960+1048449586+1052793824+1059795892+1067023619
881+1070218914+1067036331+1061693891+1059736719+1060528105+1058917585
870+1053207069+1047762737+1045942754+1046746530+1047860628+1047190427
858+1044952230+1041946006+1038893902+1037495037+1036318863+1031687212
847+1024534468+1019321796+1016159024+1013945477+1014394214+1013834487
835+1007589928+1000894244+1000260374+1002432557+1000889211+996288921+992454013
822+991920872+992569779+990094566+987269411+986930891+988261096+989717844
808+985705867+977141353+973914891+976008348+974053435+967623354+960933156
795+952469823+943818581+940389949+944153617+952670315+959525386+960402532
781+956805994+952428911+949649379+945939980+938163561+931055535+929907173
768+930815229+929726039+928281488+925756910+921966785+920101051+919267785
754+916734754+913765506+913340903+913835971+908802303+901582126+902049834
741+907218369+910309255+911323074+907454223+899347285+894134161+894008652
727+897829944+903228848+905496535+903171869+898599907+894289418+891903127
714+891445679+892425814+895446557+899094847+900062592+898469300+892403680
700+881341303+875662149+880352715+886362582+884556215+876056874+868818049
687+867800293+871013333+872759172+871040500+870099535+872800600+876639832
673+876133793+869299824+859955086+855875870+859793698+865584166+868307364
660+865322306+862808892+867972070+875760492+875905682+871065602+871936618
646+880000257+887337683+889894525+891718380+888098806+872886424+857928545
633+853626703+857996882+865563839+871441227+865110521+843677455+824427608
619+814214952+811415093+817814458+831212084+856557621+884931388+900647678
606+911946426+904479554+862031702+822308403
##END=
