##TITLE=Sample description
##JCAMP-DX=4.24
##DATA TYPE=INFRARED SPECTRUM
##DATE=25/8/2023
##SAMPLING PROCEDURE=Instrument type and / or accessory
##ORIGIN=Default
##XUNITS=1/CM
##YUNITS=ABSORBANCE
##RESOLUTION=4
##FIRSTX=4397.6552
##LASTX=599.8556
##DELTAX=-1.9287962
##MAXY=1.9915076
##MINY=1.2284956
##XFACTOR=1
##YFACTOR=1.854736e-009
##NPOINTS=1970
##FIRSTY=1.304949
##XYDATA=(X++(Y..Y))
4398+703576693+701155533+698633335+698180082+698676334+699658552+699179590
4384+696094041+694822851+698524714+703663719+706611982+705352490+700936748
4371+698701786+699762546+699909666+697199985+695244353+696936530+698318655
4357+696813126+697819061+703489089+706964004+705525191+705255630+707716705
4344+708058379+706040724+704559233+702591711+700564929+701341474+704113758
4330+706011351+705859860+705111916+704768570+702956588+700341195+701061694
4317+704682252+705828816+703213359+700963742+700701637+701136251+703058075
4303+705707212+706556771+705939494+703627469+702620312+706635120+709550539
4290+707370916+706061806+707545160+708060243+707601913+708413166+708695774
4276+706763923+705137175+705769428+706983672+707096214+708403075+713124756
4263+716276700+712794650+707952393+706381049+706433110+707282734+706716425
4249+704266342+704668176+707838116+709303667+709959122+711801955+711842961
4236+710170066+710347395+710633088+708583682+706350841+705871943+707159780
4222+709532157+711615371+711842383+709135786+705424732+705229278+708107741
4209+709206551+709163038+709649263+708285905+707562000+710008162+712125312
4195+713823081+716244499+716131314+712897873+710494966+711408091+713551271
4182+713465595+711816224+711172980+711720971+713768321+716925149+717051510
4168+712849282+709843367+711219386+712752873+711724635+711283209+712074794
4155+711447619+709606071+708013453+706901274+706760838+707639834+709363312
4141+712399822+716783942+720218429+718706859+713980357+711272475+710441555
4128+709242415+708365411+709719577+712709810+714904152+715503497+715409851
4114+715284390+714550972+713878870+713837028+713608474+714011337+715958677
4101+717719498+716480059+715452850+719055475+722157864+720369985+717370046
4087+717244971+721022162+724018115+722252988+720750673+721266913+718736103
4074+715184767+715259195+717505919+718712193+716668507+713128163+712736612
4060+716137870+718948718+718263376+717214313+717722969+716739529+715112653
4047+716133693+717988030+717998121+716436418+716137485+717838981+717056844
4033+714401602+715123194+719173094+723021499+723396853+719969500+715892091
4020+714767315+717212770+719429672+719339047+720025932+723005560+724657823
4006+722600769+719231261+717652461+718739124+721173782+722886076+722072895
3993+720325765+721084507+723469996+724209070+723397624+723229165+722438480
3979+720482719+720676566+722566833+724037911+724720682+723155958+720959367
3966+721348154+722706883+722458469+722541316+724482487+725852785+725486623
3952+724736686+723263423+721491483+722989427+727061181+729285923+728556618
3939+726217213+724783156+725023472+723007102+720395051+722541188+725032663
3925+722931839+719718771+719699875+721820303+723784162+725306273+725440025
3912+723616988+723210012+725864612+726821314+721293651+715530941+716752834
3898+721658528+725822963+727334212+724651525+721382347+721640210+722126113
3885+721793308+722888519+722931453+722329409+722994119+722096676+719286665
3871+717179284+717947796+721402915+723616217+723472245+724711491+726785450
3858+725400304+719512391+712938686+715006089+722307749+728018718+730089206
3844+729582350+729842334+729586528+724370716+720514599+722894689+727083805
3831+730942879+733988065+734474290+731462525+723519293+715138426+718525095
3817+725815893+727345203+727757706+729911299+731698471+730602232+726307645
3804+721514428+719331527+722817176+727485125+731157229+734540684+736503386
3790+736250086+734821556+734235709+735017010+736270332+737425252+738199291
3777+738077365+736884974+735322757+734623082+736162868+737036980+734208650
3763+731016279+728839291+727052375+727327849+728062103+726889186+725127530
3750+727937413+733665094+734540491+729228399+727547277+728821101+727707573
3736+724729038+723558050+725348115+729233284+732826075+734949267+735440826
3723+733926749+733395276+736189605+739624671+740648475+736456595+729511521
3709+729291643+733505826+737039036+737611772+735293191+735072735+738049278
3696+740827860+740793410+737196119+732012509+730069474+732481958+736940506
3682+740868995+742190382+739360895+729569560+723023685+727639765+729988105
3669+727602616+730214731+734367661+734681570+732351163+729918690+727405940
3655+726478225+726691804+721494311+710198346+707632378+712357466+716282034
3642+718890486+720559975+719699104+715955464+712224164+709632744+706158858
3628+704370400+707237421+710192819+709748564+703533116+696556034+696790309
3615+698610068+696046993+692362934+690349456+689910215+691246449+691979482
3601+691466712+693379796+695781610+692786042+687307805+684521253+681937096
3588+677854095+678058483+681803730+682669614+680982129+680641161+680988878
3574+679755866+677384774+674685376+670937494+666839003+665759282+667574092
3561+670319767+672633720+673763381+673045902+670699748+669172174+669298341
3547+669104173+668090846+667262883+667006048+667143528+666210799+664804701
3534+666103014+669008342+670703604+671377827+670906835+669094661+667780665
3520+668053825+668839947+668889052+667368547+664835487+664269436+665470311
3507+664981580+664782334+667920137+670111844+668390744+666579276+666692525
3493+667713307+667999322+665828054+663761294+664019286+663655501+662356031
3480+663020163+665422813+667380759+667828870+667739402+669335170+672098391
3466+671854218+667771088+664383070+664563163+665741928+664779699+663301421
3453+663819333+665936354+668556761+670480706+670283003+668388880+667288977
3439+668579835+671756716+674611398+673864032+671196449+671449427+673561050
3426+674932569+676363863+676410268+673289432+670922454+671731521+672401245
3412+671757873+672165749+674157502+675873525+676206330+676987182+678823844
3399+680321982+682290147+685322350+688520249+689938559+687355624+683788798
3385+685004649+690723525+694619620+694431493+694382132+696266356+699064992
3372+701818508+703447569+705407379+708323826+710354851+712269091+714764358
3358+716319506+717405139+719945205+723807107+728077400+733199437+739106953
3345+744350466+747358117+747938694+748750397+751795840+755908857+758908088
3331+759746143+760270545+762234147+764628056+766648154+767061686+765121029
3318+763906271+765726802+768799304+770895886+773000374+777224390+780998432
3304+780341112+777104264+775023236+774245084+772683316+769432521+767117667
3291+768301189+771100531+772401736+771227535+767148840+760958523+756611681
3277+756459033+757682147+758323590+757773285+754880040+754350431+758708585
3264+760036142+754763771+749723553+749695787+752576692+754741725+756007837
3250+755941058+752977176+750137920+750408445+751199259+750879566+751059465
3237+752108271+752520710+750427020+746768092+744380995+744742338+747135797
3223+748206712+747277711+748152659+750198080+748380056+743904669+742206836
3210+743161160+743990280+744971599+747235291+750175134+751377745+749540118
3196+746009800+742452165+740250561+739749039+740372487+742100207+744111049
3183+745677959+747701656+750236451+751749371+750679227+747895953+747297186
3169+750371360+752400648+750025186+747761494+749222674+752110328+754220279
3156+754837813+754289565+755112194+758105834+760404040+760569929+759488344
3142+756593813+752691676+751873932+754420425+755873828+755432659+755110909
3129+754924774+755438508+756924047+757476859+756106560+754495110+754608230
3115+756591885+758656010+758212141+756095762+755410677+755937908+756966275
3102+759935812+764191065+766305515+765419320+764081736+764222944+765825011
3088+766832231+766345300+766277942+765946872+763742182+762467779+764416405
3075+767501955+769188669+768344637+765806950+764544180+764416984+763316632
3061+763186864+764630820+764830387+765157986+767967162+770326300+769936485
3047+769016868+769808453+771649486+772512800+771901822+770519311+769013718
3034+767592580+765661372+763846369+763482713+765055471+769366962+774596464
3020+776291597+775324033+775871060+777401912+777869626+777137493+774930233
3007+772571288+772345112+773068825+773096205+774379735+776989151+778315102
2993+778297427+777129588+775628558+776920894+780315789+782230093+783229794
2980+785372139+787231490+786203445+782798394+780773926+782287875+786450510
2966+791194108+792672771+790424247+789063461+790087200+792375894+794587461
2953+793833990+790163492+786596602+784974225+786132038+788450876+789422040
2939+790131034+791862996+792472496+790404258+788269369+788268598+789427953
2926+791700257+794732653+796042278+794704630+792410794+790796773+789422618
2912+787827493+787380989+788250473+788728985+788828865+789582272+791268086
2899+793363769+793328162+791147639+790308620+791510588+793009625+793534542
2885+793792276+794855929+795512091+795300505+794660603+792927292+791365395
2872+792022072+793709814+794975476+796276874+796831164+795529445+794649549
2858+796599010+799260552+800334359+800096035+798300250+795584205+794070514
2845+794804960+797682652+801681712+803816730+802335111+800103748+799748126
2831+800754254+801935847+801861034+799858483+797855224+797480513+798236106
2818+799561735+800557258+801588388+803429550+804180643+803813645+803943990
2804+804561717+805356002+805156499+804072600+804154870+805585970+806990462
2791+807266129+805987676+804853259+805824552+807689109+808900203+809542804
2777+809053623+807609860+806768335+807519043+810130323+812965722+813382018
2764+812006706+811511098+812102344+811609885+809757668+809399797+811315772
2750+812450061+811361342+810722083+812571665+814845705+814997775+814335764
2737+815280511+816711355+816379064+815322417+815694236+817133885+817366103
2723+816237278+816556778+818513310+819318971+818560808+817659573+817470804
2710+817648968+817419000+818056137+819894407+820396828+819047033+817697108
2696+817150275+817668379+819069528+819747157+819393142+819273595+819575356
2683+820206002+821350767+823164612+825109896+826362576+826833696+826098607
2669+825076153+825552287+826761903+827280778+827392549+827567821+826907996
2656+824639290+822308883+822842862+826324012+828837661+828849745+828766383
2642+828997251+828184906+826570563+825373865+825623566+827747850+830316710
2629+830622713+828677493+827722462+829036136+830796828+832427175+834568234
2615+836460172+837281708+836509983+834535262+833680432+834195773+833991578
2602+833144075+832782990+832421905+832256530+834030848+836440119+836237145
2588+834718440+835123295+837270910+838447683+837479733+837024488+838407705
2575+838860572+838375055+839012835+838440742+835712806+835039355+837914346
2561+840455762+839447255+837054696+836938684+838325500+838612415+838883968
2548+840683224+841611132+839702226+836969470+836382466+838167132+839871200
2534+840539574+841020849+841214118+841335337+841803950+842039511+842056607
2521+842014316+841486828+840520099+839825373+840828609+843133693+843954329
2507+842858090+841820726+841768343+842586280+844016803+845227576+844914502
2494+843361733+842299237+842681790+844528222+847060896+849103554+850055371
2480+849719417+849069039+849590871+850393511+850093421+849529683+849253502
2467+848971730+849018392+849463225+850189316+850740649+850220167+848910606
2453+847028824+845155719+845225198+846537072+847176780+847920225+849400880
2440+850714362+850706584+849079451+847924660+848699020+849287053+848993968
2426+849921491+851985615+853565765+853431113+850956863+848002623+847391645
2413+849397281+851809765+853036992+853491658+853430471+852654825+852605656
2399+854119862+855084213+854487696+853512097+852655404+852583482+853589996
2386+854389165+854384666+854132202+853231739+850687431+846771475+842243834
2372+836733203+830260278+825279641+823426460+822445913+820792363+820242766
2359+821147600+821929223+823141024+825879629+829615813+833075817+834954900
2345+834823269+832746161+829725849+828036307+827258669+825761752+824994077
2332+827983860+834357740+839607809+842064963+842785976+841968039+840919748
2318+841456298+844752020+850052865+853810452+854002885+852684583+852687347
2305+854903799+857802893+859297238+859190416+858835116+859561785+861505719
2291+863412954+864452504+865521170+866993855+867364324+865972880+864221957
2278+863550177+863240445+861978447+860905282+861573977+863438406+864833257
2264+865345640+865798572+866181060+866531733+866982286+866911779+866127392
2251+864899329+863732776+863589962+864756451+866157729+867129150+867306093
2237+866489570+866235370+866518300+865784560+865318646+866490020+868234579
2224+869134464+868806544+868312864+868469304+868518087+868342558+869079704
2210+870186355+869766074+868438903+868330925+869368546+870401669+871060338
2197+871090932+870260526+869228817+868875766+869223161+870052153+870773809
2183+871520211+872913005+873540501+873494032+874622022+875688823+874924297
2170+873559462+873460931+874274755+874336007+873582150+874118315+876211234
2156+876558822+873763528+869982096+868097807+870168873+874582558+877362490
2143+877264088+876011345+875194500+875053357+875057856+874973530+875040181
2129+875214425+875776363+876787890+877051216+876179676+875050465+874645160
2116+875736835+877354135+877390513+875998683+875093014+874944864+875061648
2102+875991163+877030713+876821119+876245298+875893597+875323818+875628407
2089+876566342+876053636+874660071+874135411+874696000+875712862+876551494
2075+877506719+878505905+878979082+879620462+880779302+882024719+883318661
2062+883734057+882250895+880335755+879638715+879560110+879595974+879486967
2048+878458986+877200394+877125709+878427492+880166075+881214237+881614658
2035+881859602+881309683+880092354+879582155+879995044+881259100+882802100
2021+882713981+880857073+879373461+880223020+883179317+886083682+887174779
2008+886328176+884771229+883707898+883310370+882954748+882574831+882995175
1994+883646389+883529669+883781233+885119138+886572349+887318172+886881759
1981+885592444+884449800+884008888+884309621+885047602+885724910+885608127
1967+884772579+884846621+886088759+887327298+888403805+889528003+890805491
1954+891666556+890979221+889625891+889705268+891172361+891579080+889926945
1940+888639366+888639559+889277146+890398901+889749680+886643178+885193759
1927+886799168+888086747+888415503+889761249+890286488+888955331+889164861
1913+890642431+890750602+890450833+891346798+892746341+893719304+894023122
1900+894105070+894022351+893028177+891597912+890734791+890506430+891767464
1886+894069399+894892285+893760567+892616895+892964740+894105906+894713863
1873+894983231+893898111+890190978+888623297+891915742+895660089+897191905
1859+897521368+897874484+898071609+898405249+899289452+899138603+897032316
1846+893540368+890687743+892735286+897191648+898847640+897949619+897683722
1832+897796392+896191947+894227124+893819891+894276293+895708808+897279252
1819+898191735+899500588+900738099+899614801+896752407+895972134+898058818
1805+900093249+899780368+897572658+896270810+896640508+896967143+896696233
1792+897289536+900094663+903016060+904170530+904089289+903403175+902092522
1778+901391883+900607882+896630289+890796879+891148580+896780430+901860754
1765+904103879+902369474+899958469+900483707+901484115+902461899+902728760
1751+898936015+893242592+891834437+894073962+897761492+900424319+900210804
1738+899000288+895348622+888326807+889505122+897982205+904581812+907387389
1724+907427303+906071530+903004426+895305817+888800177+893480144+901054065
1711+905215093+905080891+901259931+897415832+895125081+888675937+880144350
1697+880276238+887338675+895948674+900657437+900471302+897315181+889075843
1684+881411748+887999465+896013076+897938050+895324070+892946808+892263008
1670+890345169+891084950+895303053+896210072+892877907+890984813+891871715
1657+892463154+887106842+875150409+876319662+879741359+876952815+878112555
1643+883886255+886499977+884312385+875950093+866713882+871355286+879478547
1630+880560260+877662452+877767474+881233326+886231124+890394595+890262000
1616+888705374+892553715+896422430+897085469+898489383+901923870+903799225
1603+904007277+906039393+910516966+914923645+917558513+919103184+920858349
1589+922818030+924548836+925814883+925825874+925028826+925174082+924851947
1576+924158249+926580888+926217296+920451180+918126365+920736166+922451160
1562+921400620+910663508+892590736+898468237+911462742+919574241+923376948
1549+925585108+927004704+923177187+912231703+902438439+909159072+921941476
1535+925973445+924699298+926830845+928953266+925844385+920650169+916828309
1522+915398686+919528221+925077994+928928006+932327144+935006938+935213190
1508+927790633+917938495+924957933+935595935+940996017+939999466+938195004
1495+942304228+946456708+943164907+935873852+937218120+943847485+947342453
1481+946850765+944449851+939888338+933164041+926601327+925882241+931565959
1468+934790853+932229834+930708237+932278939+928498149+916682345+913103693
1454+922627782+929366862+930589911+930529816+934450849+939606244+940698819
1441+939721164+938554803+936677456+939217393+944638106+946264211+945587931
1427+946297761+945371074+941543365+939004457+938015811+937328283+938760155
1414+941471251+943687703+944516502+944239614+942697964+940169853+938077770
1400+934720281+928485809+922243173+920082061+922528866+924938651+922391001
1387+915982284+914358108+918178233+920854557+919334374+914538329+909830788
1373+910132485+915212745+920410303+922757678+920568607+915364365+913069886
1360+914933158+917020228+918321240+918835231+919892327+922448847+924294379
1346+924273619+922806718+919817514+916918548+916659464+918827968+921418488
1333+922554511+921419773+920203987+921023016+922984883+924874892+925962775
1319+926811049+928895741+930156390+929578127+930771353+934809942+939366635
1306+942801058+944550759+946180013+949763550+953362897+954338174+955298347
1292+959115709+963227825+965290793+967914799+971513054+972499579+971409317
1279+971974276+975032510+979049246+981752565+980904483+977707356+976395996
1265+977027220+976400045+976086072+978399961+981007320+982123548+982477434
1252+983776711+987116911+990188577+989933221+988409760+989236117+990531602
1238+989838161+989637244+991698477+994469539+996293604+997308281+997804853
1225+996349265+994287711+995243578+998882196+1002439188+1003815078+1003248833
1211+1002413993+1001161121+1000331486+1001846013+1004040676+1003583567
1200+1001355932+1000959304+1002551344+1004278357+1005135436+1004763746
1188+1004332603+1004524329+1005814544+1009395252+1012192667+1010294880
1177+1007504343+1007518162+1008056962+1007923145+1007487568+1007822365
1165+1010749097+1013989416+1014643650+1014771874+1016472728+1017814040
1153+1017451926+1017160706+1017560226+1017642303+1017433801+1018684552
1142+1021298339+1022399784+1023001635+1024741632+1024363900+1022363984
1130+1022385579+1022403769+1019372787+1013920515+1008351717+1007129953
1119+1012297110+1017987898+1018861688+1017975044+1020174784+1026396788
1107+1031498707+1030740351+1027660457+1025663177+1024505879+1023419345
1096+1021801403+1020582853+1020852670+1023247672+1026461318+1028149831
1084+1028035683+1028244570+1032028638+1037982238+1040537536+1040204731
1072+1042921547+1046600400+1044437488+1040912440+1042811190+1046598664
1061+1045533855+1040946697+1039978040+1043961675+1049574050+1055392356
1049+1059020626+1057219892+1051249131+1047035013+1047757119+1049517555
1038+1049969393+1050343269+1049146314+1046399290+1043796558+1042895773
1026+1044579209+1046718662+1050518091+1055763018+1055176528+1049290735
1015+1045612397+1046574948+1050585578+1052519228+1048587718+1042635854
1003+1038548225+1038425271+1043187765+1046870153+1044353290+1041316266
991+1043658564+1047374181+1047270124+1045311021+1044940295+1046764746
980+1048066079+1048547419+1052708062+1058995174+1059114979+1052772785
968+1047152118+1043637740+1042517206+1046323576+1051825145+1054641841
957+1055270623+1056164724+1058624062+1061155387+1059381840+1052135198
945+1047015346+1047788935+1049720528+1053653517+1061112324+1064009554
934+1060743076+1058265162+1056252649+1054015052+1054441245+1056628324
922+1058008521+1058552077+1059295521+1058675095+1058659155+1061693351
910+1061543659+1057915325+1057439255+1058600217+1055519809+1049096760
899+1047701716+1054225610+1061892083+1064017010+1060604696+1056822107
887+1056837404+1062286204+1070441602+1073741823+1068917498+1058339783
876+1046991822+1041357530+1042175531+1043773934+1042878870+1041795100
864+1039993337+1035287788+1032718864+1034544279+1035489477+1034428588
853+1032131281+1027331252+1022331397+1020642177+1021798961+1023657219
841+1026214445+1029410095+1030496628+1027107775+1019870516+1012912587
829+1009251152+1006065208+1001770492+999921489+1001196664+1002623522+1001221280
816+995278028+989186177+989864385+993147702+990211973+986802552+987339873
802+982783823+973480962+968303714+967018256+971400448+988204344+1002659708
789+992523419+973209409+963527787+961482816+962583168+961723196+956092761
775+949988055+945755491+942255831+940310675+941012021+942043923+941363401
762+939926323+938341739+936004968+931856987+927220596+925923826+926873265
748+924484306+919011788+916251267+918447858+922237453+923348925+921788314
735+919849843+916536253+910513688+905117398+905290357+910645319+915067745
721+913898749+907855939+902995042+903941268+906667790+907202026+907002330
708+905878711+901501019+894349436+889650057+889676923+891975387+895969884
694+897990111+892789082+884151188+879074014+878829198+881828686+886901940
681+889424331+885733844+879760063+873672389+868048509+866241026+866866081
667+867737236+874456840+888710773+903882330+906595033+895824435+885223260
654+878936277+873532146+870123046+870062822+872433336+876050680+877391220
640+869230745+851073968+836650484+831776669+830511521+836969792+846952853
627+848665598+853397241+862177307+854524396+851306058+866707648+868836624
613+861339510+854689384+831890817+813899158+822177959+844711721+868736422
600+883093706
##END=
