##TITLE=Sample description
##JCAMP-DX=4.24
##DATA TYPE=INFRARED SPECTRUM
##DATE=25/8/2023
##SAMPLING PROCEDURE=Instrument type and / or accessory
##ORIGIN=Default
##XUNITS=1/CM
##YUNITS=ABSORBANCE
##RESOLUTION=4
##FIRSTX=4397.6552
##LASTX=599.8556
##DELTAX=-1.9287962
##MAXY=1.838356
##MINY=0.6638937
##XFACTOR=1
##YFACTOR=1.7121025e-009
##NPOINTS=1970
##FIRSTY=0.75257158
##XYDATA=(X++(Y..Y))
4398+439559898+439841541+439641814+439089181+438751454+439115953+440516126
4384+442004029+441641967+440299968+440059823+440731901+441549362+441643777
4371+440387594+439211587+439445918+440337636+440920452+440859842+440347036
4357+440456455+441364258+441941504+442025962+441953584+441410003+440478388
4344+440095159+440809710+441539545+441531955+441785434+442615288+443421748
4330+443879479+443782070+443591221+443668960+443202909+441739584+440335373
4317+440121582+441082093+442407277+443327020+443793733+443863047+443322599
4303+442596280+442356657+442500891+442488462+442255384+442176949+442301443
4290+442385065+442606063+443100801+442997926+441857464+440800833+440661612
4276+441365093+442577516+443651519+444227059+444237782+443767727+443643442
4263+444034992+444057168+443981518+444246207+443992449+443186686+442690973
4249+442911727+443834430+444672709+444747350+444227790+443587253+443504396
4236+444187128+444776837+444165822+443182091+443633520+444491365+444085367
4222+443823603+444792503+445357669+444961071+444836090+444971689+445166681
4209+445919145+446627847+446508297+446204930+446090916+445788489+445890667
4195+446438879+446115250+444739691+443846127+444494776+445537795+445792597
4182+446082282+446978491+447424838+446687518+445314396+444168189+444280324
4168+445504339+446243609+446242564+446313271+446450924+446160543+445696929
4155+445782257+446004612+445713465+445513495+446011018+446516618+446141256
4141+445272341+444820424+444842600+445181686+446116887+447343095+447981996
4128+447600717+446777233+446538376+446904408+447149601+447152177+447202900
4114+446923068+446390418+446630354+447194754+447081609+446939430+447547452
4101+448237808+448238434+448172288+448098971+447096997+446034552+446495486
4087+447652554+447761452+447296445+447271762+447278063+447146990+447410843
4074+448123828+448795454+449074033+449113999+449094852+448826751+448460650
4060+448353389+448325016+448396280+448641055+448780902+448948634+449062858
4047+448651255+448319481+448914934+449536707+449444521+449487933+449593071
4033+449074207+448617765+448935370+449756974+450617290+451291910+451670684
4020+451654217+450963060+449652393+448959740+449775425+450968282+450971450
4006+450002445+449147699+448755209+449035494+449871093+450580701+451118956
3993+451712286+452115638+452217468+452002667+451099077+449588545+448617869
3979+449276510+451062105+452144811+452004930+451847851+452152714+452603865
3966+452894908+452858562+452702005+452628966+452829354+453048541+452341544
3952+451057544+450614366+451108094+451476597+451075299+450485903+450963338
3939+452636486+454117426+453610364+451576443+450949239+452055932+452129981
3925+450695551+450183929+451340510+452725609+453395773+453863739+454472422
3912+454350330+453625996+452471503+449764319+446678850+446382620+448386636
3898+451098868+453237788+453228145+451763149+452137431+453125514+451567356
3885+449278529+448719664+449630739+452444035+454496408+453261601+450354656
3871+448707654+449558257+450944678+450268770+449371447+450336726+451394680
3858+451183326+448240245+443313060+445886072+452795306+457128464+457563601
3844+454508071+450062116+446313793+445046365+447329727+450153537+451978332
3831+453474208+453977928+453617989+453228876+451291597+448951210+450239910
3817+452404104+454545739+457416791+459015367+457982201+455720841+455707334
3804+455903161+454017580+454569691+457443319+459888983+461790438+462688562
3790+462668022+462405527+462029957+461871345+461700967+460360500+459155980
3777+459982423+460952507+460662857+459781861+459390799+459660466+460500068
3763+461544723+461101788+459550419+459605216+459828337+457373831+454085398
3750+456219896+460661882+463302119+467191194+473256161+478459732+480846247
3736+479851131+480113731+485242557+491281205+494116016+492327392+487965581
3723+484658453+483104020+481619285+478821481+475170010+472443017+474900238
3709+483106492+490909325+495822932+498716857+502682139+509710645+517843163
3696+525429628+530763020+530944956+526281241+523690509+523799302+521893495
3682+516941035+509994759+501884417+491967035+485672994+485044049+483249611
3669+482250110+484414269+485574784+484441250+482253626+479779311+476739308
3655+474291729+472564621+469277441+465544958+466302609+470069453+473810604
3642+476585083+478525739+479374253+478789313+477441396+475043532+469910319
3628+465107733+464946615+465028949+461914271+454714307+446999484+442663680
3615+439485187+437327816+437431039+438643079+440706940+443040712+443540915
3601+441665675+439405777+438101064+436774139+434595323+431622650+427246252
3588+422918212+422127139+422569900+421319984+418899038+417108116+416214344
3574+414881883+412936319+410499672+406533102+402975245+403270849+404748482
3561+404931323+404438675+403915216+402855138+401044651+399546199+399043245
3547+398590841+397830718+397524880+397178727+396317506+395685149+395418372
3534+394916776+393905611+392661195+391885372+391426283+390980215+391403968
3520+392452835+392687619+392130495+391379006+390500552+389962575+389927588
3507+389900433+389595743+389471041+390078227+390534356+390078853+389462476
3493+389333666+389405660+389103060+388289011+387765169+387987837+388640699
3480+389578893+390325021+390438688+390167036+389958363+390331148+390977291
3466+390942059+390304516+390105521+390537907+390579823+390602417+391424264
3453+391817206+391284348+390771054+390865016+391715028+392191906+391618977
3439+391441775+392422338+393358584+393354615+393276562+393930851+394622356
3426+394910718+395348744+396195309+396901506+396954527+397018619+398012794
3412+399466093+400488537+401519510+403089399+404373886+404972891+405530363
3399+406146392+406963539+408785341+411423872+413349558+414419105+416093679
3385+418184312+419683078+421155245+423112333+425218214+427147068+429006120
3372+431810922+435794795+439503778+442476834+445655013+449479021+453826175
3358+458483101+463027335+466969361+470537105+474090019+477396939+480602168
3345+484084166+488004155+492499441+497228501+501788018+506025543+509275856
3331+511334983+513199745+515377168+517462823+519569018+522029199+524042093
3318+524923750+525196899+525070699+524989409+525972827+527363739+528020604
3304+528507056+528884646+528193454+526640171+525029410+523707846+522346282
3291+519912246+516446820+513654203+512026836+510023376+507819285+506950996
3277+506525294+505357712+504225431+502985575+500419039+497626248+496610418
3264+496654597+495985164+494251302+492334424+491268080+491155910+491441139
3250+491513900+491179061+490534102+489689034+489199101+489016259+487836771
3237+485351106+483149000+482017658+481540258+481733961+481996318+481560137
3223+480873297+480288148+479644025+478928011+478615105+478950570+479274651
3210+479388666+479542195+479265112+478445180+477921372+477975612+478343802
3196+479292650+480447769+480422076+479221595+478808043+480069344+481381194
3183+481259311+480325956+479929636+480220749+480389769+480349873+480625493
3169+481002978+480936936+480832008+481144774+481670531+482402246+483393670
3156+484645119+485517760+484959661+483835108+483774915+484656503+485835156
3142+487163578+488261254+488886474+489005119+488591985+488550904+489541389
3129+490598020+490987969+491089103+491343278+491910671+492348872+492362240
3115+492732588+493393039+493394745+493306353+493892999+494489671+494554251
3102+494364829+494501752+495558139+497162216+498213659+498261041+497788897
3088+497861832+498440540+498609735+498590727+498702792+499005219+499529026
3075+499770424+499844647+499994242+499705532+499023775+498815832+499485961
3061+500394216+500785592+500640245+500272508+500012797+500230905+500750918
3047+500867613+500579982+500967529+502365439+503165075+502681060+502673644
3034+503692224+504227694+503863473+503557216+504019995+505130761+506004934
3020+506393942+506911378+507432540+507584014+507731346+508208642+508795427
3007+509128594+509201216+509153799+509343151+510415796+511969567+512907205
2993+513580259+514774543+515979446+516944412+518105310+519228888+520140067
2980+521096783+521944044+522307082+522213746+522339250+523209035+524612585
2966+525908700+526322844+526122978+526231318+526273930+525738356+525170614
2953+524755078+524576588+525026311+525592591+525900031+526540743+527632431
2939+528701630+529057252+528534524+528447803+529583566+530827773+531271857
2926+531221238+530902065+530142918+529073754+527932839+526988726+526844736
2912+527516397+528228616+528627303+528870511+529127924+529585515+530294079
2899+530895486+531106909+531241325+531604815+532068569+532403929+532716765
2885+533465330+534741287+535910192+536370604+536110371+535615982+535557529
2872+535572221+535066169+535162777+536412589+537453554+537547063+537335048
2858+537388139+537609624+537943383+538064360+537403144+536605422+536553097
2845+536800309+536864297+537306187+538463987+539586903+540034225+540116072
2831+540377558+541123407+542339867+543389884+543862201+544202540+544697243
2818+545194313+545652044+546322382+547207416+547780032+547979619+548262133
2804+548679688+549164609+549896567+550710755+551176702+551262692+551432165
2791+552213141+553243975+553754170+553826861+553701915+553671522+554359128
2777+555459520+556348035+557061508+557150874+556574916+556491259+557094024
2764+557757956+558577297+559536972+560194359+560529963+560708140+560963150
2750+561620642+562241127+562466824+562962467+563622152+563552037+563157946
2737+563577207+564765678+565584253+565575062+565577012+566144614+567109372
2723+568396539+569420655+569403944+568847342+568816880+569567255+570598925
2710+571452905+572316494+573483136+574426588+574492456+574131020+574239360
2696+574868548+575381842+575430058+575357785+575805942+576977528+578251466
2683+578826380+578594207+578104204+577962861+578536660+579689760+580567762
2669+580654518+580448351+580641497+581469333+582217932+582042784+581539413
2656+581838985+582612789+582782506+582879079+583873742+584920103+585075163
2642+584962645+585478584+586474814+587341397+587676444+587082940+586107529
2629+586062967+587126248+588459335+589396102+589704691+589466147+589189378
2615+589612086+590770269+591932420+592575638+592809726+593047991+593548751
2602+594239038+594944920+595604919+595972621+595885239+596010986+596872625
2588+597898377+598428311+598373514+598087137+598000868+598224303+598795526
2575+599442852+599847318+600614473+601794936+602154701+601778852+601770219
2561+601908499+602030834+602647246+603319081+603762399+604481720+605173120
2548+605406581+605479063+605363690+605129464+605390636+606042836+606299413
2534+606002243+605901423+606672895+607989201+609027346+609597107+610159836
2521+610751600+610550725+609461961+609049836+610192074+611650838+612428228
2507+613025214+613597203+613516296+613000009+613027581+613718076+614432175
2494+614921377+615206154+615315399+615576641+616302229+617362863+618290440
2480+618825387+619149642+619333737+619451059+619699351+619933856+620041082
2467+620244255+620754763+621326405+621556523+621611807+621711792+621906331
2453+622309683+622710250+622943362+623216511+623645833+624223045+624896412
2440+625212520+624916673+624719071+625004125+625229231+625273583+625571867
2426+626131672+626720720+627419640+628015303+628116123+628021569+628200372
2413+628603794+628911408+629165269+629570640+630039233+630857355+632038236
2399+632786522+633299258+634383775+636462572+641296108+651361518+667593830
2386+689934625+717529716+748347859+780812274+813540089+845260813+876617038
2372+906055026+929759266+947546428+960228855+970327826+979871936+984618995
2359+980934729+970010395+956643878+939614541+918384094+904566949+907074093
2345+921912812+933184239+931337581+924461663+921317915+921587722+921496092
2332+918628765+914524716+913610299+914097482+910234065+902068995+893617201
2318+885299647+874694694+864722375+860883676+859370742+850809910+833557278
2305+814235110+799463303+789364959+780345422+770838563+759681882+746396411
2291+733086432+721111559+710142037+700703621+693938063+689707710+686721250
2278+683746070+680826940+678936695+677914007+677045196+676310975+675423922
2264+674236008+673115076+672156446+671523254+671209652+670777962+670109121
2251+669332079+668630791+668112833+667635397+667379029+667553794+667784957
2237+667886335+667815245+667239983+666613058+666641118+667028803+667379238
2224+667547110+667606224+668033736+668847820+669684254+670244198+670299412
2210+670274904+670653816+671024861+671081120+671373624+672035642+672260608
2197+672000968+672084172+672403553+672525610+672869222+673512509+673833631
2183+673873597+674319004+675140050+675773799+676277415+676770237+676875653
2170+676728461+676914018+677422438+678006681+678605965+678982927+679069683
2156+679220427+679715199+680485139+681314611+682085108+682535388+682412287
2143+682097780+682058580+682105230+682007613+682123821+682782496+683734721
2129+684741533+685455493+685250301+684642454+684640783+684845766+684865958
2116+685443935+686666453+687565065+687831181+688080099+688386529+688355127
2102+688432066+689168863+690162725+690721972+690679360+690529244+690682424
2089+691200661+691903411+692321593+692610199+693011949+693213520+693434518
2075+693893780+694287175+694566869+694946129+695319193+695414304+695683135
2062+696396677+696901337+697177340+697823900+698769859+699533184+700026007
2048+700278267+700109908+699807655+699789552+699974204+700586577+701779783
2035+702595886+702501123+702595259+703365965+703905787+703995745+704143216
2021+704565785+705104005+705399921+705663113+706217974+706715880+707020918
2008+707370795+707687739+707881304+708191424+708735145+709365969+709816807
1994+709910247+710046020+710569758+711111738+711723136+712643750+713364324
1981+713689276+713918489+713984635+713900734+713744769+713569656+713591867
1967+713805205+714535527+716012952+717522962+718460077+718822975+718891907
1954+718975668+719363563+720071743+720523695+720292741+719602524+719608373
1940+720907760+722147755+722930576+723726696+724074415+723923045+724113685
1927+724901659+725598003+725956375+726016881+725578785+725732453+727122704
1913+728398348+728699696+728381220+728427452+729375987+730807318+731690263
1900+731635049+731404234+731286285+731205935+731150024+731068003+731590069
1886+732467653+732928448+733373576+734035942+734475848+734679369+735206796
1873+735620035+734366811+732263993+732970294+735886778+738093271+739045426
1859+739123827+739274570+740144495+740981765+741582510+742083480+741670102
1846+739803460+738227722+739255562+740891667+741489418+742045533+742858851
1832+742481261+740860195+740825799+742441922+743744094+745467303+747576596
1819+748624768+748788462+749022479+748669677+747530573+747311385+748000836
1805+748320913+747818691+746423775+745744072+746964014+748313394+748237918
1792+748221207+750631987+753333253+754249062+753768772+752899822+752869813
1778+753979395+754211812+752127793+749059382+748940319+751927405+755638478
1765+758084907+757829165+756592443+756362324+756120717+756144878+755922766
1751+753721217+751570077+752471683+754349744+755521225+756076156+756181084
1738+756062926+754457596+751512495+752415145+756168899+759533297+761343888
1724+761752532+762236094+761694045+756882093+750879373+752366128+757733010
1711+761677961+762202464+759231531+756267979+755715555+753228115+748355936
1697+747893401+751744355+756634359+759518884+759978007+759446193+756502902
1684+750758987+750924561+754948470+757612415+757083734+754731093+752511510
1670+750279672+752146384+757082133+758847327+757460975+757171882+757430548
1657+755725442+750768944+743399438+742348342+742164039+740113998+743308017
1643+749130750+751730499+751019951+747502513+744602809+748751489+754594414
1630+757253416+757262120+757448025+758639350+761669745+765343914+766536423
1616+767512530+772427252+777303260+779754912+781555199+784188995+786416028
1603+787821667+789607193+791425165+792537393+793975339+796162406+798000292
1589+799214733+800612991+802465847+804043813+805009406+805129931+803159754
1576+801159079+803539711+806120590+806172045+806820555+809050095+810744130
1562+810758682+805971866+799476602+805106397+812162650+815740594+817523892
1549+820079079+822426359+821121959+814985903+807433694+811494574+821838704
1535+826219452+827262541+831054172+835105026+836031489+834981995+832976655
1522+831401265+834151757+839040090+844728233+851002500+854248600+852424431
1508+846147101+844381419+854148058+862848144+866103435+864528045+864496991
1495+869414916+872598560+870481608+868293148+873497659+880775953+884256211
1481+885042653+886150077+886378455+883120727+878459379+880549038+888989483
1468+894867361+895204079+895526176+899995560+902454105+897984163+895076870
1454+901468877+909283232+914549642+916421227+919137811+925208209+931030385
1441+933674973+931799837+926920486+927422431+932187383+934414904+936762741
1427+941323616+944113587+945024105+943407704+935198352+928097817+930063468
1414+932354907+930101972+926654649+923625925+919333464+916499767+915400698
1400+910175578+902853697+899693865+898650498+898114158+897850827+894644344
1387+889034323+887431291+889808580+891608101+892466886+893323094+892656969
1373+891888212+893776717+895821257+896081315+894520686+890997747+889224476
1360+891233088+893325322+893875866+893252910+892133370+891058044+890434600
1346+891405346+893812923+894356992+891539727+890068499+892829714+896626568
1333+898362936+897882437+898771649+902280524+905212047+906699219+907870910
1319+908407807+908205469+908371809+910103374+913738483+918140955+921838729
1306+924720956+927879186+932061706+937151401+942078865+945224771+947648989
1292+951201589+953597748+953310743+953201985+954823956+957212107+959898264
1279+961702311+961685322+961772704+962756122+963350531+963646517+963536436
1265+962294979+961732320+963540753+965875291+967411899+968584634+969731467
1252+970960113+971027303+970103835+970226588+971722185+974005547+977106404
1238+979740688+979184644+976945495+977119216+978562174+978495262+978156177
1225+978433364+977736393+976668935+977557868+980359955+983116922+983491866
1211+980871298+977889573+977227208+978787906+980721251+981569104+981558660
1198+981937364+982940765+983417434+982793085+982300680+983165522+985034392
1184+986989112+988090897+987727581+986645849+985733033+985162924+986008758
1171+988590056+991215567+993284476+994753197+994693666+994089021+995543956
1157+998444983+999925192+1000898932+1003141144+1004438233+1003389226+1002014502
1144+1000944886+999644036+999991268+1003163146+1007492022+1010397018+1010460379
1130+1009238417+1008267393+1007530805+1008165807+1010974438+1013651125
1119+1014080726+1014749637+1018081797+1021008795+1020270674+1018291584
1107+1017678306+1016627489+1014918693+1015359225+1017304755+1018026582
1096+1018035495+1019522737+1022507107+1025268531+1028294261+1032410425
1084+1035513928+1036825640+1037330438+1038459865+1041210775+1043433839
1072+1044192221+1044984582+1045701605+1045502192+1045121817+1046972584
1061+1051660181+1056405638+1058019184+1057036114+1057846856+1061477021
1049+1063277865+1062105618+1061870416+1063021567+1063427146+1062066348
1038+1059130159+1056486127+1056008762+1059288701+1064698195+1068213962
1026+1070237544+1070744710+1067768277+1064190541+1061719116+1058587762
1015+1057395949+1060828163+1065865847+1069533193+1070584637+1068373966
1003+1064914667+1061754138+1059087547+1058571538+1060339448+1061992612
991+1062499082+1061666686+1059192894+1056701972+1055759426+1054987884
980+1053362432+1052979899+1054291123+1055521439+1056800008+1057938695
968+1057221950+1056247584+1058287667+1060519018+1059443413+1059344264
957+1063694933+1069349029+1071658013+1069340882+1065327766+1063090915
945+1063533607+1065557676+1067183825+1066327825+1064357856+1065189695
934+1068965451+1070550728+1066944097+1064685732+1067912336+1071071263
922+1071380200+1070054633+1069166953+1071011244+1071432142+1067185565
910+1065016323+1069213394+1072631753+1070498229+1068918313+1071416058
899+1073741823+1072473768+1069351257+1067627212+1068508626+1070168474
887+1070268459+1068509043+1064791287+1060535519+1059444597+1061731997
876+1062224402+1058138874+1052591239+1048124152+1046101614+1047870290
864+1051189499+1051046136+1046096949+1040952388+1038559850+1036963432
853+1033876709+1028156329+1020872673+1016515249+1017796324+1021128275
841+1020398998+1013580662+1005305164+1000937993+998597606+993780223+988261902
827+987053866+989455037+989445777+985962734+982134270+978547692+976827894
814+976504823+973129703+968209203+964601945+960755308+957835830+957185092
800+956750617+955183930+953560984+951398426+945060241+936160951+931761264
787+932346204+931602374+928058059+925556764+924286550+922803765+922284205
773+923145009+924018346+922089666+915204906+907204575+903716241+904267760
760+904137209+900383733+894975284+892043412+892071750+891402282+887298790
746+882797029+881439712+880678057+879181207+878869067+878740326+879245960
733+882281159+885245547+885585886+885851375+889512733+894658618+894311525
719+886274014+877896859+875466375+877618628+880229378+880400940+877264155
706+873070565+871952975+875031691+877550672+876128323+874353937+876124423
692+880410340+882256024+880087547+879299852+881597766+881272815+876494911
679+872992443+872863841+872063195+870416437+871697790+873422253+868201727
665+864116895+866773112+868678606+866717131+863943314+861299282+860637404
652+863493451+865003461+860491534+854235023+847960477+836850377+823521807
638+815459439+812813318+810089563+807825836+809616653+811774477+814694373
625+820239640+821300762+815711629+807342691+802451573+804023830+804538307
611+803809726+807822911+814283153+816693933+813888157+815168605+825827937
##END=
