##TITLE=Sample description
##JCAMP-DX=4.24
##DATA TYPE=INFRARED SPECTRUM
##DATE=25/8/2023
##SAMPLING PROCEDURE=Instrument type and / or accessory
##ORIGIN=Default
##XUNITS=1/CM
##YUNITS=ABSORBANCE
##RESOLUTION=4
##FIRSTX=4397.6552
##LASTX=599.8556
##DELTAX=-1.9287962
##MAXY=1.9434577
##MINY=0.61430079
##XFACTOR=1
##YFACTOR=1.8099861e-009
##NPOINTS=1970
##FIRSTY=0.7339313
##XYDATA=(X++(Y..Y))
4398+405490033+405486641+404494068+404411114+405096112+405274302+404911106
4384+404622235+404603398+404619897+404398370+404054406+403948302+404275768
4371+405095980+405944184+406129256+405743502+405331536+405246541+405124564
4357+404405483+403495534+403085971+403402668+404414638+405767740+406324241
4344+405145311+403383009+402800262+403447356+404150400+404197754+404180828
4330+404651313+405063181+404789887+404144242+403648696+403313821+403527510
4317+404486691+405237057+405142709+404679502+404377130+404410752+404980952
4303+405627289+405045135+403300121+402355660+402801118+403320670+403826424
4290+404403870+403828104+402546265+402362609+403440111+404559304+404965969
4276+405009833+405050898+404637021+403803208+403472021+403486610+403027683
4263+402544618+402419448+401846317+401060484+401704153+403613591+404865430
4249+404847516+404028687+402986223+402804115+403559222+403763691+403075631
4236+402699427+403035389+403617741+404080586+403961013+403052513+402098963
4222+401812233+402312587+403470407+404198742+403589585+402377625+401623999
4209+401670860+402319963+403266499+403893999+403655381+402998342+402381939
4195+401869368+401739587+402099227+402731798+403286587+403458223+403389727
4182+403444820+403513778+403191844+402620821+402362872+402285682+401974286
4168+401843748+402118919+402250676+402105879+402287888+402827990+402877979
4155+402554695+402669822+402908111+402671995+402411577+402596122+402517022
4141+401788062+401319454+401581024+402263421+403007529+403047047+402375386
4128+402008238+401546974+400773787+401131977+402153365+402135846+401562221
4114+401741530+402498416+402748198+402199304+401765833+402316275+402994950
4101+402700481+402178656+402118327+402203717+402123991+401781969+401426842
4087+401292648+401405173+401773704+402188437+402408844+402717012+403182920
4074+403128221+402532368+402089644+401978535+401846218+401437610+400987377
4060+400821076+401177093+402003793+402575936+402568263+402402982+402050917
4047+401409652+401104315+401407840+401603582+401263174+400982306+401207752
4033+401638489+402118854+402336165+401726349+400807673+400438516+400351513
4020+400256704+400540603+401263800+402129029+402532368+402012914+401599927
4006+402020225+402050258+401078662+400120864+399986934+400507968+401030188
3993+401171791+401210024+401463362+401738500+401912541+402195089+402349469
3979+401962332+401506633+401644252+402001817+401752825+401028969+400784885
3966+401286687+401967206+402096263+401423516+401044677+401607600+402024342
3952+401753385+401357555+401403592+402063299+402270369+401394437+400854863
3939+401042965+401165765+401098717+400581042+400074036+400474049+401089859
3925+401422462+401786053+401809105+400905544+399910369+400492556+401987591
3912+402640283+402418196+401798567+400657606+399821258+399694276+399421508
3898+400062313+401374547+401372571+399952587+399352386+399924793+399977515
3885+399528403+399426481+399218127+399296074+399524846+398911704+397867462
3871+397013989+397356933+398700978+398692515+398247716+399260410+399977680
3858+399213088+396718368+393075541+393716444+397642938+400645027+401117158
3844+399113274+396713790+395235748+394855659+396455447+398826412+400273960
3831+400582326+400081742+399476701+399247336+398104861+396362943+396931793
3817+397915805+398644436+400455772+401604175+400459000+398013807+397333683
3804+397401324+396297839+396683823+398431899+399931544+401800345+403915141
3790+405359692+405499418+404418425+403042173+402111707+401572067+401736590
3777+402505266+402991986+402720239+401786646+401187466+401448313+402195023
3763+402785772+402348053+401723253+402464201+403370791+402736771+400867706
3750+401564822+404944366+407915631+410148056+412525806+414768209+416431422
3736+417179614+416969449+418020046+420943594+423036458+422411592+419927574
3723+417377661+415525095+414347153+413448961+412733897+412255047+413967327
3709+419382105+425796800+431319855+436214653+442577514+450747068+458831200
3696+466138720+471935465+474832141+475280332+476756497+478586472+477857380
3682+474296880+468956955+462316584+452350808+443072335+439590014+436352337
3669+433256692+432750542+432369893+430776033+428220752+425474867+423006919
3655+421443619+419997948+416459710+412102708+412584555+415686786+417938114
3642+418982619+419063564+418506108+417468320+415858554+413697820+410024565
3628+406265426+405934305+405720747+402813500+397410808+392640654+390765925
3615+389257587+387096424+386067923+386377376+386983603+387663891+387975814
3601+387060628+384968193+382920708+381623820+380351168+378343003+375603968
3588+372764822+371085242+370340540+369511931+367928312+365807226+364034485
3574+362991034+362355795+361226294+358479224+355169592+354162134+354340291
3561+354000871+353805525+354014373+353300857+351746185+350921560+351177368
3547+351701827+351261045+350074706+349406767+349120893+348997171+348960651
3534+348247201+346640629+345151819+345103245+346077081+346075500+344860709
3520+344101517+343996039+343655994+343116222+342723125+342142123+341087244
3507+340518460+341013775+341575578+341623131+341716029+341912034+341844855
3493+341518147+340807562+339821607+339395316+339879797+340811513+341385698
3480+341105916+340449042+339969698+339893759+340272795+340680053+340820569
3466+340787704+340662270+340834565+341206488+341189363+341120801+341313513
3453+341410330+341357279+341376971+341442965+341323557+341338508+341923099
3439+342518261+342656341+342631148+342500808+342402706+342741566+343458935
3426+344175941+344549577+344555702+344549577+344779171+345165090+345614302
3412+346260836+347159687+348000482+348493360+348920211+349653420+350440306
3399+351171868+352211269+353645085+355283929+356630477+357346430+358031461
3385+359270522+360835041+362456399+364476254+367070031+369661866+372287882
3372+375458906+378352290+380189510+381807673+383906596+386468562+389578368
3358+392905419+396084874+399580532+403819805+408335238+412285311+415497005
3345+418305492+421027239+424281283+428181630+431959474+435179335+438130183
3331+441437640+444881333+447440171+449109443+450302599+451085895+452127239
3318+453816633+455531646+457103179+458405666+458462109+458028902+459005076
3304+460712350+461600236+461497623+460613393+459217975+457106933+454151014
3291+451164238+448707586+446872901+445313586+443363774+440885256+438430612
3277+436723469+435436493+433866244+432339234+431224092+430214790+428910129
3264+427153030+425121945+423526965+422594524+421728702+420698555+419787914
3250+419535663+419766114+419767134+419578473+419280579+418380740+416596637
3237+415010219+414614454+414278953+412873821+411465362+411654386+412768474
3223+412678079+411065448+409557603+409043419+409046975+409114978+409188447
3210+409395616+409610095+409925805+410252974+409521412+407991471+407027877
3196+407110139+407912601+408231242+407614247+407380733+407948858+408217378
3183+408028881+407836794+407546639+407287604+407306638+407374706+407109974
3169+406773156+406718952+406722903+406831114+407545289+408653812+409005779
3156+408334414+407817299+408441967+409437768+409189106+408036158+408008957
3142+409640952+410741341+409938977+409108853+410489254+412975940+412986478
3129+410494523+409428283+411623760+413854111+412564697+409920569+410601417
3115+415023194+417588782+415177509+412616465+413994298+416837000+416077282
3102+412150393+410558903+413798325+418062527+417907785+414737024+413876207
3088+416809733+419287099+417058725+413458214+413438390+416681303+418651498
3075+416827977+414585146+415200725+417738519+418222341+415424326+412967641
3061+413258949+415251636+415900113+414501863+413301397+413372890+414239469
3047+414532160+413959589+413385568+412968300+412701032+412344817+411797899
3034+411930809+413155348+414346100+414586990+414457769+414601842+416642609
3020+425654769+442140618+453313579+449279466+438469603+430580719+426041115
3007+422922286+421012815+420128585+419706080+419422116+419202006+419479680
2993+420542100+422377739+424121271+424296661+423497525+423470159+424984656
2980+427192086+427454085+425476777+424126573+424811867+426747156+427878006
2966+427135939+426051455+426147186+428063506+429938268+428616978+425882223
2953+425231276+426991998+429568025+430112736+428272980+427091581+428272618
2939+430890731+431982987+430102989+427795415+427316500+429004674+431159843
2926+430730127+428325077+426860735+427139594+428360709+428768855+427639158
2912+426128580+425248203+425731037+426970066+427130077+426392390+426120446
2899+426747617+428017041+428625177+427896085+427130901+427424974+428712247
2885+429914986+429735644+428704640+428452092+429275071+430227205+430438951
2872+429806116+429243292+429600396+430439148+430619610+429957928+429742362
2858+430458216+431119569+431177922+430418830+429188660+428551379+428591522
2845+428901666+429467058+430025338+430488940+431107911+431762448+432211198
2831+432384152+432277785+432220814+432655635+433461753+434149780+434560759
2818+434716325+434733976+435017512+435537262+435886561+436122742+436394225
2804+436600538+436835171+437228598+437583989+437709819+437703199+437758293
2791+437907141+438109535+438433543+438760515+438768583+438547451+438605278
2777+439206071+440109797+440779086+440884762+440631885+440488075+440718065
2764+441114719+441538771+442171508+442848108+443188483+443146924+443045957
2750+443113400+443162039+443224213+443564127+443998289+444335667+444651541
2737+444858348+445123014+445820460+446603394+446824690+446608696+446649497
2723+447241860+447910590+448118121+448066683+448272074+448787048+449390443
2710+449787163+449745834+449535801+449566426+449915989+450523665+451094655
2696+451331857+451549992+451966372+452317185+452665036+453012886+453066563
2683+453035674+453208529+453335478+453291449+453339528+453503459+453608542
2669+453681253+453724557+453668114+453696698+454067040+454621499+454963323
2656+455080985+455296552+455658727+455921911+456020243+456137675+456359959
2642+456529850+456593506+456677579+456749105+456899435+457475892+458402076
2629+459124879+459250082+459020553+459095834+459565989+459907616+459967089
2615+459992841+460076749+460306410+460852834+461546690+462015232+462132071
2602+462120677+462226122+462307067+462375333+462798233+463344887+463436765
2588+463276753+463299574+463399520+463507171+463681607+463957206+464357054
2575+464639273+464761776+464915926+465044818+465068561+465046498+465133205
2561+465368662+465558114+465626939+465784481+466197502+466703981+467082522
2548+467317320+467282381+466927944+466723179+466939734+467302929+467591010
2534+467829595+468179717+468556645+468750708+468869325+469121116+469468702
2521+469518659+469363455+469678637+470250089+470404239+470352043+470575579
2507+471113935+471588602+471559063+471407712+471679393+471984696+472095806
2494+472432097+473053077+473452102+473365757+473124142+472997390+473139290
2480+473592980+473999810+474186035+474249987+474118230+473987362+474287166
2467+474835599+475257050+475491057+475422297+475242132+475327950+475684593
2453+476073837+476191730+476108151+476185078+476522160+476869977+476951053
2440+477016158+477347608+477597423+477511012+477399573+477641583+478147798
2426+478492158+478591576+478726659+478955069+479161974+479464215+479838542
2413+479924162+479780945+479870715+480314065+480868985+481296660+481540975
2399+481764313+482366127+483876442+487166380+493706805+504846406+520921047
2386+541171568+564257942+588527691+612323432+635147181+657937934+681627900
2372+705790953+728506755+747849961+764504154+780243458+793015284+799449408
2359+799463766+791341665+773367334+750654365+730114314+718872462+722459965
2345+736330962+742888314+736236055+727146441+720645665+718064402+721403605
2332+727244773+727876719+723247016+720335191+721108477+720298243+714196129
2318+703574565+692127553+687795876+692768983+696746257+690430422+675189693
2305+657396153+643721491+635735527+629004563+620527663+610555828+599067784
2291+586883644+575708972+565992088+557551808+550382499+544414547+539463931
2278+535163703+531251764+527760452+524864073+522577212+520355687+517918695
2264+515849838+514349271+512987706+511751180+510933273+510301294+509254121
2251+507956607+507138371+506814330+506484625+505968365+505456585+505148054
2237+505033026+505002664+505002861+505161556+505405081+505371162+505236606
2224+505415553+505755038+506055962+506378422+506682836+506941806+507186450
2210+507467944+507955520+508577126+509083374+509480983+509898910+510398342
2197+510729661+510671735+510611932+510823481+511129081+511476437+511873157
2183+512200063+512331589+512373016+512577353+512912195+513187531+513388608
2170+513604109+513863835+514184978+514539481+514723697+514684509+514605869
2156+514468415+514211290+514080752+514201707+514366955+514269249+513803572
2143+513503406+513699872+514088688+514655464+515303710+515793131+516286964
2129+516870139+517493029+518107587+518567238+518875472+519193684+519497736
2116+519638845+519658308+519819340+520221823+520534568+520640870+520843264
2102+521107403+521099006+520948050+521075263+521495330+522009910+522400900
2089+522610308+522914623+523425186+524024102+524597858+525015786+525145501
2075+525139244+525227433+525490947+526206307+527148265+527711286+528025152
2062+528507953+529106737+529583809+530261990+531472533+532781343+533797527
2048+534680342+535531246+536035814+536250129+536718507+537410255+537909917
2035+538340852+538876903+539112492+539040175+539134819+539343996+539506807
2021+539708773+539881266+539963626+540087480+540240642+540209917+539937742
2008+539663032+539608663+539697577+539730903+539675809+539684635+539725370
1994+539649991+539606852+539844054+540305153+540552070+540390544+540163484
1981+540194933+540623366+541188988+541553633+541920781+542352342+542590268
1967+542756339+543121577+543621502+544109375+544557566+544881113+545012047
1954+545257909+545937177+546757192+547175317+547101584+546973153+547319587
1940+548237934+549189080+549726349+549989303+550263619+550712534+551328344
1927+551714855+551547927+551185588+551286389+551886623+552704168+553380043
1913+553573744+553473436+553665160+554424154+555275749+555759901+556011757
1900+556246818+556513494+556866119+557229150+557132992+556611957+556789916
1886+557830602+558860947+559721829+560402183+560623348+560520010+560615971
1873+560809145+560347715+559503562+559970787+561572814+562703994+563005708
1859+563002086+562983512+563088892+563366632+563630211+563838599+563709048
1846+562774203+562182762+563223316+564318403+564621500+564854059+564951469
1832+563962090+562417758+562396946+563459563+564247272+565247518+566562782
1819+567634291+568169947+568142153+567685795+567105551+567057340+567618023
1805+568274206+568695987+568462308+568034535+568372472+568595613+567850121
1792+567704434+569377131+571073605+571832796+571859206+571622696+571608602
1778+571874816+571842873+570639311+568871179+569792523+572657585+574473993
1765+574809429+574501787+574764774+575305501+575249189+575574613+576058501
1751+575073008+573365800+573445031+574571206+575404689+576076152+576249501
1738+575331385+573601190+572347837+573910544+576677538+578881215+579918739
1724+579845302+579292457+577975678+575287389+573580971+575570661+578687053
1711+580710268+580653232+578877790+577675742+577750364+576339337+573304153
1697+572886785+575655558+578899129+580389454+580285787+578926857+575475688
1684+572716269+575683220+579060425+580061000+578918822+577153918+575795514
1670+574451732+575205720+577462613+578216930+578159367+579172588+579835357
1657+578628700+575026180+571037249+571967088+572753481+572162962+574162005
1643+577734689+579847937+579775423+577659738+576772050+580743660+584889343
1630+587095918+588447669+589979948+591797739+594561572+597114054+597885166
1616+599528159+604294723+608377904+610132401+610904567+612423938+614409084
1603+616105030+617668396+619329106+620912231+622190678+623431848+624995148
1589+626607845+627836698+628756724+629793523+631136318+631952282+631400359
1576+631778011+634494555+635909666+635909534+637582429+640628348+642803770
1562+642928578+639444216+636304904+642266270+649101889+654056357+657434880
1549+660222818+662161400+661760630+658327771+654629423+660485739+670505720
1535+676740018+681113452+685847546+689597070+691310535+692112142+692965252
1522+695038061+700570336+708223566+716632628+724189238+729475848+731619985
1508+730273569+732841857+743021619+751290394+756699903+760079611+763771044
1495+769732411+775192173+778553901+782202128+789290393+797470453+803792348
1481+808599483+813384094+817059720+818297069+820030491+827009294+836143496
1468+842510968+845703759+849474161+855618624+859686524+858064607+857459730
1454+865044924+873474798+879291071+882749089+886170949+890756920+895472177
1441+899050459+900988975+901294575+901488012+904084292+908793819+914117312
1427+917731687+917728130+915395628+912410301+907306458+903957441+905540500
1414+906706587+905472926+902665822+898303057+893215482+889817991+887266629
1400+882668013+878307620+875919464+873649464+872819867+872022739+868293040
1387+863559078+862303616+864224811+866292548+867113781+866765371+864838908
1373+863016309+863582854+864185030+863647201+863505400+862768734+860954763
1360+860926969+862736593+864123383+865066066+865975818+866027519+866074347
1346+866508444+866919818+867823444+869016929+869974365+869874387+868623602
1333+867523509+868574600+872525595+875756126+875647586+874969009+875471207
1319+876628402+879208480+882667157+885216609+887392360+890986580+897208629
1306+902910960+903701172+902878688+904433492+907744769+912675528+918156102
1292+921529816+922822292+923500078+924271717+926651311+930131656+932003981
1279+933247851+935867182+938215821+938437315+937941901+938451277+938445284
1265+937181524+937315685+939589570+941174868+941119083+941370478+942408595
1252+943592530+945118289+946933775+948584211+949242304+948571104+948232179
1238+949050909+950336601+952249497+954554535+956133115+956190613+955043560
1225+953985882+953301510+952562078+952640519+953885113+954125839+952873276
1211+952057443+951550240+951005561+951212500+951456189+950573770+949426322
1198+949514841+950257962+949742789+947418322+945151616+944418176+944540877
1184+945198707+946537879+947848598+948662784+949484478+950883980+952577094
1171+953436593+953070137+953163529+954541758+955350213+954855788+954637982
1157+954570078+953666913+953517933+955337370+957970401+959764679+961363545
1144+964051439+965457922+964978578+965338909+967379182+971138321+975609297
1130+978213546+978076553+977287790+977053650+976532155+976162735+975946576
1117+975256606+975453731+977380062+980102797+983158662+985257354+984427559
1103+982863139+983728368+986836001+990994527+995347609+999288989+1001315760
1090+1001172905+1001283290+1004040273+1009346313+1012203538+1008952721
1078+1005151035+1007387379+1013488637+1016659958+1017871226+1023419703
1067+1030443292+1032356978+1032687145+1035015827+1035841275+1034974663
1055+1036065865+1038856701+1040902704+1041575089+1042471339+1045746590
1043+1048980348+1048699183+1046993621+1046092563+1045135061+1044735674
1032+1047962187+1053213496+1054174291+1049252160+1044162148+1045204282
1020+1050927228+1056032718+1057833385+1055519456+1052913494+1052428816
1009+1052594064+1054783909+1057570069+1055763079+1050074052+1044488823
997+1042022489+1044296045+1046476011+1044814116+1044302961+1047527103
986+1051601589+1052334633+1047319901+1040936557+1038807173+1041436779
974+1045822002+1048227941+1049129196+1051438186+1052418015+1049843667
962+1048069147+1048089894+1047741945+1047708619+1049637651+1054043028
951+1057452901+1056026330+1052204161+1050675899+1054097496+1059761693
939+1061789847+1060525626+1058365484+1054732471+1052685217+1056816213
928+1064626128+1068563621+1067952093+1066764403+1064158837+1061315707
916+1062836394+1067306909+1070651644+1072297008+1068967487+1059408146
905+1052688707+1055486986+1064329156+1071138364+1073177715+1073741823
893+1071341549+1064902221+1059811353+1059059011+1059792582+1059252184
881+1060011244+1063857650+1066933142+1065167250+1058606473+1050367138
870+1045202372+1046186746+1048042539+1044756816+1040938269+1040989312
858+1042993756+1043960544+1039879011+1030469835+1022184593+1018157198
847+1015774838+1013016406+1008999220+1003118139+997421735+995570486+995008486
833+989281786+982072268+981117862+984538998+985760672+982843249+978804065
820+977114309+977076175+975307846+972350775+971100780+970699219+967820984
806+961578782+955895353+954304457+954283513+953378108+953684366+953974883
793+950687514+946082772+943161793+941030104+937862998+933843045+931094493
779+930962966+934379952+937448331+932887520+924902214+920882064+918263325
766+914473362+910217953+906544435+906080634+907889798+907761959+904689432
752+900658151+897668214+895184558+892131459+891343882+894639484+896589394
739+893312101+890135117+891433322+893753970+892941430+891934993+893354385
725+893522992+892697214+893708591+895368379+896695103+897868961+899344401
712+898976826+894191425+888824068+888173219+891599426+892952758+889318230
698+885056762+884344267+886378480+888415262+890143481+890737227+887895479
685+883413241+880457619+880156893+882622305+884416583+882981187+884456627
671+891452949+895267742+890736634+884671996+878369728+873513393+873443382
658+875357661+873497521+866348070+862491389+866257773+867758372+863495521
644+861933340+866687786+871704823+870465696+865811821+864518028+868159472
631+868109483+856740320+843770644+842897248+849816182+847690289+837959377
617+829411873+823251735+823991431+829476550+839992998+852450530+841879285
604+813599133+796706125+798821546
##END=
