##TITLE=Sample description
##JCAMP-DX=4.24
##DATA TYPE=INFRARED SPECTRUM
##DATE=25/8/2023
##SAMPLING PROCEDURE=Instrument type and / or accessory
##ORIGIN=Default
##XUNITS=1/CM
##YUNITS=ABSORBANCE
##RESOLUTION=4
##FIRSTX=4397.6552
##LASTX=599.8556
##DELTAX=-1.9287962
##MAXY=2.0061085
##MINY=1.1808132
##XFACTOR=1
##YFACTOR=1.8683342e-009
##NPOINTS=1970
##FIRSTY=1.2530588
##XYDATA=(X++(Y..Y))
4398+670682376+673505689+672810405+671862835+674065260+677399141+679706526
4384+680782663+679598887+676773915+675502789+676961885+677861920+675125382
4371+672647255+674675173+677408457+677031369+676002830+675681125+674203717
4357+672454627+672036321+671506930+670868942+671017672+671233780+672955051
4344+676907523+678741218+676418138+674546287+675892511+677474431+676452784
4330+673539697+670943850+671503101+675816073+679461068+678899136+675999576
4317+674646078+676953016+679954281+679371358+676808051+676638967+679549183
4303+681947617+681203267+679546248+679100569+678123457+674923184+671162701
4290+670461738+673669987+676398422+675162325+672775950+672755405+674756971
4276+677303306+678468451+677259982+677122482+678987187+678226247+675942534
4263+677006038+679727454+680426822+679777350+680052924+681293870+682159259
4249+681964908+680726196+679019728+676823364+675866415+679773330+685796087
4236+686920780+683674120+680194380+676634565+674534100+676195585+679047228
4222+680689699+680463957+677226995+674764819+677804942+682877258+683855518
4209+681094160+679367912+681349763+683988296+683798476+682695477+682197606
4195+680242681+677151322+676630800+678157082+678322210+679081300+682441277
4182+685649335+687178999+687654028+686836749+685381673+685394242+686522827
4168+686142294+683884549+682666637+684197769+686638378+687828344+686857868
4155+685919550+688432706+691644784+689791181+684511435+682652919+685074579
4141+687657729+688544684+686991731+684889289+685209207+685404579+682622931
4128+679337477+678784351+680684978+682294079+683157809+685340199+688492491
4114+690911088+692419059+692271222+690332823+688093071+686059411+685563326
4101+688067103+690573368+690068925+688496447+687586076+688288315+691557115
4087+694015335+692762585+690744366+690458582+690220462+687703605+684746684
4074+685541313+689369046+692235747+693499981+693247441+691154186+690032173
4060+690933548+690544273+688655769+688387532+689658658+690349221+690351645
4047+690373913+689992550+689346204+689594470+690118437+689799795+689725206
4033+690829737+692286854+692668154+690795410+687451894+685815930+688117381
4020+692586866+695598787+696126647+694620335+692324308+692391367+695145707
4006+697730708+698245296+695725695+692803612+693235381+694834848+694801351
3993+694649622+695059187+695584750+696091043+695538619+694086606+692853699
3979+691823183+691574662+693127423+695818915+698090122+698788724+697804402
3966+696079559+694528520+694268386+695429384+696454095+696909217+696668416
3952+695673056+695892865+697628556+697948347+695614292+692511768+690825015
3939+690496866+691504221+693047475+692833601+693150138+695621055+694974071
3925+691497330+691885329+696269634+699967651+699852355+697588805+698085974
3912+701659636+704297148+703098696+698220922+691447243+686898448+688192288
3898+693455892+697611456+698205162+695742348+694709088+696539721+697439054
3885+697734025+699024293+699258266+699408463+699573591+697965829+697388329
3871+698161328+696849878+696732540+697847981+697367274+697914594+700013846
3858+701377298+698761926+688379684+685874567+694875684+702237710+704020297
3844+701189775+696356090+691683896+687734168+686937816+690424128+694477221
3831+696159443+696639959+697602651+699013510+697107650+691381587+691475062
3817+694479964+695146983+697847662+701761915+702912896+701342141+701873191
3804+703991968+701453736+696987123+696197407+697797767+701292692+705367224
3790+707916685+707992613+706855989+707245008+708886650+708260594+705739144
3777+705866307+708004608+708152955+705123743+702075326+700791375+700838208
3763+702501608+703017409+701866109+703357809+704975205+702376997+697919443
3750+698277262+701779653+702280459+700344740+701128841+703360233+705467525
3736+705567253+701092791+698927054+701981022+705036458+706192926+706330936
3723+705361864+705584033+708313553+710111964+708519452+703464044+699882727
3709+703623685+709143657+712722168+713842841+711543751+709483994+710811778
3696+713493253+714641298+713439018+711093797+710322648+711683931+712826999
3682+712422985+711413014+710303124+706259155+701819212+701529601+700336190
3669+699139525+701375001+704107072+706240078+707146047+705260605+701564438
3655+700291781+700452060+695308920+685631534+684996226+690151425+693728148
3642+695796519+696508903+694712661+691148954+687893617+685045803+680790256
3628+677830847+679716224+681391173+679766886+675741357+673029958+672260851
3615+670875068+669661048+669259905+668786024+668711053+668866100+668714052
3601+668095015+666328378+664036371+662113093+660288841+658958249+657218347
3588+653704535+651307696+651961188+653672186+654547209+655293155+656923631
3574+657065916+654397267+650582869+645767433+640865030+639973354+642296179
3561+644612560+645403935+645336429+645335153+644385350+643087299+643473703
3547+643255553+640364160+638507112+639633272+640976817+641154323+642546487
3534+645680977+646619487+643370785+639812309+639146950+638601352+636784756
3520+636827187+638360169+639108922+640406654+642127223+641725059+639887153
3507+638621706+637031491+634353654+632834071+632777731+632078618+632013920
3493+634836531+638325969+639242019+638337582+638263695+638870993+638805656
3480+638954896+640055471+640870581+640512954+639691080+639214519+638346323
3466+637320464+637817379+638318440+637396584+637411387+637889095+636870447
3453+636389675+637338011+637775267+637959345+639826857+642766423+643935779
3439+642723291+642197090+643819335+645412166+646206348+647107277+647202602
3426+645891279+643872038+641942826+642426980+646148860+648711529+646889510
3412+643868465+643715269+646525693+649029789+649149551+649082875+650846066
3399+653707342+656719072+658954293+659243394+657852570+656599692+657032802
3385+659556103+662947855+665325809+667085937+669990601+673554691+675704031
3372+676041113+676061020+676690905+678429849+682199839+687115577+690595955
3358+691334754+691224563+693155689+696701084+701291863+706966180+710769157
3345+713423195+718386786+722976863+724364433+724215767+724872577+728502004
3331+734513148+740353805+744826991+745272287+740337663+735246142+735546089
3318+739797042+741773980+740438602+740962953+744254149+745447177+742246074
3304+738504669+739043567+743450970+745631957+742358180+738282819+736404906
3291+735123253+735165683+737512691+739897280+740498324+739376120+736321449
3277+732032852+728767880+725955095+721714798+718833039+720505691+724418412
3264+726495907+726101081+725309578+725142473+724901481+725206533+725128308
3250+721276010+715744744+714185092+716539756+718766299+720274142+721970529
3237+722137060+720646955+719000783+716306484+712823171+711173809+711484731
3223+712194946+712387510+711982858+712547278+713984616+714405793+713951310
3210+714371913+716817372+719132094+719061972+718044472+717391682+716863886
3196+715538590+713839140+714035660+715795788+717020464+717531160+717356589
3183+716212116+715428079+716408190+718184397+718539664+717902761+718048811
3169+718145284+718341038+720155911+721842599+722423290+723636544+724995083
3156+725058824+724777444+725396353+726446330+726391203+724233633+721473742
3142+720991631+723000216+724936191+725467305+725314874+724640709+723297229
3129+723038244+726039956+731362451+735536519+736159639+733772881+731649383
3115+732650932+735146031+736465457+737284332+737115887+735184761+734002707
3102+734418781+735178444+735653282+735750202+735609448+733982353+731548507
3088+732094488+735192800+737170951+738330545+740300592+741557489+740369055
3075+738201212+737938973+740042819+741543835+739439095+736060423+735760092
3061+736634477+735013380+733943241+737166995+740809183+741010424+740320691
3047+739363358+736715063+734362377+734131594+735150179+735539900+735056449
3034+736396931+740394449+742665912+742139647+741187611+736822830+730026244
3020+728475014+733339070+740543243+747647943+750184069+744645912+737200875
3007+734627870+737072053+742462948+747777021+751078043+752220410+751417614
2993+750857724+751817034+752500833+752061726+752204714+754301733+757718944
2980+760077500+759479391+757471890+757021426+759291549+762505540+763504856
2966+762012582+760323022+760407309+762183197+762787750+761251514+760830145
2953+762475552+763825668+764842467+766375193+766949376+765162896+762533678
2939+761431445+762083597+764414845+767249260+768056458+767680008+768022961
2926+768448732+768240919+767945820+767267955+764852994+761424554+758964930
2912+758182679+758971566+760464351+761032089+760228654+760238863+762338626
2899+763904723+763090569+762331863+763058348+763271776+762983760+763737426
2885+764317350+764344850+765383151+766970750+768545844+770953466+773156465
2872+772950694+770922329+769726494+769909423+770741314+771980409+772119760
2858+770669661+768714991+767057972+766957415+767742792+768108842+768102589
2845+766811939+765505657+766706150+768843813+770006343+772146303+775952215
2831+778314918+778280336+777696583+777302586+776949489+775772603+774154250
2818+773918937+774036083+773472492+773927614+775430097+777716681+780603098
2804+780705186+778219211+777916200+779979913+781441114+781255058+780283689
2791+780124687+780553138+780859211+782071062+784227292+785723140+786065901
2777+786237026+786531104+786604352+786445158+786204804+786531614+787808291
2764+789659788+790209533+788091458+786516046+787257461+787166220+785368830
2750+784604444+786434184+788541731+788434219+788154625+789774701+792445201
2737+794858885+795352609+793776112+792850363+793232556+792619963+791826738
2723+793514638+796034877+796459819+795472179+794671042+794561680+795139372
2710+795868601+796735457+798195063+799713497+799661879+797941757+797307980
2696+798969976+801270215+802878933+803213783+802553336+801706450+801188672
2683+801536410+802421451+802612802+801441723+800012233+799945493+800547175
2669+800496705+800590945+801927216+803683962+803878249+803028301+803656271
2656+804776179+804082425+803073411+803538742+804792640+805872542+806422606
2642+806349741+806192142+807033476+808319022+808031835+806571080+806338256
2629+807743117+808972259+809059480+808284312+807057467+807256794+809409898
2615+809933355+807885338+807105448+808295286+808888802+809228628+810428483
2602+811345745+811941175+813028223+813922643+813889273+813348078+813091198
2588+813326767+813751262+813726187+813075630+812961610+813925195+814884569
2575+815447330+815944244+815884842+815245961+814881251+814904093+814921831
2561+815449627+817214030+819222934+819819831+819094431+818386194+818225916
2548+818555597+819392528+819710788+819418114+819986107+820849136+820458840
2534+819167424+818306884+818199373+818564210+819585922+820075116+818625336
2521+816955811+816876182+817568787+818497406+820224675+822422123+823652031
2507+822787025+821049866+820473642+821108886+822460215+823902976+824482008
2494+824870517+825696985+825896185+824960738+823553197+822990946+824243951
2480+826418940+827516516+826334398+824584287+824952698+827020112+828820565
2467+828893303+827023302+825845842+827245344+828789874+828529805+827994097
2453+827575599+826800112+826530982+826714421+827197873+827987015+828495159
2440+828936180+828779155+827834138+828357978+830682845+831773274+830464057
2426+829132253+829273134+830012253+830529521+830728593+831051575+831879446
2413+832777950+833209400+833052248+832739348+833041465+833384226+831803135
2399+829350785+829792189+832469452+833929313+834031784+833473745+832438826
2386+831938402+831908222+831507909+830588158+828479463+824568528+820574837
2372+817810799+814824847+811356082+808393993+805610558+802924554+801163596
2359+801446572+803570262+807224700+813202283+818937470+820625307+819104384
2345+817803334+818003363+818197139+818117511+819197540+821600632+822612454
2332+821502564+821640766+823790807+824995192+824393255+824050111+825103789
2318+827600100+831337294+833892881+834079064+834739319+836591135+837467626
2305+837413966+837469860+837849245+838692812+839900197+841517465+843206387
2291+844129966+844386143+844775610+845594612+846441306+847056771+846652757
2278+844665929+843317216+844598933+847176086+848109683+846482524+845192704
2264+845975465+846813673+846606944+846693464+847875199+848860350+848466928
2251+848132908+849000402+849067334+847527333+846680384+846667368+846162223
2237+846439584+848338424+850058865+850459115+850154190+849687009+849706980
2224+850458860+851089892+851690299+852295682+851467619+849744498+849629840
2210+850955136+851672369+851831053+851969127+851606522+851482996+852451111
2197+853422799+853611024+853990027+855059081+856099169+856085195+854465439
2183+852625937+852470954+853981030+855824615+856262701+854959290+854031309
2170+854763089+856268316+857995329+859666513+859778044+858098056+857218821
2156+858578253+860608022+861154449+860169489+859923775+860655301+859893213
2143+857667690+856369192+856425851+856500503+856764720+858132128+859346530
2129+859387493+859960144+861616589+862136090+861062123+860082650+859382963
2116+858567087+858394239+858922482+859631548+860916264+861725377+860651090
2102+859338108+859153456+859401594+859719280+860364541+861037239+861063207
2089+861068503+861895545+862822314+862878846+862120394+861536833+862129008
2075+863462854+863866804+862753660+860981154+859940875+860749860+862414983
2062+862985337+862170992+861581688+862357367+863274693+863865209+864723707
2048+865017211+864775453+865184508+865978499+866207176+866008423+865812031
2035+865796718+866418244+867258047+867148174+866163470+865247547+864737489
2021+864267373+863778689+864018278+865131868+866286358+867321150+868644085
2008+870062920+870656882+870251272+870143569+870528570+870206226+869591145
1994+869438714+869328650+869752891+870809376+871633483+872414011+872671911
1981+871860055+871476331+872445084+873747666+874644766+875097718+874397138
1967+872792184+872070357+872495809+873451610+874437144+874385844+873268298
1954+872670061+873842416+875482272+875177538+873447271+872162236+872360287
1940+874637683+876653032+876582719+876063345+875595972+875211738+876435456
1927+878770724+879484384+877595753+875115201+873004017+872519417+875234070
1913+878025544+877793166+876056837+876122939+877712899+878572928+879174738
1900+880185347+880177627+878932023+878367539+878447934+877819964+878066315
1886+879258004+879289523+879118653+879942377+881014495+881939350+882801612
1873+882304124+878773276+874395160+874180647+877502278+880973915+883195162
1859+883907100+884120847+885087048+886192599+885746027+883975563+882646247
1846+882124193+882465806+883755180+884552106+884897356+885383232+885698237
1832+884943487+882099246+880160527+881381757+883252842+885535152+888096289
1819+889223726+889460187+889335576+887393284+884884594+885139624+887596950
1805+889662896+889877792+888397960+887202188+886701445+885672779+884089136
1792+883700052+886100720+889229468+891340461+892322485+892153784+891237990
1778+890565547+890167467+888428522+884647431+883490580+885643812+887813186
1765+889717705+890112722+889353697+890138053+891416133+892036064+891078285
1751+886292965+880616734+881606415+887489183+891309260+890407119+888672577
1738+889701817+889304120+883537413+882031357+887129514+891287375+892811424
1724+893376035+893896621+892154933+884538005+876898490+880574558+888618725
1711+893507984+893383947+889016869+884523777+882476525+878247841+873849435
1697+875987289+879832952+884194861+887837113+888082890+885581921+879490573
1684+872452677+876175259+883762518+888479566+889096371+886539699+882862227
1670+878616060+878658810+883653666+886932803+886106463+884433684+883517761
1657+881442244+874517411+862980232+862967280+865124850+862752639+865316521
1643+871807160+874735943+873513309+867270297+858807122+860494321+867246179
1630+871362630+872936958+872711279+869941371+870012067+874993142+877878473
1616+877670596+880737134+885199090+888129213+891103425+895499725+899437841
1603+901609066+903341056+905422762+906787298+907120361+907584224+909041724
1589+911365826+914041877+917008623+919520759+919779233+917617962+913016720
1576+908357478+909986168+912368842+909773569+908527519+912602433+916600717
1562+917282283+908702983+892532149+897257173+909590321+917977504+922064541
1549+923765905+923065835+917955427+908475518+898812296+903777227+918279175
1535+926974728+928658928+928004607+926454525+921615800+916251256+913557213
1522+914197880+919252905+922680771+925164385+930105901+932779144+930868627
1508+925108747+922170011+929936243+936108176+937042092+935118495+934766993
1495+938594088+941551519+938414731+932358668+933352816+938696878+942024953
1481+942934750+942129785+938336506+932144411+925877025+924880708+931293059
1468+937068252+936938664+934359788+934559498+934310850+927413516+919111193
1454+921969727+927102657+928974125+930121597+933823506+938444720+941899703
1441+944040620+943106131+938621396+938486448+942542476+943338573+942545220
1427+944305603+946529594+947881306+947744253+943159089+938752005+940787325
1414+944029901+945938312+947377947+947148696+943848057+939012330+936340108
1400+935122515+932174208+926963498+922263167+922197639+924303591+922970127
1387+918282301+916129516+917951025+919496895+918761924+918542690+920352075
1373+922886032+924453596+924430754+924129977+923599501+920795266+918187742
1360+918715410+919097156+917742446+916853003+918531269+921642279+923429269
1346+923619281+922919019+920723038+916762846+913958164+915819360+920440765
1333+923285580+922552204+921092981+921938590+924990644+928774033+930708221
1319+929993604+930595541+934026151+937219279+940473659+944622077+946242025
1306+945523834+946994798+951131539+954364927+954757903+954666789+957819273
1292+963844582+968963348+972506510+975327973+975801215+974384231+974020351
1279+976293855+980397545+983241403+982743276+980570393+978745056+977454215
1265+978134696+981476107+983360144+982611136+984298654+989189763+993036127
1252+994235664+993928314+992634793+990981347+991221063+994359509+996659174
1238+994918506+993468981+997099174+1001823496+1002005150+999788623+998732266
1225+998593617+998449609+999153571+1001608984+1002189100+998941610+998292330
1211+1003680289+1008821196+1008423817+1006337517+1007093481+1008567889
1200+1007247123+1004478172+1004665504+1007758138+1009365326+1009397547
1188+1009833655+1009935488+1010105401+1011781115+1014357821+1015701302
1177+1015852648+1017260316+1019271390+1020437556+1021577754+1020811454
1165+1017324568+1014613744+1013838384+1014286679+1016916534+1021425451
1153+1023622325+1021530857+1019945746+1021304604+1021917516+1021865323
1142+1024574617+1027244733+1026760197+1026010870+1026849269+1028525557
1130+1030178684+1030907530+1030215308+1029403388+1029818185+1030031741
1119+1029052205+1027030795+1026067912+1028780905+1032043134+1030591184
1107+1024552540+1021299691+1023092870+1021867876+1017876355+1018356744
1096+1023193618+1028879421+1033669909+1036570554+1036917845+1036672897
1084+1037748779+1037234318+1033346417+1031685697+1035352769+1039434255
1072+1041200892+1042035271+1042343258+1042118218+1042208630+1044026884
1061+1047829095+1052824973+1057161488+1058943118+1057920386+1056256412
1049+1056739034+1058471726+1058436888+1055583140+1053252148+1054656818
1038+1058278652+1061816582+1062727336+1061194163+1059032701+1054624660
1026+1049927582+1047658034+1046083451+1047124304+1052218951+1055446215
1015+1054686997+1053620814+1053157716+1054052775+1055693140+1056342485
1003+1059661947+1066260353+1068625609+1066322372+1065350429+1063303879
991+1057118483+1052635599+1053091359+1052566626+1048688933+1047925632
980+1051426939+1053700825+1054649990+1056927770+1056429452+1050325088
968+1046477830+1049940152+1055107792+1057516627+1059623727+1063046170
957+1063830591+1059428994+1055099561+1054794381+1054233024+1051667548
945+1050986173+1051962838+1053004520+1054942282+1057813002+1060696100
934+1062665892+1064446438+1068255986+1073136057+1073741823+1070717971
922+1069609165+1068724124+1066120748+1064649529+1065695104+1068086966
910+1068395975+1065885371+1063458032+1061180126+1057446378+1053773499
899+1055348146+1063060590+1068142413+1067048985+1064421809+1060363867
887+1058273420+1061975520+1065320759+1064651635+1065116966+1069041172
876+1071590825+1070415407+1068203475+1064934547+1059435438+1053801127
864+1051802878+1053359787+1054576678+1054533419+1052541104+1045460266
853+1037279748+1035243471+1039230079+1045080434+1043693247+1031271921
841+1020562295+1019432945+1023540016+1026997807+1027815087+1024426397
829+1013410889+1004688283+1009871556+1018259887+1018244128+1016190687
818+1013206713+1005546142+997748646+993163738+993677050+999826715+1005738515
804+1006866717+1003970603+1001495921+1000836623+997157109+990700222+984390788
791+977029783+970516556+967692797+967850204+971202397+974004208+970217629
777+965274200+964107651+961060063+952301533+942372818+940259338+946380227
764+948664642+944514118+943855777+943771746+936348403+931175976+934482166
750+935430566+930595669+928661863+930108900+928148806+923209141+921210510
737+922333352+922587424+922202934+924373649+927488742+925816793+920060933
723+918098798+921512946+924112941+923045609+920330382+919225213+918478693
710+912857207+906655604+906385262+908461480+908190755+904583852+899821629
696+899410277+904248747+910045506+914126865+915088536+910176690+900895660
683+893646697+890222722+889573314+889629016+884830552+875407364+865237785
669+858915527+867421643+882992390+888346278+885414177+883550429+885018968
656+881662563+872703176+868776864+873678309+880449819+880629814+870687763
642+863611392+873193965+887670007+883392895+863687640+855523264+858253230
629+850489614+835650137+807886040+773286819+775440816+824252501+866457675
615+857510347+833114203+831464840+868593488+910327908+888209990+840404895
602+828289196+853291935
##END=
