##TITLE=Sample description
##JCAMP-DX=4.24
##DATA TYPE=INFRARED SPECTRUM
##DATE=25/8/2023
##SAMPLING PROCEDURE=Instrument type and / or accessory
##ORIGIN=Default
##XUNITS=1/CM
##YUNITS=ABSORBANCE
##RESOLUTION=4
##FIRSTX=4397.6552
##LASTX=599.8556
##DELTAX=-1.9287962
##MAXY=1.8806568
##MINY=0.22017232
##XFACTOR=1
##YFACTOR=1.7514982e-009
##NPOINTS=1970
##FIRSTY=0.22267537
##XYDATA=(X++(Y..Y))
4398+127134228+127513491+128066379+128445515+128429537+128227353+128173763
4384+128266369+128360225+128365662+128264140+128200460+128225047+128207521
4371+128223711+128434174+128578430+128355938+128182909+128468911+128820847
4357+128853823+128819231+129046539+129316853+129367924+129349795+129233810
4344+128992209+128896225+128819707+128416036+127944456+127945324+128379104
4330+128679629+128602388+128501266+128555570+128494170+128319184+128354006
4317+128585976+128739285+128687226+128456924+128315169+128576048+128962219
4303+129064499+129087954+129135716+129022318+128926870+128957966+128960509
4290+128982263+129042362+128986339+128888041+129100044+129617769+129831916
4276+129579935+129491218+129742662+129961164+129987223+129829219+129694108
4263+129793121+130026971+130194793+130212957+130183027+130174332+130151174
4249+130065374+129939444+129908876+129932187+129901210+129936347+130168913
4236+130390554+130336224+130067297+129744457+129769027+130322348+130847501
4222+131036712+131002596+130785157+130520398+130411185+130589804+130965775
4209+131135162+131006076+131194384+131721911+131754869+131393276+131279767
4195+131266138+131121567+130926427+130787607+130904502+131206023+131339755
4182+131328831+131464009+131674404+131723467+131697732+131694635+131618457
4168+131434326+131227249+131249403+131628786+132091220+132319931+132270119
4155+132081674+131822318+131566875+131517029+131687420+131854962+131828324
4141+131697630+131746855+131939520+132077191+132176960+132211969+132217542
4128+132388359+132718201+133042351+133239925+133168477+132759846+132374653
4114+132434070+132724735+132785981+132558878+132372585+132512766+132800521
4101+132853302+132822011+133112174+133354081+133120792+132979352+133347275
4087+133672429+133521129+133331280+133528071+133835036+133972801+134033571
4074+134110821+134236734+134345760+134370304+134446873+134551866+134536918
4060+134605099+134868683+135097786+135136683+134878535+134430785+134244986
4047+134466415+134791119+135033162+135268722+135483286+135447630+135201759
4033+135079588+135097225+135076943+134997983+134959775+135044528+135142213
4020+135157604+135150542+135227537+135427416+135553823+135428973+135214460
4006+135112998+135008558+134851166+134855905+134999438+135167779+135325647
3993+135294909+135162913+135172824+135208667+135216468+135352659+135441020
3979+135251094+135064428+135163695+135322712+135335746+135457890+135794573
3966+135884575+135531737+135233194+135293258+135498497+135601746+135373145
3952+134759071+134100058+133986370+134327060+134353127+134348423+135086497
3939+135968444+136006703+134930866+133415481+132978518+133860491+134435031
3925+134173607+134179009+134365268+133890642+133614798+134613564+135997140
3912+136728519+136524998+134941033+131890856+129240105+129083922+130769052
3898+133145975+134819016+134555457+133134345+133041271+133713308+133294901
3885+132527399+132134907+132271531+133793884+134697339+133425154+131324118
3871+130034509+130466664+131553255+131734859+132475520+134306505+134979436
3858+133554079+129877100+125705136+127941316+133100824+136014147+136065618
3844+134060872+131358403+128830342+127983659+129889785+132070895+133396679
3831+134475493+135020120+134901787+134105946+131665726+129320043+130339423
3817+132241976+134412664+136986701+138174056+137267097+135428641+134549153
3804+133466135+131969313+132688033+134437796+136359473+138566983+139968953
3790+140285353+139785238+138807648+138274889+138235371+138008046+138450164
3777+139737093+140255635+139364398+137862191+137235065+137540584+138141931
3763+138592387+137899693+136583420+136333933+136005529+133504037+129639038
3750+129293601+131458130+132659013+133859274+135559438+135974144+133991705
3736+130682393+130535959+134156541+137423170+138391461+137553448+136819500
3723+137379364+138783545+140239139+140900891+139855579+136826638+134894606
3709+137171581+140202428+141345127+140857927+140566539+141296412+141983193
3696+142092109+140967395+138144203+136030388+137960318+141233787+143141597
3682+143264091+141678832+138715884+135673670+136039985+137554970+137879487
3669+140352189+144216507+146390352+146918627+146694194+145833984+144600322
3655+144092873+143358577+140245664+136668191+138977282+143890884+147082944
3642+148557492+149296485+149664663+149602710+149090719+147718977+145475505
3628+145674312+149070147+151510980+151578275+149716764+148451759+149222417
3615+150384650+151541760+152619579+153514671+155394916+157713663+158747039
3601+158717874+158962912+159419553+159681878+160408296+161033525+160146022
3588+158967370+160394361+162827519+164058698+164149509+163922252+163977773
3574+164148913+163848780+162361044+159410364+157798264+159700816+162110136
3561+163143256+163414786+163557171+163180826+162586616+162527743+162276546
3547+161386508+161164832+162160859+163229149+163619515+163478866+163286661
3534+163159148+162739635+161974677+161427957+161304375+161291579+161607724
3520+162383606+163104444+163516266+163614257+163258535+162610506+162167937
3507+162076565+162027612+162115904+162741694+163525454+163974625+164193902
3493+164216226+163958767+163626729+163425540+163321662+163195476+163269186
3480+163992916+165024845+165523360+165351421+165189690+165540767+165949935
3466+165886417+165456779+164940415+164686240+164607953+164465875+164553606
3453+164925612+164988926+164331317+163714120+163961540+164582293+165188107
3439+165814476+166159206+166210916+166440895+166973475+167497530+167896608
3426+168270213+168523351+168727960+169351878+170433254+171859155+173692030
3412+175436016+176746962+178022619+179528272+181224547+183213912+185384574
3399+187251054+188719767+190191508+192028857+194132395+196099571+197900474
3385+199790401+201859891+203992762+206123218+208094597+209778452+211574539
3372+213784814+216321561+218897836+220979883+222611126+224383289+226403554
3358+228501442+230733360+233009382+235204785+237695421+240562045+243110636
3345+245066242+247032534+249406257+251764106+253744146+255574741+257533512
3331+259594323+261312361+262243985+262388836+262452185+263349063+264740798
3318+265935206+266895704+267423724+267939884+269332385+271393503+273250471
3304+274458407+275080879+275443867+275976736+276641065+277070652+277349516
3291+277386745+276841897+276113607+275645737+275143087+274329397+273360952
3277+272534636+272181994+272233618+271986453+271204548+270650648+270743841
3264+270966435+270961450+270883009+270764344+270526997+270333159+270304913
3250+270397936+270529397+270356657+269935272+269736244+269497876+269023233
3237+268638517+268283117+267991475+267925370+267580742+266696727+265928672
3223+265674106+265644346+265410827+264737514+263799203+263084253+263218164
3210+264120385+264680223+264522304+264209409+263789675+263372918+263329427
3196+263414623+263323029+263008314+262533416+262218054+262070990+261873952
3183+261725119+261531264+261142293+260862816+260818032+260908111+261075304
3169+261102784+261074776+261173806+261168071+261014508+261022692+261319933
3156+261775621+262142659+262223703+262194385+262153225+261937335+261805551
3142+261974530+262122853+261991341+261759405+261796243+262192479+262548764
3129+262306363+261532557+260895043+260772006+260915224+260926896+260823919
3115+260763498+260712044+260497735+260014126+259427862+258775103+258144243
3102+257927978+258070890+258240686+258436872+258626934+258656472+258489297
3088+258268404+258225423+258167571+257934444+258074208+258723172+259367050
3075+260093860+261371388+262905983+263706929+263275505+261975840+260257071
3061+258361580+256476417+254765355+253431847+252386476+251356691+250552597
3047+250184913+249996860+249816718+249691196+249791570+250280811+250959791
3034+251447212+251664226+251771882+251675422+251162206+250576878+250499986
3020+250999794+251950220+253243198+254478205+255424155+256385623+257675096
3007+259324477+261202493+263341491+266063263+269263405+272671746+276990765
2993+283018633+290524674+298853271+306996536+313344991+316734683+317502891
2980+317066074+316417109+315467551+313933143+312042773+310209269+308401526
2966+306369794+304535371+303493760+302985376+302332396+301389270+300724141
2953+300735745+301123763+301678258+302602974+303732485+304487490+304770216
2939+304826027+304651824+304270748+303838116+303381799+302618730+301195465
2926+299354543+297556805+295413247+292305771+288627635+285095541+281828428
2912+278864612+276408551+274407616+272595160+270705863+268766132+267224560
2899+266289159+265725390+265300024+264909607+264673332+264749544+265059393
2885+265389865+265572609+265510963+265206201+264845289+264464128+263856817
2872+263033854+262170904+261342581+260512845+259584386+258534592+257398172
2858+256081032+254484194+252597755+250275281+247447401+244533543+242057131
2845+240006665+238166236+236537834+235070687+233655522+232251162+230902441
2831+229777558+228971150+228365319+227767469+227200722+226796812+226455468
2818+226093245+225837301+225702879+225619674+225709822+225961598+226016149
2804+225699970+225265194+224950189+224679645+224371413+224136227+224009667
2791+223893027+223646815+223204808+222796644+222634215+222515040+222287052
2777+222020234+221626533+221140524+220813762+220679205+220594468+220467466
2764+220331088+220306399+220376927+220380586+220249193+220041691+219872474
2750+219774329+219654831+219537748+219452638+219309505+219142380+219023222
2737+218959006+218967752+218957372+218802312+218657341+218710123+218743422
2723+218590386+218496036+218608881+218809118+218953391+218964059+218941480
2710+219004709+219080597+219176428+219364277+219550969+219678159+219804276
2696+219963574+220095358+220121272+220067299+220020677+220045775+220112424
2683+220146778+220099901+219973613+219856718+219750848+219592742+219478688
2669+219445457+219309913+219086553+218991505+218968619+218914783+218890383
2656+218837993+218699896+218506568+218286390+218162927+218210399+218342540
2642+218493109+218582984+218513459+218363656+218358348+218622596+218954173
2629+219036613+218963294+219045154+219239401+219398155+219602458+219818620
2615+219954590+220146591+220465594+220776090+220995622+221186279+221379199
2602+221582157+221877850+222275549+222697666+223066847+223344622+223605519
2588+223916746+224182594+224300442+224364981+224485637+224635644+224788220
2575+224915308+224920106+224733312+224493634+224358209+224192088+223950249
2561+223853126+223879482+223847051+223790475+223812765+223916304+223998386
2548+223981966+223875841+223675911+223521037+223563729+223709720+223893537
2534+224068591+224112422+224131241+224304985+224549767+224704403+224779985
2521+224876785+225028953+225235621+225499206+225771009+225979787+226123703
2507+226325011+226690653+227093287+227398423+227715538+228096579+228412724
2494+228595111+228709335+228858883+229049523+229224645+229363762+229475791
2480+229585455+229700138+229794080+229824690+229831820+229886762+229973541
2467+230098603+230223070+230209764+230014752+229800699+229749364+229803881
2453+229886184+229983137+230003062+229993040+230063364+230101104+230001003
2440+229895746+229872435+229882066+229970291+230122663+230164095+230083408
2426+230058481+230126747+230185909+230209509+230260946+230389616+230546140
2413+230642447+230669672+230796844+231143634+231444788+231518635+231581047
2399+231745058+231925761+232075564+232175154+232255603+232378913+232457966
2386+232292373+231836787+231183246+230283288+228949711+227158592+225145168
2372+223188303+221474178+220068065+218845871+217713041+216918119+216820791
2359+217452553+218634626+220296377+222559637+225108245+226614782+226103080
2345+224329538+223206322+223284473+223877066+224607364+225212991+225488418
2332+225652225+226271089+227453213+228591249+229366910+230096936+231025786
2318+232256130+233679378+234807954+235486559+236033245+236676492+237463860
2305+238236611+238740826+239048140+239464080+239998787+240440607+240772100
2291+241078069+241419703+241834401+242217773+242451258+242559662+242642051
2278+242738374+242820167+242943307+243145636+243342385+243540800+243744065
2264+243792389+243730504+243829210+244094632+244354627+244590867+244793044
2251+244913904+245053787+245270715+245422900+245453766+245452507+245497853
2237+245638859+245853235+246123745+246497384+246892208+247110277+247166887
2224+247233825+247313559+247368076+247482164+247695502+247937035+248146817
2210+248333747+248519554+248703967+248889995+249131120+249411107+249589836
2197+249700470+249924017+250252430+250503219+250601772+250718446+250973046
2183+251255109+251481175+251662848+251820971+251972850+252107816+252229424
2170+252345401+252456596+252637367+252957800+253290636+253456145+253533224
2156+253641050+253750289+253944366+254247545+254491476+254648596+254802483
2143+255015055+255308008+255588047+255774705+255927298+256132929+256338508
2129+256487052+256674850+256941701+257181600+257300487+257322266+257368344
2116+257541560+257802099+257995052+258091870+258200257+258341621+258494997
2102+258710921+258991981+259255293+259483809+259696483+259862672+260021732
2089+260289978+260621692+260876684+261135725+261510114+261897536+262186660
2075+262453461+262819665+263182976+263411203+263558147+263709328+263945858
2062+264289092+264664229+264998410+265288198+265553093+265752614+265887359
2048+266020844+266226900+266517454+266792200+267071524+267430496+267748683
2035+267966037+268212283+268524395+268825345+269091312+269329135+269583838
2021+269851182+270006856+270171411+270631029+271225102+271696478+272134759
2008+272562780+272900704+273203866+273497262+273766053+274111260+274481531
1994+274569976+274553676+274953910+275685876+276497439+277267570+277847418
1981+278294786+278729000+279152750+279556983+279980103+280291518+280328152
1967+280486071+281248834+282258065+282985521+283401869+283658665+283975847
1954+284488877+285022682+285311024+285191695+284683549+284158303+284438954
1940+285595673+286575892+287012982+287229315+287431695+287647654+287841663
1927+287831964+287448507+287221148+287498600+287861128+288555694+289589137
1913+290104328+290025785+290159798+290896629+291744640+292382817+292915533
1900+293295587+293292218+293057883+293071563+293113659+293087830+293742648
1886+294819718+295615662+296252545+296887387+297473872+297933184+298188856
1873+297809891+296320879+295036562+296289571+298808827+300368826+300934858
1859+301257061+301650796+302082372+302537839+302897067+302749339+301826019
1846+300563992+300794040+303059699+304868089+305544516+306137194+306629686
1832+305986472+304839809+305223062+306634722+308166749+309948458+311390882
1819+312273059+312894901+313135260+312804482+312688369+313574493+314733238
1805+315236177+314869530+314362780+314827537+315672246+315551301+314640470
1792+315156613+317868449+320036984+320717666+320757073+320723553+321064540
1778+321876376+321871101+320268189+318788808+320220410+323192410+325447826
1765+326146271+325793101+326061773+326941160+327788489+328650077+328194032
1751+325948791+324555202+325904756+327923284+329196780+330038086+331152726
1738+331893370+330942077+330058709+332557410+336111743+339116004+340986295
1724+341754673+341976451+340834722+337876131+337299583+341929353+346702460
1711+349234035+349495867+348494344+348149103+348446157+347933893+347798417
1697+350330196+355916534+361232838+363498600+364036829+363694514+362150577
1684+362850248+368312067+373286465+376252476+378007675+380229775+382472532
1670+384895311+390151381+395277318+397540187+399011945+401530418+402999352
1657+401651636+397390724+394605825+397607227+398826036+400008907+406605513
1643+413945621+418721110+421185611+422534552+428951919+441543264+451689949
1630+459880551+469017070+479091677+490375769+503775683+514693673+522450588
1616+532265780+543124522+550613923+555480035+559282315+562504475+564489653
1603+565502678+566505324+567132305+566537347+565179523+563753706+562051731
1589+560115454+558224472+555998458+553086591+549611890+545363332+539610788
1576+534804570+534161118+533338699+530900130+530295132+531703321+532816907
1562+532306004+528825552+527928980+535663640+542542530+547892422+552788210
1549+557924798+562113292+564291289+565780845+571337133+588096350+603533340
1535+613669373+625289960+639006835+649826204+658430517+666488162+673543671
1522+681667131+691193198+698503053+705076892+711189003+713754575+711543603
1508+705665691+705012846+713663373+720160303+723150305+724176670+726828067
1495+731946075+735320283+736221755+738229837+744439003+751912750+758412062
1481+764197887+769212442+772125807+771640802+769078089+770736267+777353870
1468+782485081+784419520+786886063+790637058+791485034+788939473+791950438
1454+800931198+808131610+813294130+817185876+820937349+824940035+829723317
1441+835838083+840891500+842451466+843944731+847352562+849542367+851539491
1427+854427401+855176212+854001609+852629969+849783100+848062782+850895971
1414+853710851+853002401+850770602+849394674+847714376+845693908+843696035
1400+838888456+832169033+828771888+829440046+830559927+828829536+824891576
1387+822440143+823465282+825817210+826766937+825072278+821865501+819148765
1373+818746182+820227061+820988803+821247980+821481907+819209816+815675255
1360+814445387+814176477+813419567+812679944+812697572+813610547+814561772
1346+814316547+813235393+811802021+809550144+808327695+810076190+813030732
1333+815187732+816631857+818225377+819518474+819579117+819161288+819777720
1319+821320466+823330249+826112460+829349116+832645326+835892600+839081409
1306+842378232+845565136+848645455+852149456+855651620+858499374+861199707
1292+863211668+863276190+862317751+862559777+864082172+864511503+863357183
1279+862211235+861668514+861633122+862087907+863164365+863387402+860837144
1265+856884347+853968259+853005191+853187528+852892958+852365959+852326416
1252+852388964+852601724+852696397+852271150+852155718+852441916+852097934
1238+851048632+850781083+851819223+852115358+851095595+850575266+851121935
1225+852180152+853337263+853985002+854097304+854993331+856926204+858573901
1211+859453254+860055800+861175886+863204317+865245885+865998779+865952430
1198+866084809+866313019+867453862+869193442+869227200+867809415+868528142
1184+872787693+876510579+876954815+876928408+878989305+882762693+886521447
1171+888858333+890062406+891517897+893610919+895989935+898830270+902097690
1157+905302358+908600202+912567837+916401731+919372064+921899997+924093546
1144+926413757+928473565+929634487+931241891+934125037+937030507+938562635
1130+939527200+941125485+941956445+941636897+943307599+947750982+951405059
1117+952648812+953261636+954073608+953546881+951237560+949935139+951703780
1103+955494115+958769363+961132452+965251728+970394441+972721799+973208709
1090+974016325+974529848+976024202+980194184+985833064+990680188+994333856
1076+997099052+997568403+996989201+998594563+1002144642+1006460002+1010615419
1063+1012764659+1012810124+1012695101+1013458204+1014842027+1015926516
1051+1014844818+1012772418+1013920885+1017676986+1020487578+1022432294
1040+1024238234+1024777143+1023544212+1022647913+1025273106+1031218127
1028+1036532764+1038717192+1038434329+1037247340+1037277627+1039863821
1016+1043824514+1044879669+1040439892+1034488610+1030429636+1028758663
1005+1029652989+1030991551+1031213635+1030849915+1031402845+1032963083
993+1032343793+1029903250+1029112241+1029985264+1031870495+1034635486
982+1036119495+1035441877+1034762829+1034482893+1033692837+1034173894
970+1037463706+1041630081+1043997866+1044158967+1042992736+1041518120
959+1041514581+1043678454+1046098987+1047035307+1046797637+1048198407
947+1052938470+1056601871+1056190100+1055624510+1057365043+1058403386
935+1056579207+1055451975+1056805783+1057996720+1058129031+1056571652
924+1054327329+1054951928+1057286704+1057088714+1054601412+1052922271
912+1054015677+1058575513+1064709949+1067537012+1064905217+1061619488
901+1062139749+1065304737+1069194237+1073052158+1073741823+1067758960
889+1060184007+1058283054+1057905382+1054242049+1052544463+1055041905
878+1057017794+1057125263+1056791013+1054404103+1048831854+1043892711
866+1042709465+1041281402+1036915745+1032093191+1027625306+1025482190
854+1026193636+1024074546+1017897845+1012598385+1007961912+1001789906+996437087
841+993068256+991074399+989586034+986155675+981230894+978096670+977234945
827+975558595+971350227+965890347+960543585+956452623+954139491+953300975
814+952556180+950685515+948917213+947323557+944175857+940538388+937804568
800+934289541+930698762+930225735+929203863+922198923+915701516+916766404
787+919104855+916271938+911769545+909273464+907630940+903823998+898750775
773+896329357+895520856+892288488+888459426+888763796+890644875+888551581
760+883703640+879732875+877693621+875598217+871116447+867143843+865931126
746+864297995+861167242+858968589+859137789+861996978+866181524+867758369
733+864700918+860524335+858920265+859493954+859317199+856797432+854320409
719+854052315+855344391+856627075+856254235+854359612+851542690+847758140
706+844475406+843371383+845534100+849852319+851183394+847732957+844223715
692+843045709+841992256+839522855+837163713+836815920+838013323+839518431
679+840429704+840933630+841672776+839158251+830637381+820848597+817312334
665+819708774+823245649+826619244+829273364+830944201+832304407+833568850
652+829173041+819066615+813793632+816235264+820109519+819741103+815542468
638+814417073+820536535+828509103+828002387+820429951+814639158+809813541
625+802903343+794416708+790115709+796993578+804869431+800429382+794746397
611+801503526+813819427+813913284+804163839+799576165+802165286+806809451
##END=
