##TITLE=Sample description
##JCAMP-DX=4.24
##DATA TYPE=INFRARED SPECTRUM
##DATE=25/8/2023
##SAMPLING PROCEDURE=Instrument type and / or accessory
##ORIGIN=Default
##XUNITS=1/CM
##YUNITS=ABSORBANCE
##RESOLUTION=4
##FIRSTX=4397.6552
##LASTX=599.8556
##DELTAX=-1.9287962
##MAXY=1.8034217
##MINY=0.70828086
##XFACTOR=1
##YFACTOR=1.6795674e-009
##NPOINTS=1970
##FIRSTY=0.781883
##XYDATA=(X++(Y..Y))
4398+465526428+465552725+464090296+463062809+463649640+465233261+466535497
4384+466406604+465166685+464080217+463763628+464300776+465547544+465944442
4371+465087973+465443564+466914332+466878915+465138579+463506056+463186450
4357+463931345+464869544+465101849+464607819+464441238+464854106+465120657
4344+465312932+466391628+467627572+466818337+464550151+464053566+465602337
4330+466272069+465694500+465559184+465738292+465308531+464541243+464518176
4317+465602834+467083255+467794934+467654649+467404600+467151889+467187732
4303+467052629+466056017+465271766+465437495+466063860+466848715+467772079
4290+468242935+467777225+467253350+467638254+468530070+469036981+469184115
4276+469401906+469868751+470240560+469784041+469001990+468595510+468155315
4263+467883973+468149886+468415337+468685578+469333272+469847600+469750186
4249+469403183+469653906+470352632+470151095+469142949+468740372+469358468
4236+470173381+470274913+469782160+469538677+469876701+470503704+471116087
4222+470930697+469938344+469849517+470714397+470898687+470366578+470020073
4209+470033913+470499410+471798736+473050436+472710212+471647486+471649367
4195+471619344+470222603+469291289+469849623+470496287+471103879+472337126
4182+473375365+473357870+472948550+473016510+473735286+474826899+475095473
4168+474207348+473433459+472913275+472514602+472911997+473622540+473830323
4155+473351695+472414064+472288259+473222341+473688619+473663280+473770916
4141+473166624+472293617+472571383+473241220+473435660+473737486+473724000
4128+473029676+473032621+474139318+475063073+474782220+473623924+473167192
4114+474101487+475315890+475608880+475226105+475704768+477287218+478064088
4101+476967115+475153816+474070613+474325204+475827628+477175005+477346590
4087+477264080+477184941+476871972+476692402+476092121+475252579+475373913
4074+476113875+476777786+477402270+477566651+477141965+477082452+477793314
4060+478505986+478783609+479026738+479333887+479107189+478371237+477843565
4047+477760416+478319531+479653458+480784854+480159234+478073741+477178341
4033+478400409+479348828+478697302+478335217+479162231+479167093+478045989
4020+477853076+478760684+479627658+479788916+479031351+478521104+479178414
4006+480059654+480254271+479790122+479344037+479625209+480114448+479837463
3993+479222100+479432935+480257926+480667778+481130224+482737196+484644929
3979+484869675+483328676+482251151+482643826+482836917+482385934+482463724
3966+482837414+482564369+481359299+480367727+481074259+482591127+483226293
3952+482757601+481571057+480690881+480841209+481369981+482079814+482854093
3939+483314019+483609954+483291307+482465392+482678605+483693422+483904541
3925+483588981+484338383+485462326+485286163+484556741+484514510+485049884
3912+485756558+486062856+485288541+482828542+479808683+478830702+479856237
3898+482082866+484360811+484866517+483647749+483680434+485205534+485248049
3885+484135888+484101855+484142276+484296649+485137894+485325768+484179503
3871+482728253+482904593+484039254+483782284+483289213+484616645+486312266
3858+486111865+481788599+474804471+476866897+484042341+488472994+489472978
3844+487725189+484563803+481642210+481085722+483712195+485993619+486991828
3831+488671905+490250415+490062151+488807647+486515755+484129855+484978659
3817+486373199+487708865+490495212+491920024+490528926+488329480+488029500
3804+488140045+487722847+489525216+491601660+492027482+492789198+494254715
3790+495183935+495159129+494798392+495274784+496284492+496066737+495145963
3777+495731374+496898755+496413420+494160529+493273220+494728481+496056445
3763+496613857+496119898+494542736+494482158+495962686+495343560+491251818
3750+489940711+493408217+497233088+501505926+507998685+514837241+519242911
3736+520323842+521263567+524719398+529109807+531469127+529519872+524946344
3723+521948807+519767921+515788322+511388721+509083415+509355928+513006588
3709+519846563+526294324+530476773+532852879+535799100+540871626+545934606
3696+549279785+550374735+547754649+541885557+538986712+539591890+539228421
3682+536713273+532549065+527038225+519198054+513282792+512139543+510371490
3669+508903171+509873521+510349523+509616765+508801426+507521938+504644528
3655+502484900+502155500+500121571+496290134+497397008+501430904+503769073
3642+503931040+503091534+502759081+503170814+503471966+502984253+499976637
3628+496008891+495912683+495567739+491503181+484295229+477589044+473866769
3615+471013455+468967531+468654349+468853189+469772046+471963046+473393784
3601+472640443+471171519+470143287+468734445+466739553+464415651+460787916
3588+456208568+454170558+453995885+452819135+450552333+448416624+446816644
3574+445633009+444737290+443226491+439939335+436352021+435477275+436100588
3561+436537198+436728088+436335413+434901552+433436497+432853427+431843862
3547+429643849+427992304+427998905+428552696+428781381+428568275+428282845
3534+428391296+428139366+426846855+425959759+426492648+427090622+426714555
3520+425660310+424641411+424379367+424449598+423849495+422873324+422305904
3507+422111075+422006598+422367796+423389356+424138368+424201288+423952339
3493+423135297+421913655+421704346+422608476+423036853+422695812+422515213
3480+423079935+423918874+423826711+422980214+422631188+422757987+423035788
3466+423631704+423929769+423343718+422726758+423129654+424243271+425119330
3453+425438793+425191299+424656494+424904698+425883743+426327912+426645602
3439+427538695+428320994+428752459+428875070+428621472+428937707+430341651
3426+431456474+431181938+430483497+430389347+430780603+431811248+433508147
3412+434953009+435482634+435428834+435648895+436896976+438974591+440830264
3399+442171962+443522461+445049017+446671923+448459601+450583811+452484660
3385+453573470+455033876+457699352+460282991+461836873+463420458+466203967
3372+469542722+472530678+475383992+478454031+481933603+485900640+490143028
3358+494656511+499237207+503186926+506554249+509799848+513292161+517593069
3345+522663608+528199005+533521510+537383395+539702045+541794530+545000524
3331+548973274+552010558+553877693+555620691+557714950+560161783+562363039
3318+563332857+562924141+562091058+562120158+563817837+566499282+568090178
3304+568357261+568775240+568741633+567490607+566151109+564988767+562883258
3291+559221987+555209739+552869689+552202336+551361339+550002110+548986866
3277+547856890+545692435+542650325+540350697+539525421+538450416+536374859
3264+534433554+533245980+532414104+531779257+531981078+532664153+532400015
3250+530856815+529196292+528120222+527370855+527665868+528968955+529007637
3237+527150758+525725698+526308803+527265669+526414345+524857411+524455118
3223+524280552+523226591+522157903+521709191+521648010+522178131+523122043
3210+523718917+524126214+524413384+523995725+523185744+522443191+521864026
3196+521823214+522106126+522463420+523524159+524923845+525016398+523860586
3183+523034104+522759106+522527440+522409513+522745940+524095446+525831382
3169+526380205+526164296+526559313+527520934+528357389+528572269+528333044
3156+528378291+528914978+529492866+530060498+530885099+531614734+532200749
3142+533039333+533672228+533959220+534326664+534466593+534532317+534783821
3129+534680835+534903523+535978528+536796174+537234026+537991022+539359195
3115+540928585+541385955+540753877+540350058+540497156+540819139+541115571
3102+541511264+542103205+542472885+542585240+542938417+543620747+544596279
3088+545531390+545828284+545576425+545250076+545347385+546073755+546993216
3075+547552615+547668945+547723490+547928043+548391269+549356652+550546000
3061+550911989+549903098+548983743+549745744+550985591+551208527+551509111
3047+552214331+551729812+550353442+549874814+550731000+551829924+552254042
3034+552498236+553108347+553738083+554362816+555424442+556467472+556528725
3020+555823576+555493608+556197869+557409326+558154967+558262780+558321158
3007+558641047+559100192+560071892+561497200+562229852+562496261+563539114
2993+564887307+566029243+567502424+568707777+569178243+569840877+571210717
2980+572975788+574152325+574084791+573690732+573853161+574333137+574861342
2966+575211467+575385217+575962325+576730464+577122998+577427380+577720547
2953+577524546+577234644+578224903+579999982+580798252+581048017+581474477
2939+581731659+582157410+582750842+582733240+582287651+582124335+582098322
2926+582020887+582442273+583505780+584199750+583607454+582252660+581200296
2912+580841866+581164453+581891072+582609422+583240400+584158229+585578640
2899+586641366+586488022+585753170+585795720+587189799+588890034+589735964
2885+589908010+589903467+589682731+588814302+588088038+588924706+590368574
2872+590825803+590732398+591040932+591779120+592467340+593153609+593990383
2858+594337279+594202176+594109019+593377255+591956986+591405040+592420922
2845+593949820+594918822+595522936+596188480+596884046+597397914+597371014
2831+596988807+597231475+598853068+600862262+601593033+601364134+601374142
2818+602033014+603311295+604463735+604875894+605471739+606624818+607000424
2804+606471652+606310039+607124562+608510585+609167114+608591923+608200348
2791+609153061+610745767+611596984+611485978+611373338+611885361+612960508
2777+614404234+615569380+615805872+615674353+616161250+616771645+616645591
2764+616785628+617976182+619020384+619025849+618555845+618349304+618851460
2750+620300155+621800521+622283443+622509644+623365830+624176094+624436151
2737+624668314+625052153+625405473+625974276+626893559+627756559+628227983
2723+628702600+629469285+629939148+629851847+629957105+630997119+632798494
2710+634313765+634424488+633465670+633162247+634123762+635366555+636262913
2696+636883813+637254734+637562771+637818569+637641058+637177086+636843427
2683+637002343+637639354+638013115+638319448+639450667+641070982+642266079
2669+642884423+643354854+643561465+643169606+642906781+643749907+645269862
2656+646125551+646001627+645825819+646354023+647387437+648427877+649325442
2642+649844561+650111361+650755044+651651331+651906987+651133986+650208598
2629+649918235+649869900+649838457+650358642+651904290+654017181+655357282
2615+655381911+655108510+655618403+656604901+657113446+657234886+657710001
2602+658541487+659302777+660008706+660756512+661328367+661805540+662327286
2588+662627231+662945701+663534661+663949091+664161807+664557996+665184787
2575+665900795+666604240+666796230+666183848+665925636+666753857+667700112
2561+668196945+668781079+669617392+670036719+669868009+669647770+669593402
2548+669838270+670338794+670596863+670581603+670796519+671812969+673701433
2534+675193636+675323026+674660676+674001307+674001733+674694957+675504654
2521+676345012+677205385+677773762+677991872+678162854+678445055+678740103
2507+679032312+679229413+679238995+679590611+680879822+682563519+684017679
2494+685183179+685488448+685062946+684789404+684519978+684305985+684843345
2480+685808054+686653806+687674444+688715309+689122500+689162530+689388661
2467+689481284+689292559+689468935+690113540+690724290+691299623+691941603
2453+692382649+692426796+692260215+692287825+692188529+691631082+691775519
2440+693044644+693832764+693534025+693438633+694221997+695178046+695741100
2426+696030896+696343830+696803827+696832430+696169655+696193503+697640068
2413+699159243+699803493+699934090+700290035+701302865+702307037+702722247
2399+702929569+703104667+703268977+704388555+708232555+716596672+731075957
2386+751995407+777632361+805963713+835849586+865861725+894587704+922838427
2372+951270282+975656067+991692995+1001595380+1009643441+1017424702+1022408437
2359+1020174816+1010487277+995507113+974486380+953366279+944600933+953261093
2345+971023877+980912706+979612422+975316020+972238777+971075548+971025155
2332+972492872+973170623+969222431+963891267+960427700+955095827+945604182
2318+933127348+919956084+911808657+910938560+909941415+900744179+883697757
2305+865158919+850431998+839408048+830306274+822394275+813557952+802550965
2291+791140123+780855177+771363106+762687970+756716672+754039451+752244960
2278+750157195+748948896+748798569+748755344+747896887+746380694+745797909
2264+746204744+745664260+743821222+742127872+741263453+741006945+741049105
2251+740789332+740162541+739853440+739959904+740084751+739784238+739023444
2237+738663027+739125011+739784522+739964943+739667482+739395927+739252272
2224+739298903+739630362+739901704+740467171+741892870+743436176+743877506
2210+743435892+743479755+744089867+744474203+744560084+744493366+744707076
2197+745704504+747035662+747840745+748266744+748733200+748775147+748452844
2183+748436377+748745408+749346434+750259969+751002379+751276490+751371385
2170+751454427+751822651+752976156+754142792+754117169+753256512+752604738
2156+752848470+753861939+754585967+754930202+755731523+756401112+756221330
2143+756406719+757662714+758596903+758437703+758217180+758659858+759457205
2129+760582532+761895663+762085524+760865089+760045030+760745565+762129316
2116+762791950+762497115+762190285+762246924+762416983+762808984+763343222
2102+763698529+763976969+764471956+765334317+766145078+766159486+765542064
2089+765318206+766074812+767244215+767833673+767736222+767676886+767960010
2075+768340159+768848277+769622840+770489531+770925041+770617430+770313439
2062+770815169+771740131+772040786+771387308+770939733+771645591+772930970
2048+773968641+774365043+774286260+774620487+775397960+775754473+775985075
2035+776616692+777085419+776977535+776989246+778025498+779552409+780579718
2021+781282170+781594962+781102174+780666451+781042412+781476928+781828686
2008+782702545+783359217+783370218+783643406+784327474+785001464+785470617
1994+785159670+784221152+784548565+786599706+788469786+789107011+788735237
1981+788184462+788332093+788645807+788581219+788965484+789609309+789334773
1967+789116450+790432562+792079493+792822472+793080187+793370976+793643808
1954+793662191+793758080+794299132+794853101+795068726+795165893+795869267
1940+797482130+798684537+798602205+798239659+798705972+799543278+799925130
1927+800121308+800330546+800300523+800032730+799707446+800649371+802895129
1913+803777505+802798601+801959805+802276926+803213741+803936704+804177668
1900+804524955+805439199+806661480+807414750+806774190+805514150+806131998
1886+808013506+808865220+809549146+810737572+810969522+810365018+810430316
1873+810805993+809737162+807981992+809104906+812019969+813635884+814321301
1859+815055692+815510294+815662183+816036583+816741021+817348507+817172699
1846+815133269+812252842+812627100+815382821+817138133+817515869+817733765
1832+817440989+816459885+816726826+818006527+818745957+819790513+821373424
1819+822443603+823005522+823414061+823068691+822208317+822384835+823534507
1805+824311909+824244056+824075985+824729108+825630363+825905822+825395432
1792+825024510+826248140+827800673+828163290+827535577+826908360+827028026
1778+827742260+827638138+825318139+822088367+822994804+827012482+829945219
1765+831027534+830282568+829022315+829125869+830318979+832450536+833872047
1751+832021698+828146611+827106171+829005423+830921212+830940660+829575078
1738+829120546+828465933+825540862+824995552+827796698+831079631+834017335
1724+835830493+836432158+834873379+829357465+825007973+828525269+833666429
1711+836397238+836507535+834705237+833722997+834967139+833711357+827447283
1697+823339110+824558836+829829740+834511826+834867559+831070191+824169247
1684+818435294+822516922+829203162+832996556+832849919+830726737+828792139
1670+826251902+826441834+829240922+829448385+827520317+828199133+830394143
1657+829872610+823459769+813175462+813650009+816833787+817215142+819698173
1643+823573615+825178245+824209988+819978458+814891595+817039121+821981477
1630+824655789+825868772+827624865+829832295+832810385+835818711+836239955
1616+836079052+840734877+846187338+848712813+849961923+851452849+852346155
1603+854002243+857882440+861686692+863265345+863579343+864154464+864941235
1589+866189848+868930664+871921743+872921797+872629588+872137723+869958115
1576+867998108+871226176+874680161+874233295+873240480+874210015+874922048
1562+874401935+869214782+861208668+866709819+874900968+879441457+881998090
1549+885029199+886857972+883764545+876008268+867768997+871033689+882135784
1535+888500006+891077719+895226064+899561574+900314134+898158232+895176594
1522+891393563+890676349+893665511+898728952+904959880+908855125+908261267
1508+901736071+897324830+906921804+915955086+918626629+916511255+915642010
1495+919929752+923659409+921864066+917616496+919308072+925067505+929137493
1481+929542625+928276765+926463962+921872796+914653808+914200199+922634939
1468+929403725+929051967+926032427+927432148+928470885+920474849+913325489
1454+921639923+930837870+934153096+935424848+940121697+945781835+947115478
1441+945449737+943380923+941442564+945061640+952852625+958146100+960649288
1427+961159678+958723704+956440826+955679535+951574627+946555191+945887589
1414+945721008+945220058+945718098+945190958+941162989+936316380+933493515
1400+929713039+924224734+919477492+917523092+919236102+920100024+916382291
1387+911175052+910203672+912366743+914407876+914684186+912090290+908897214
1373+909821111+913711812+916113008+916593871+915398845+912168080+911033384
1360+914312555+916585070+915345329+913538063+912869041+912592447+912455889
1346+912497552+912951728+913066497+912372350+912728579+914419871+916295629
1333+917144576+916445034+917141098+920375412+923188695+924413602+924580751
1319+923950340+924596366+927676093+930797413+932943733+935758152+938850939
1306+940821664+942874792+946376757+950863872+955379661+959491950+963606369
1292+966647770+967722704+968632477+969897982+971493385+973953420+975763738
1279+976531913+977771938+978761488+978111559+976764857+976551219+978008431
1265+979632153+980527660+981095398+980686647+980696228+982665463+983952545
1252+983235118+983307655+985063890+985769819+985434883+987060592+990234363
1238+992415816+993758402+995228390+995765467+995218169+995083953+995322575
1225+995227467+995297095+996314467+997363354+997075616+996632015+997377194
1211+998556534+999745669+1001512196+1002902051+1002190302+1000579427+1000491416
1198+1001554923+1002048279+1002546674+1004863336+1007891748+1008805425
1186+1008440465+1009586376+1011388816+1012168986+1012298163+1010798294
1175+1008361469+1008661840+1011136780+1012501084+1012975986+1012721891
1163+1010500691+1008974561+1010663865+1013399501+1016255866+1019062336
1151+1019830795+1021215256+1025010424+1025668302+1023362073+1023551296
1140+1025799395+1028560014+1029873003+1027694815+1025539197+1025702229
1128+1025907066+1025586822+1026028436+1026344493+1025780800+1026114246
1117+1027446540+1027477131+1025423080+1023619078+1024782449+1029296605
1105+1034580924+1035471179+1031427878+1027954303+1026649264+1026501776
1094+1029433234+1033866620+1035381536+1035452299+1037931781+1043378920
1082+1047807621+1048245757+1048105224+1049283287+1050504290+1050526506
1070+1049439150+1049868982+1052100686+1055085235+1058947333+1062868768
1059+1065902077+1066553497+1064724369+1063660649+1065467703+1067996868
1047+1067746677+1066345253+1068714225+1072941141+1073636281+1070772747
1036+1065804840+1061616677+1062345602+1066181581+1068118805+1067499325
1024+1067514656+1069580489+1070780484+1069094160+1066547322+1065169532
1013+1065265279+1066093784+1066556052+1066077956+1064789951+1063792097
1001+1063526433+1062647038+1061425822+1061769560+1062097470+1060269478
989+1058764925+1059313074+1060819969+1062325019+1062979846+1062261921
978+1060686179+1060554660+1062358236+1062235447+1058690542+1056594402
966+1058927105+1061016573+1060846940+1062945067+1067220105+1069016725
955+1068744319+1068715431+1065126520+1059325069+1059590520+1064390568
943+1067166092+1066738744+1065340727+1066491960+1069755729+1070726400
932+1068461904+1066962958+1068648359+1071587696+1073527546+1073152934
920+1071457951+1071558454+1072236986+1069101684+1064141939+1063099582
908+1065264640+1067306057+1069585032+1071380303+1071121098+1070426596
897+1071689688+1073741823+1071616938+1065928338+1063750860+1065425756
885+1066055173+1065958006+1066784382+1065224751+1059382205+1054069424
874+1052832806+1052799163+1051364380+1050004263+1048790925+1045095834
862+1039918192+1037925180+1040277402+1042127255+1039615052+1035549110
851+1032000869+1026160096+1018971912+1014288335+1010250997+1004535852
839+1000818403+1001213599+1001929820+999683423+995618191+990767182+984648324
826+980569607+981595922+983411706+981770382+978726923+976380450+973900187
812+970466005+966512276+962377984+958987593+958252209+958756424+956362894
799+950552428+943433943+935583337+928301890+925767260+930246993+937031607
785+938506137+934625088+931331296+929930226+928428299+926018657+921754976
772+917134426+915621852+915554283+911877646+905527832+901107506+899285689
758+897657495+894311252+891131519+890371364+889510565+886218618+882083687
745+879977682+880732088+882401022+883833676+886411460+889721222+888805132
731+882670306+877764006+877501323+879263378+881106132+883422085+884741533
718+884967095+885856994+885702621+885377550+885838966+882611395+877313733
704+876582962+880529593+883769372+882683720+879443444+877589972+876610572
691+873442762+869301373+869122087+871612641+872713979+874062739+876838618
677+877854855+874961298+872491256+874320170+873555118+864533121+856408690
664+850018420+844813523+844265445+845758571+845302407+843796080+844420599
650+848474688+852534242+851058505+844475961+837574378+830395846+823726427
637+820320351+815577793+805893802+797972007+797301708+802533008+810130725
623+815337964+815326892+813492441+809169637+802392475+799890991+797468431
609+790471315+784442526+779355024+777843444+787222096+799326588
##END=
