##TITLE=Sample description
##JCAMP-DX=4.24
##DATA TYPE=INFRARED SPECTRUM
##DATE=25/8/2023
##SAMPLING PROCEDURE=Instrument type and / or accessory
##ORIGIN=Default
##XUNITS=1/CM
##YUNITS=ABSORBANCE
##RESOLUTION=4
##FIRSTX=4397.6552
##LASTX=599.8556
##DELTAX=-1.9287962
##MAXY=1.8170191
##MINY=0.68247777
##XFACTOR=1
##YFACTOR=1.6922309e-009
##NPOINTS=1970
##FIRSTY=0.76193035
##XYDATA=(X++(Y..Y))
4398+450251996+449864654+451043939+452556571+452234214+450384680+449143543
4384+448739823+448058478+447687550+448068341+448675964+449454734+449369848
4371+448369035+448117265+448386048+448397883+448193803+448350262+449950210
4357+452163347+452908866+451884877+450980187+451508137+452031790+451219559
4344+449968561+449596505+449990187+450361750+450875118+451538323+451837292
4330+451476366+450419585+449910549+450785935+451443962+450940385+450350725
4317+450315890+450971381+452071768+452789814+453027496+453136298+453247496
4303+453307304+452958565+452460519+452510711+452906859+453276308+454030246
4290+454913239+454643364+453803307+454236897+455020915+454450239+453234816
4276+452419309+452378732+452797775+453127845+453763858+454361091+453671716
4263+451997484+451211070+452299939+454071527+454968222+454717966+454169305
4249+453974454+453853711+453832119+453977377+453781857+453213577+452800487
4236+453041796+454175997+455992070+457588461+458017753+457203373+455593774
4222+453950890+453222911+453459042+453524063+453012139+453055674+454074838
4209+454991293+455013588+454553794+454446647+454939234+455755516+456330594
4195+456202173+455888692+455832759+455860303+456405970+457255608+457473424
4182+457053536+455998586+454754562+454653896+455942547+457482723+457831109
4168+456953751+456519739+456767635+456450703+455935468+456053533+456457219
4155+456840440+457244020+457478425+457022540+456245250+456114433+456277197
4141+456291321+456449223+456409845+456019896+456246130+457192524+457497023
4128+457087455+457248669+457858934+457816210+457621957+458553769+459984050
4114+460431588+460029311+459792334+459704137+459318626+459085066+459330391
4101+459530278+459260227+458865770+459097323+460093944+460996909+460903534
4087+460269000+460164495+460461280+460519573+460419859+460305632+459945200
4074+459617384+459938613+460606467+460729676+460273403+460069888+459917022
4060+459023919+458663840+459938331+461283444+461533172+461297921+461411443
4047+462084123+462412749+461975990+461651344+461422503+461038155+461425497
4033+462190389+461833691+461183589+461399397+461420742+460955699+461267453
4020+462402851+463127132+463014948+462820203+462882794+462884836+462590306
4006+462109659+461960774+462174786+462614187+463549450+464271899+463896568
3993+463345371+463383165+463258407+463131429+463331071+463006284+462647155
3979+462956479+463149639+463317193+464201173+465362248+466040105+466268700
3966+466119814+465480596+464975399+465231185+465745082+465851348+465550794
3952+464944474+464394509+464512223+464499050+463196239+462094760+463613943
3939+466464079+467717719+466750438+464946235+464309834+465386234+466075117
3925+465232840+464608697+464883644+464839299+464937359+465997380+466914575
3912+467393637+467861039+467137498+464471611+462140620+462186092+463668679
3898+466072651+468176950+468266275+466848462+466408040+466416916+465063314
3885+463769098+463834929+464598976+466368802+467514732+466763858+465560128
3871+464747087+465542270+468279871+469067164+467498247+467615926+468839204
3858+468612089+466300365+463240337+464497817+468236758+470826459+471515834
3844+470117183+467403252+464814150+464028653+466340976+469129720+469937372
3831+469821596+470356520+471163891+471103696+468888199+466012773+466950854
3817+469516886+471830688+474260479+475421730+474264741+471571310+470060757
3804+469320520+468093332+469194705+471857598+474146288+476124455+477144253
3790+477205505+477031012+476464564+476194513+476954086+476961554+476194125
3777+476796008+477466187+476486014+474528593+473575683+474258647+475317824
3763+475800126+475465688+474852640+475116069+475855531+475423914+473635314
3750+474535074+477915027+480635369+484732312+491143234+496697615+499238074
3736+497854111+497533621+503191873+509654326+512135224+510394246+507012214
3723+504272395+501295316+497175549+493345100+491267922+491057150+494122038
3709+500750565+507357078+511939422+514535639+517911155+524270053+531173245
3696+536423374+538863872+536706986+530556112+527172953+527627464+526896210
3682+523236061+517479503+510715017+502426523+496664224+495581201+493580245
3669+492179657+494044337+495687538+495699479+494555627+492218824+489027170
3655+487215746+486507774+483763551+479697041+480513146+484480682+487491785
3642+488745566+488696079+488225717+488290280+488478474+486965948+482472575
3628+478145136+478103855+478222273+474974158+467146022+458175620+453576052
3615+451267567+449582592+449754654+450922140+452478694+454601238+455935714
3601+455244860+453243974+451864589+451492217+450966837+449386825+445803391
3588+440599193+437490418+436727885+435822138+433981092+431579796+429562532
3574+428544249+427294730+424351113+420332505+418332605+419619988+420752216
3561+419945339+418593075+417916063+417149304+415687429+414461403+413845924
3547+413278384+412848423+412703235+412367001+411257280+409829747+409626266
3534+410360198+409695337+407468746+406148535+406324753+406571734+406761160
3520+407240046+407675960+407786171+407202181+406148359+405674545+405740552
3507+405345849+404305833+403795811+404520867+404938042+404377617+404159202
3493+404723079+405255045+405206262+404615615+403891511+403300618+403331437
3480+404500649+405726499+405705576+404935999+404848577+406009899+407011205
3466+406730622+406426229+406667468+406532425+406199537+406143181+406140222
3453+406567260+407632143+408339904+408191477+407843337+407876622+408359382
3439+408910650+409520528+410378302+410874200+410856835+410835033+410877546
3426+411126358+411543639+412086947+413157078+414048348+414183039+414805562
3412+416334783+417702192+418300024+418345532+419271215+421924422+424400812
3399+425158448+425326319+426212835+427589331+428800986+429882846+431128138
3385+432851506+435256288+437949015+440578764+443169592+445558348+447743342
3372+450393133+453937399+457656405+460961475+464629267+468926204+472577336
3358+475283623+478181556+482045714+487142589+492844411+497808110+501622815
3345+504955465+508699091+513277561+517731661+520778515+523547428+527719184
3331+531981215+534712792+536792295+538429438+538444372+538463745+541091838
3318+544871003+546572216+546032501+545549847+546117599+547287093+549018843
3304+550542816+550438487+549153041+548253528+547947585+547277477+545166837
3291+541862084+539110747+537104155+534870202+532854100+531226749+529255062
3277+527630141+526880183+525423626+522720333+520098157+518304133+516869097
3264+515231566+513844609+513072144+512882717+512818612+511795644+510315523
3250+509971787+510373922+509862914+508522873+507066703+505806195+505504091
3237+505301702+504708978+504826691+505196704+505303816+505052045+503527051
3223+500707664+498413233+498306439+499704209+500971727+501042771+500386892
3210+500711080+501518522+501409860+501642364+503021255+503978110+503924643
3196+503243333+502025585+501182499+501141112+501257241+501453923+501803260
3183+502295707+503329910+504378414+504165811+503203356+503238684+504288703
3169+505113192+505891962+507218090+508154551+507979565+507310478+506838039
3156+506888407+507448128+508200622+509283257+510584341+510968408+510594486
3142+510794902+511059212+510552853+510464021+511958478+514344733+515798437
3129+515731691+515752085+516563858+517147390+517258869+517066589+516852753
3115+517210790+517933909+518586899+519221961+519892985+520361480+520529492
3102+520676229+520793203+520649636+520719764+521846110+523487198+524296118
3088+524041389+523182417+522594483+523007749+523933890+524421545+524095772
3075+523774472+524255471+524948932+525460011+526174570+526891772+526891983
3061+526179678+525591285+525776239+526475054+526591112+525898285+525781769
3047+526870532+528017483+528213462+527733942+527440503+527734013+528119594
3034+528085991+528119629+528527576+528894736+529620249+531029643+531950818
3020+531626137+530958318+531130873+532339252+533561720+534052053+534605293
3007+535922404+537358145+538065131+538042976+537996553+538778986+540581816
2993+542411203+543246787+543300431+543594504+544905944+546920532+548629353
2980+549319327+549184917+549127646+549401043+549793281+550456591+551059883
2966+551007119+550566627+550378961+550778490+551625662+552170026+552203910
2953+552239802+552395768+552957391+554136359+555204306+555579884+555778821
2939+556491126+557528605+558561611+559575069+560102914+559408361+557988576
2926+557377853+557650757+557914397+558222947+558489053+558081070+557254750
2912+556733492+556369044+556339457+557537763+559341191+560082696+559861287
2899+560080195+560867243+561396003+561485539+561532032+561725228+561947553
2885+562327463+562727978+562822938+563054139+563877958+565092783+565969683
2872+565970141+565727458+565903253+566288236+567004662+567963384+568507748
2858+568993819+569639342+569848951+569432445+568072855+566313244+565969542
2845+567312718+568714011+569129355+569114456+569599259+570265422+570427234
2831+571068672+572828072+574407133+575321827+576108170+576758695+577133955
2818+577099261+576982322+577467407+578335360+579052315+579765008+580545997
2804+581120511+581619086+582380280+583314769+584140772+584469574+584220199
2791+584289763+585063990+585740579+586138981+586722935+587227357+587105205
2777+586767316+587160329+588682576+590653945+591634857+591453673+591367378
2764+591848447+592417713+592719993+592993672+593642612+594469566+595021926
2750+595432127+596357071+597706375+598513253+598581373+598441188+598351511
2737+598590320+599323653+600001334+600124613+600230914+600827866+601539079
2723+602181045+602870913+603424400+603787403+604181402+604586109+604699737
2710+604790752+605615664+607004769+607962611+608237840+608310962+608442271
2696+608873677+609603840+610153311+610454886+610770903+611091005+611361162
2683+611842865+612509416+612905388+613453450+614625656+615643728+615858796
2669+615479591+615170971+615715088+616913147+617543349+617487627+617910579
2656+619009733+619918404+620159748+620171090+620436597+620665544+620923725
2642+621857756+623096884+623623038+623519766+623545267+623757941+623662206
2629+623114777+622956840+624066419+625975339+627548518+628088198+627633475
2615+627171426+627849459+629223631+629861511+629784444+629963234+630513973
2602+631042100+631558462+632257629+632973421+633363193+633419902+633709008
2588+634508771+635401451+636070608+636361405+636532375+636926445+637116365
2575+637026125+637378913+638230805+638811836+639103690+639800885+640635306
2561+640724983+640110984+639614064+639841743+640657567+641254871+641478111
2548+642127473+643073269+643312007+642821568+642835305+644045692+645481080
2534+646376437+647039959+647477563+647386337+646820241+646336847+646652793
2521+647665863+648565305+649228334+650057613+650748398+650863575+650886822
2507+651332810+651801762+652027116+652423299+653096754+653767109+654420346
2494+655028850+655473429+655967530+656528414+657187005+657991276+658227126
2480+657894555+657895400+658444308+659306273+660140906+660658537+660796820
2467+660553221+660122168+659983673+660493484+661446112+662344146+662972586
2453+663448090+663710075+663735717+663844414+664100693+664401282+664764990
2440+665148915+665381384+665267545+665030145+665538829+666988236+667990246
2426+668120851+668359167+668576983+668524501+668645526+669206339+670360792
2413+671564346+671992652+671939677+672155380+672544730+672735213+673012414
2399+673529552+673986176+674790166+676816940+680968619+689102838+703274973
2386+724132203+750755359+781410227+814448602+847607087+878954218+909639095
2372+939806131+964704863+982094575+995289215+1005968121+1011847183+1010555995
2359+1002268769+987699324+969567755+950076596+933479320+929746085+943290272
2345+964741776+976500323+973772127+963677351+955445706+954201506+957555395
2332+960610244+958863207+953903101+949940778+944879020+935471154+923179831
2318+910673088+899701412+892973558+890664651+886694297+876091190+859854593
2305+841958592+826910754+816128153+807444533+798338524+787889551+776868423
2291+766057292+755256516+744898135+736491293+730824341+727154366+724495347
2278+723054041+722581637+721757007+720417494+719052058+718171988+718048920
2264+717827159+717061774+716429177+716240526+715637868+714300892+713279509
2251+712867758+712536666+712048763+711434201+710962149+710788924+710817595
2237+710967855+711299299+711728520+711958735+711872933+711556353+711386087
2224+712069122+713161725+713319099+713249922+714063069+714625009+714321180
2210+714070536+714404728+715144682+715823280+716242146+716397125+716145636
2197+715983472+716632200+717677675+718528651+719303617+720114228+721005922
2183+721743270+721946222+722048156+722441169+722540145+722270692+722428912
2170+723082078+723549340+723422187+722995431+723060240+723851550+724777972
2156+725540611+726160597+726636454+727313078+727758150+727402051+727452066
2143+728442665+729132040+728944938+728333475+727953142+727791119+727705669
2129+728599898+730489939+731908420+732159205+732055650+732630341+733264840
2116+732921984+732277482+732256982+733052871+734316514+735130366+735119447
2102+734920510+735371358+736455930+737140867+736952074+736446631+736304896
2089+737209692+738777024+739624619+739765579+740099418+740606270+740781467
2075+740494404+740270107+740491727+740863465+741414346+742479263+743646890
2062+744550911+745301503+745484731+745105103+744932583+745044027+745163924
2048+745340953+745471276+745432531+745716213+746903213+748372767+749130615
2035+749430992+749625561+749470653+749496013+750202859+751148231+751977299
2021+752358195+752290216+752360661+752541000+752639060+752874064+753248903
2008+753705246+754234640+754647166+754579328+754313327+754934019+756316503
1994+756882388+756333269+756358629+757462573+758349406+758868586+759656936
1981+760536513+761106696+761126561+761203205+762179503+763037242+762568078
1967+761713861+761861303+762587591+763032311+763601084+764690024+765923798
1954+766825566+766919962+766532514+766813097+767856458+768162472+767428716
1940+767722895+769414351+770893204+771574900+771996443+772254977+771942764
1927+771461202+771568983+772387907+773407599+773751300+773786029+774484915
1913+774967886+774626509+774627002+775497985+776233502+776486470+776736339
1900+777124843+777627398+777993360+778092194+778164260+778242947+778788051
1886+779813097+780711412+781346897+781583592+781905526+782659288+783174523
1873+783408260+783078506+781653614+781512020+783825083+786108630+786978415
1859+787010397+787145369+787450397+787644050+787969788+788267700+787798959
1846+786172171+785083302+786775322+789397357+791265559+792401909+792698553
1832+791487109+789166227+788749826+790213815+790986668+791768678+793470419
1819+795005698+795657597+795735298+795381311+794961459+795661965+797363987
1805+798373817+797795886+796296393+795247959+795335593+795923738+795939166
1792+796036028+798401009+801518273+803170561+803726091+803971592+803749127
1778+803526168+803213744+801495308+798593606+798177769+800167348+802214059
1765+803783363+804215121+804108467+804404829+804946129+805971175+805957015
1751+803529127+801422608+802596152+804425540+804291765+802882653+802696818
1738+804320154+804273026+800652080+799836890+803097721+806455978+808378212
1724+808601945+808632659+808446191+804780653+800174815+803284894+809305903
1711+812290377+811369097+808040639+805616273+805402683+803581467+799794694
1697+799405274+802308878+806239430+808708106+809464474+809773376+807346544
1684+801647539+801987648+805441076+807116611+806630118+805010516+802857574
1670+799817518+799726714+802969370+804177503+803174365+803768851+804973321
1657+804488236+800801917+793790592+793094243+793579468+790898470+792200718
1643+797043956+799345254+798281816+793869702+790160277+794788023+800799663
1630+803164926+803060949+802754090+803130267+805884175+809747945+811182418
1616+812122366+816605771+820995202+823064384+824239901+825901770+828172496
1603+831136964+834181670+836338697+837598254+838703819+840465720+842491649
1589+843951200+845414696+847715361+849894367+850328591+848644320+845123054
1576+843844124+847907324+850508578+849830685+850483217+852570504+854001595
1562+854349664+849033740+840094545+845646108+853934532+858676118+860917186
1549+862748616+864645842+863956819+859364859+854050696+857111885+865343741
1535+869869977+870966172+872839165+874761329+873823142+871473517+869105859
1522+867081832+869892378+875862526+881504681+885827612+887763231+886815392
1508+881509471+878537113+887037858+894987300+898739485+898993580+899363276
1495+903174001+905967429+903913181+900344082+902742807+908216810+911233407
1481+911824935+912332491+912123551+909284757+904576209+903825195+908392429
1468+911886363+911621560+912081777+916443171+918373647+911794714+906964719
1454+914818990+923929155+928744708+928781199+928152336+931487345+937312728
1441+941787750+942449792+940013380+941178259+945921254+948071941+949070923
1427+952356691+954208621+952851427+950863397+946936438+942115038+940768480
1414+940602512+939691376+937520330+934604820+932259775+930186859+926963787
1400+921934574+916778701+912426676+908663149+907489958+906643067+903355397
1387+900288994+900300195+902119931+904434685+905923330+904677439+901244722
1373+899854630+901276000+902825720+904427923+904889972+902604453+900051242
1360+900060541+901528264+901859919+900334502+899479440+900905459+903352297
1346+905718617+907749195+907690303+905121031+903505022+905035370+908169330
1333+910184128+910083956+910011186+911639523+914583633+916994333+917609882
1319+917581563+917941115+919288940+922663117+927246060+930893705+933257841
1306+935375842+937657838+940243313+943476459+947283802+951490851+955832872
1292+958835945+959223463+958896809+960060984+961465729+962398562+964489653
1279+967272796+969030471+970277630+971739224+973247382+974611832+975107835
1265+974734477+974356891+973922738+973344173+973570372+975716551+978799226
1252+980096190+980003203+981175761+983160973+983789624+982933153+981948191
1238+981895005+983163790+985193946+987224877+989764351+991975550+991590357
1225+989790908+988737121+988004140+987070039+986878358+988729161+991456441
1211+992662812+992461410+992172444+992446405+992904861+992933110+993139161
1198+994203657+994942414+993304989+990361654+989932996+992850689+996565468
1184+999398275+1000388450+999985504+1000809289+1001560022+1000186696+1000177749
1171+1001924223+1001783896+1001225549+1003123127+1005526642+1006038566
1159+1005718463+1005655274+1005261698+1005104676+1006829382+1009454939
1148+1010303098+1010089931+1011323565+1013824857+1015724196+1016236825
1136+1016360949+1016502685+1016322627+1016549742+1016508038+1014801437
1124+1013365978+1014613982+1017285963+1020147793+1023869617+1025578825
1113+1022553914+1017989146+1015947437+1017812117+1020863445+1023241317
1101+1028224177+1034820440+1036080068+1030603600+1025632433+1025809744
1090+1028375000+1031006968+1034133038+1037544269+1040000406+1041398317
1078+1042756216+1043334147+1043508640+1045226160+1048373716+1052081168
1067+1055254365+1056323932+1055694295+1056436574+1059099820+1060556271
1055+1061022054+1062789238+1064043512+1062732248+1061225851+1061548419
1043+1062172844+1061317641+1059213095+1058102177+1058836496+1059788068
1032+1061304468+1064642154+1067735255+1067345765+1064618485+1062806215
1020+1061871973+1062147554+1064768955+1067700596+1069277720+1068581160
1009+1064043160+1058152122+1055214000+1054895025+1055624202+1058253352
997+1060895746+1060206018+1058081959+1057470426+1058118520+1059214856
986+1059583636+1057913948+1056551259+1058183470+1059014581+1057122850
974+1058108235+1061415419+1061229796+1058871084+1057792853+1059317143
962+1062316904+1062083661+1059767920+1060441164+1061246985+1059413230
951+1059308055+1062097327+1064691888+1066749518+1068091426+1066877446
939+1063322507+1059810540+1059589272+1063436980+1067066027+1067622332
928+1067158663+1066289653+1064637998+1065142314+1068936625+1072506006
916+1073741823+1072558839+1069984495+1068928454+1068562210+1066371580
905+1064152702+1063487983+1064129948+1065743844+1066575871+1065287079
893+1062887932+1061064462+1060163188+1059786377+1059440914+1057539532
881+1055333052+1056168531+1058161844+1057567147+1054635435+1051781495
870+1049305281+1045587262+1042418080+1041752938+1042265989+1042652028
858+1041592112+1039725036+1038875398+1036335643+1029723107+1023305774
847+1018814973+1011902975+1004064414+1000937992+1000715879+997581215+992479655
833+990051132+988949724+986303033+983134697+980209959+979592649+982294639
820+981598572+974088918+966851183+964021687+964101924+965190300+964429916
806+961383872+958967959+957511860+954638477+950088994+944862183+940230139
793+938689999+938713951+937001572+934394753+931327505+927535308+924304768
779+920980184+916879578+915606636+917909344+917699136+913132676+908010687
766+903622947+899107208+894253122+890679022+889438696+889235321+888492900
752+887038985+886482046+886808771+885220516+881644162+879413661+879059111
739+878833123+879407109+880090144+877921634+874179100+872627266+873362783
725+873810673+874066318+875870345+877795327+878105073+877210210+875032331
712+871773825+868537861+866273757+865189889+864964465+864696985+861979215
698+859623674+865313027+875167304+877775038+875381668+875064736+873921553
685+869929573+867900333+868850848+868780614+866943478+864942205+864106797
671+867423702+873561297+871361932+861760413+855414371+852189185+850930966
658+852994795+856376016+855618098+851239445+846730962+841425745+836617166
644+835433267+834997141+830091630+820710463+812820195+813581353+819866672
631+819887735+812540035+806332135+804272392+804234000+804247032+802005893
617+800555853+803330331+804120865+802391932+804797419+810605191+814113284
604+814375762+815969722+818425225
##END=
