##TITLE=Sample description
##JCAMP-DX=4.24
##DATA TYPE=INFRARED SPECTRUM
##DATE=25/8/2023
##SAMPLING PROCEDURE=Instrument type and / or accessory
##ORIGIN=Default
##XUNITS=1/CM
##YUNITS=ABSORBANCE
##RESOLUTION=4
##FIRSTX=4397.6552
##LASTX=599.8556
##DELTAX=-1.9287962
##MAXY=1.9632438
##MINY=1.1611757
##XFACTOR=1
##YFACTOR=1.8284133e-009
##NPOINTS=1970
##FIRSTY=1.2301755
##XYDATA=(X++(Y..Y))
4398+672810402+670798776+671576265+673033706+672745399+671169493+670409804
4384+671165125+673236407+674895050+673293912+669184338+667659091+670171895
4371+672766198+674054645+674664379+674731402+674915522+675152322+677188136
4357+681025508+682107472+680011806+678013481+676339647+673374041+669853793
4344+669744782+673658892+675486007+672800036+671610885+674854171+678062249
4330+678259082+677056566+675940699+675566918+675251358+673673170+672612721
4317+673823648+675069129+674965464+675376930+676149790+675785918+675338919
4303+675619532+676626454+678783080+680340796+679375732+678201382+679178182
4290+681657409+684194467+683482894+679584432+677416656+677345721+678051100
4276+680129424+681643000+680913628+679113114+678656009+681204803+684290439
4263+684180450+681687531+680269078+681486655+683168769+682867227+681321703
4249+680072766+680315304+680592853+678485842+677004017+679368300+683277194
4236+685192848+685484805+686575832+687466961+685979529+683241661+681628396
4222+682088108+683079447+682431573+681534902+682140984+681506736+678448940
4209+676602200+677250792+678125556+678781059+680396932+682236108+682476951
4195+682089217+683555134+684495553+681771571+678879052+679606208+683468876
4182+687621938+689029046+687068405+683585255+682068940+683949583+686168669
4168+685932587+684878136+686541864+689513729+689375639+687119781+685415434
4155+684517329+685222187+687141818+687846154+686247038+684305435+684402906
4141+685365362+685711499+687244831+688831169+687162421+684840256+685040088
4128+685864324+686521587+687979093+688542602+687662621+688157802+690743889
4114+692944981+692280741+688763884+685505408+684908323+686760995+689192106
4101+690193095+690025666+689443576+688368066+688069784+689623523+690395470
4087+688090778+685719910+685059256+684950767+686476340+689700913+692041334
4074+692472294+692406313+693302724+694428436+694304755+693278339+691839284
4060+690460081+691357535+694291781+695279012+692772271+689607289+688242820
4047+687485347+686715813+688113337+691043540+692738107+693302789+693579816
4033+693087765+692483312+693217966+695041364+695806987+693775345+690271332
4020+688987058+691588336+694877065+695466913+693202775+689786062+688576766
4006+690468818+692791309+694425046+695578011+695366117+692809043+689063144
3993+687039522+688051072+690358372+691766328+692268549+693175131+694897211
3979+696067324+696384643+697421230+698859046+699046035+697948292+696919790
3966+697278967+699109668+700528838+699846669+698594798+699250366+702035112
3952+703569813+701491098+700385467+702234293+701931121+698773636+696630245
3939+695580684+694368454+693703367+693978764+694980078+695992150+695571948
3925+694939786+696969406+699669851+698222320+693439575+693087048+698422088
3912+702497172+702306402+700704416+698858133+696485114+694308145+691474631
3898+690329685+694028119+699147418+699723966+697315674+697681240+697388239
3885+694610991+693727751+693731728+693950403+694925312+695764282+696942153
3871+695609241+691754331+691881076+694048070+694458884+696064846+700541160
3858+704093681+700117828+685095115+680831217+691076596+699935012+703432962
3844+703515503+701949637+699702907+697474106+695958834+697775061+703194076
3831+707332858+707862138+707250383+705664566+699619322+690663174+689285340
3817+692870525+696289389+700603098+704323635+704020267+699369744+698338438
3804+702272760+701787359+698047263+698997723+703100255+707870353+711974515
3790+714209706+714000485+711145781+707862985+706908548+706237920+704788302
3777+704888316+706349213+708019656+709037335+709286719+709013408+707413378
3763+706578189+707476360+706864018+705361264+704943865+702371144+697326497
3750+697991193+703543668+704764896+701382543+702118957+705232302+706066839
3736+704497714+703848014+704389876+705544341+707958631+710133578+710446073
3723+710001682+710659206+712245218+713273198+712808009+709243883+705134766
3709+706009921+708384049+710283599+711941003+712871838+714177302+716880616
3696+719785653+719832987+714897025+707639616+706867800+711703356+715110615
3682+715910206+715001016+712374180+707003021+702846895+703211744+702702807
3669+703128356+708944624+714533806+713794132+708509686+704966424+703388692
3655+702338936+703174647+702384770+694820864+688879481+689901593+692509131
3642+694185051+694576827+694096642+692916815+691191149+689041694+683789195
3628+678022739+679111353+681143777+679852201+675823668+673017798+674352014
3615+675534253+673870069+670585382+666879972+665521893+667211310+668818902
3601+668860368+667909778+665706209+661799075+658793046+659368029+660632809
3588+657637277+654372868+655696065+657007788+655257738+653189716+652639312
3574+653283536+654623946+653016940+645923700+639935635+640713711+643348892
3561+645574694+648739676+652308431+653343714+649774242+645111330+643813038
3547+644227634+644007525+643526492+643539467+643770855+642440942+640050319
3534+638806076+639074432+641066694+643257810+643302080+642462718+642340015
3520+642157069+641330290+640676352+639890322+637434501+635072891+636185173
3507+638497167+638335997+637938614+639219628+639436543+638228680+638301833
3493+640157896+641556332+641395488+640959182+640756350+640131295+639536557
3480+639548749+639500372+639289912+640405910+643142605+645385619+645853808
3466+645515168+644659507+641768748+637519193+635786225+637929160+640337452
3453+640794556+641703941+643592799+645177115+647033635+648411077+647495955
3439+644257886+640722186+639238405+640524897+643698224+646511788+648266859
3426+649909006+650251819+648231717+646363853+647516232+650248233+652089496
3412+653256609+653719842+652828974+651507732+652085193+655572319+659832632
3399+662292104+662434040+661686282+661324693+660915704+660131305+659603134
3385+660221604+662974143+666744034+669192162+671521368+675259312+678058467
3372+678042624+676805814+676876424+679623942+685154055+691510490+696006233
3358+698886821+701619278+703803157+705713791+709018754+712649252+714820352
3345+717100334+721153837+726257358+729956705+730891778+731749852+734658084
3331+736198326+734833206+735612911+739910582+744409651+747569808+748603591
3318+748435706+749029531+751128914+754458456+757302533+758151088+757297708
3304+756510766+755583712+752553104+749071128+747502198+746889595+746986675
3291+748894375+751446560+752557276+750863296+745987643+740923828+739255406
3277+739869182+739079110+737161369+736807082+737743980+738109090+736841767
3264+735604631+736514342+736902467+734196219+730968321+730263789+730769466
3250+729155484+727029566+727908177+729128427+726939332+724882198+726219739
3237+727690285+728049983+728324794+726555119+724838058+727701173+732068606
3223+731292747+726077737+722406752+722196683+724176883+726734805+727027415
3210+725683092+725600291+725831744+725204342+725236028+726477468+726553098
3196+724108882+722007739+722538256+724752127+727135839+728754646+728999921
3183+728665324+730104966+732983859+734602795+734504542+732449820+729079398
3169+727274125+726886652+726215762+726692817+729203405+731203360+731258257
3156+731138749+731627214+731464218+730765880+731211641+732115157+731017806
3142+728960281+729345863+732560461+735149026+734874672+734545421+736703417
3129+739063788+738807298+737118469+737141810+739195684+740518099+740013204
3115+739123966+738858805+740765005+744376204+745615361+744278863+743677540
3102+744888466+745628010+743172645+740403155+741105731+743271225+743754148
3088+743017473+743025623+743179360+742518316+743277484+745734870+746355491
3075+744535679+742662925+742220881+743996555+747230517+750056990+751627941
3061+751583215+749797110+747713831+747043202+747482834+747887454+747911577
3047+749508738+753568631+756058747+755217559+753719174+752415079+750782516
3034+749439302+749324618+749783223+749771030+749852333+751041679+753393900
3020+755356823+755268088+754415621+755309880+756934945+757033134+756832193
3007+757624091+757650431+756392692+756204008+757603488+758339902+757866367
2993+758714922+761889228+764330705+763516510+761761178+762840861+766296953
2980+769830371+772992484+774651127+773102082+769113125+766544120+767573208
2966+770604143+773853427+775079936+773284898+770827577+770781547+773420576
2953+774507952+772224514+770193785+769551713+768651848+768763793+770663473
2939+771459348+771168629+773330993+778020571+780933888+780258304+779406750
2926+779945809+779773360+777487575+774211039+772290299+771466650+770694703
2912+771142550+771939403+771069202+769931949+770298168+771192231+772126847
2899+775423530+780745661+783584913+782063773+778128735+774683726+773135920
2885+773459695+775459324+776921850+777010455+777143394+776547808+775533780
2872+776407502+778965097+781624272+783382668+783224236+782584902+783876414
2858+785813192+786024174+784662313+783388927+781890541+779383214+778179720
2845+778688135+779252621+780555543+782342235+782690328+781885065+781686667
2831+782337214+783227626+784354447+785741735+786505793+785996138+785971233
2818+788188624+790598611+790196012+787817777+785221192+783093253+783765773
2804+787532404+791017770+792329493+791741145+790082306+788210922+786835826
2791+786888376+788416687+790388086+792184101+793220231+792354464+790767931
2777+791258352+793470332+795303184+795273193+793170550+792564402+795349605
2764+797113021+795722734+794684844+795521728+796951265+798500048+799686851
2750+800258835+800670497+799557172+796580939+795322091+797460463+800043094
2737+800410291+799305051+799079400+800729827+802684339+803240545+803232526
2723+804212912+805459436+805116559+804187093+804750080+805086894+803581271
2710+802642417+804341874+808416958+812788172+814335457+812673489+809905303
2696+807416426+806287519+806661626+806887603+806610641+808081122+811720552
2683+814121476+813516241+812293122+812711956+813995904+813374370+811133768
2669+810610291+812000122+813316343+813859118+813603737+812958927+812021246
2656+811268858+812333415+814523945+814925370+813943941+814477849+816091049
2642+816619481+816470633+816075271+815094038+814903985+815662045+815730764
2629+815568485+815931118+816157812+816587403+817983297+819669323+820750179
2615+821318838+821289172+820586336+820211250+820826787+821389317+820718427
2602+819835122+819796590+819908013+820516965+821900471+822277121+821486071
2588+821232124+821843879+823051741+824080830+823911184+823619944+824125165
2575+824804334+825409961+825639067+825647869+826139268+826358986+825522167
2561+825040808+826177800+827885407+828855947+828978064+828586679+828039340
2548+827155904+826202967+826936773+829038307+829739644+828770342+827271500
2534+825804345+825990094+828296938+830379564+830194401+828479949+827476679
2521+828764735+831813860+834146913+834470557+833907049+833594163+833321634
2507+832810936+832805721+833423604+833703630+833556152+833759896+834159236
2494+834116074+834131657+834723200+835722298+836729414+836830146+835980091
2480+835583295+836769707+838901949+839940557+839367530+838661629+838828862
2467+839586335+839191169+836785941+834956610+835680440+837341887+838659151
2453+840184594+841247390+840730890+839464284+838913164+839542848+840366367
2440+840164774+839528113+839450592+839181911+838110834+837615915+838527842
2426+839681068+840151799+840161709+840153755+840174553+840727826+842321857
2413+843392933+842974295+842124567+841085373+840664518+841994431+843303220
2399+842831968+842155471+842794805+844137888+845142853+844800497+843640165
2386+843213834+842775245+841040907+838434869+835993392+834065154+831627589
2372+827822751+822575729+816743683+812640303+811390779+812555871+815224695
2359+817051288+816726927+816832418+820297312+825866283+829819773+830399645
2345+827869433+824256148+823409353+825815037+827703569+827955103+827577997
2332+826599633+826391324+828377197+831798669+834466776+834767730+835374400
2318+839182237+843533109+845311325+844632612+843811636+845809766+849607823
2305+851808980+852546828+853046572+852755788+852201017+852368511+852639605
2291+852787801+853459212+854385679+854853019+855217021+855666367+855744149
2278+855910991+856432186+857021382+857334398+857546488+858518920+859037767
2264+858228136+857948305+858378483+858108693+857289542+856783408+856928540
2251+857884085+859024010+859483267+859728673+859843161+859248292+858775866
2237+859364410+859813170+858771498+858145855+860228287+863067604+863535401
2224+862477886+862392411+863343457+863805061+863293385+862976391+863151449
2210+862857144+862523785+863248724+864884874+865754422+865189936+865109808
2197+865587384+864819936+863446927+863403505+865090118+866969587+867855109
2183+868311040+868868159+869064079+868344422+867087530+866329210+866442524
2170+866751433+867081402+867586623+867371208+866311606+865322028+864777231
2156+864640120+865450142+867786977+869604181+869384594+868845535+868305368
2143+867385877+866914233+866998209+867553372+868644594+870335640+872050158
2129+872376084+871763742+871819226+872493701+872729849+871836699+870624208
2116+870698468+871551913+871770197+871895312+872100165+871568930+871294119
2102+872285849+873594964+874355110+874991445+875331454+874280198+872830907
2089+872920554+874216564+875131491+874786462+873814552+873325370+873812074
2075+874451995+873892985+873421668+874508587+875259866+874427154+873746029
2062+874432631+875826113+876990162+877478887+877501185+877234459+876700225
2048+876257725+875777801+875193560+874996139+875343189+876270960+877543760
2035+878523428+878817668+878593973+878045134+877441138+877774953+878902034
2021+879508443+879438941+878562808+877046754+876341505+876701725+877552366
2008+878989791+880596145+881377545+881061986+880548615+881251452+882839029
1994+883248278+882148514+880698962+879806594+881104560+884399743+886501734
1981+885594436+882792673+880917637+881637099+882638935+881600719+880377209
1967+881234174+883376523+885145220+886314615+887032578+886789715+885855359
1954+885582504+886133299+886850284+886955448+885729592+884739557+885987581
1940+888091201+889049094+888660903+887785878+888320112+890108108+890638561
1927+889376845+887779032+887842666+889875807+890731534+889387538+888398220
1913+888303943+888344627+888817379+889861007+890818378+891414485+891861745
1900+891920554+891509479+891349156+891840881+892141184+891526887+891051918
1886+891823799+893440063+894662269+894645383+894408583+894516421+894590290
1873+894318218+891747974+887402317+887630772+892647188+896361465+896615347
1859+895604383+895464142+896010112+896079874+895449603+894259996+892651426
1846+891071673+890807359+893114137+895606861+896815636+897335331+897000733
1832+895518713+893399836+893016992+894428207+895868762+897900730+899085381
1819+898575336+898738331+899514255+898791468+897765574+898696735+900045034
1805+899850613+897777635+894935189+894598310+897237729+898944749+896593179
1792+893746951+896737267+901407220+903130083+902310020+900234109+898455175
1778+899239575+900702819+898629189+893483094+892478781+896559994+900818611
1765+903102961+902902672+902081761+902500594+902194098+901908921+902613844
1751+901018574+896854755+895807736+897980923+899611922+899127043+897434041
1738+896431423+894684110+891170252+892100892+897095792+902310672+905786389
1724+906177904+905640932+904609431+899260634+894368812+898594504+903785651
1711+905410260+904016388+900315672+898243346+899214604+895714568+887351593
1697+885751433+889464211+894747613+899287431+900174844+897072908+889774489
1684+883356702+887881785+893695705+895730868+894190234+892111193+892763958
1670+893095165+893472532+896038799+896950270+895038202+894889811+896820330
1657+897251095+892523637+882551896+881879898+881985193+875743637+874272765
1643+879368723+882352259+881325713+876339614+871090440+875014721+882486437
1630+886104742+884985549+882125564+880851135+883623950+887342074+887902648
1616+888929716+895349719+901470397+903711064+903817859+904716291+907507426
1603+911397934+914337983+915440615+915666918+915696192+915945249+916858090
1589+918644781+921710271+925403555+928301029+929311275+927386493+922041283
1576+917383783+919245061+921378412+920146362+920784261+923651092+925329359
1562+925168580+917011110+903831551+911178542+921221480+925306475+927542252
1549+929764990+930109823+926577188+918473115+908622968+911491037+922422431
1535+927438391+928346081+931186832+934250497+934054576+931847551+928801751
1522+924467700+923717985+926431861+930511705+936084588+938721986+935650302
1508+928314003+926211230+934723640+940969173+943083812+942334424+939925610
1495+940722919+943940125+943195301+938562185+939496345+944026383+946020079
1481+946410355+946686274+944177903+937265523+928636278+926438642+931662584
1468+935570826+935203564+934735962+936319171+934343469+924264803+919391823
1454+927870851+934225265+935608054+935515798+936716424+940409968+944548816
1441+946609536+946835383+946056329+945711822+946406183+947033976+948058697
1427+949156569+948269091+947122972+948233558+947991021+945387982+945490343
1414+947194168+947924388+946491266+942439458+937550244+935262242+934661115
1400+931778571+928646644+928640581+928004116+925862420+925287893+923745564
1387+919064006+917225938+920167160+922770916+922529878+920117218+916066779
1373+913704061+915415840+917321975+917035689+916162555+915923864+917495011
1360+920674663+923100623+924120975+923460322+921355854+920517926+921189012
1346+921025038+920617810+919876963+916210541+911403933+911547434+917171628
1333+922612810+923946179+923331621+923612038+925333662+927076867+926521313
1319+925603322+927958086+931392663+932597591+933880888+937575149+941784542
1306+945247480+947865254+950143019+953537694+956172941+955478319+954429997
1292+957206854+962354580+966294247+969029769+971002145+972629558+975311878
1279+978160779+979582426+980663152+983122103+984884932+982841098+979143707
1265+978059787+980190269+982124374+981163939+978736023+978356504+981677180
1252+986318445+989990996+991959917+991088869+989833672+991405210+993546255
1238+994068427+994644975+995083955+994378901+994730515+996178241+996501625
1225+997103013+999765513+1002737182+1003961931+1003999420+1004068399+1003825210
1211+1002863276+1002685741+1003915705+1004111821+1001719699+997575635+995003565
1198+997314907+1000974157+1002240437+1004290856+1008172432+1010886307
1186+1011363689+1010306695+1008376698+1006599916+1006628407+1008311173
1175+1009894903+1012017171+1015520271+1016245275+1011720258+1008713186
1163+1011693722+1015448553+1016613514+1017800252+1019460916+1019468479
1151+1018686166+1020067781+1022181899+1021397629+1018570243+1016748931
1140+1017809250+1020709527+1021866600+1022792610+1028325722+1033538711
1128+1030757746+1025215376+1022504173+1020286391+1018969517+1020432370
1117+1022651782+1024974208+1027354660+1026315726+1022089382+1020538708
1105+1024957908+1030921133+1030230293+1024415003+1023306372+1028915049
1094+1034620284+1035637377+1032178546+1027564142+1027206986+1032287166
1082+1036695609+1035681581+1031140460+1027373894+1027695060+1032575864
1070+1039930418+1046984474+1050534126+1050841536+1052010409+1054476923
1059+1056950152+1059270753+1058438041+1054322729+1051199930+1049702001
1047+1049147621+1050583481+1052926705+1053901158+1054261052+1055844912
1036+1057306982+1057571883+1057567253+1054604777+1049880644+1051314027
1024+1058612120+1062793673+1058647066+1051433340+1049625002+1051111652
1013+1050522456+1051438751+1054795221+1055481693+1054541730+1055312047
1001+1056324380+1056229060+1054935658+1052931465+1053004813+1055988087
989+1057581532+1055679635+1054399337+1054452995+1051514512+1047947713
978+1049519316+1052950698+1053159332+1052059243+1050087453+1047113371
966+1047158554+1049799277+1051306269+1052695382+1053260390+1050235453
955+1047660775+1048098125+1047548569+1046285354+1048997469+1055783495
943+1061638100+1061789751+1056633159+1051362144+1049517034+1049597358
932+1050191705+1052381061+1058238730+1067425289+1073741823+1072367901
920+1066733993+1062184526+1060177334+1060802324+1064114719+1067207853
908+1067944463+1067826063+1067430766+1065227914+1062128195+1060505868
897+1057815463+1054327293+1056867025+1064401331+1067846405+1064256982
885+1059655292+1057338538+1056802413+1061655247+1067669978+1063926818
874+1056456406+1055317263+1057609632+1058490917+1056971472+1052652938
862+1046668589+1040922409+1036816291+1036752788+1040756415+1043229187
851+1040969352+1037300713+1033071305+1025963395+1018598148+1015374814
839+1015647798+1015845219+1015334651+1015243635+1014075022+1013593468
827+1016232561+1014273485+1004255127+997380301+999328815+1002675244+1000991956
814+994705674+987657812+985596766+987368789+984344895+977986569+978057701
800+981832352+979938539+974567053+974543386+981315069+980358676+965847183
787+956421933+956826683+956226338+953841453+952074646+949192429+944920902
773+940227087+935877062+934240586+937254374+939653342+936215049+932000310
760+931390511+931656585+930879749+928895050+926248002+924688787+923419834
746+920993156+917398452+914527058+916212106+918917114+915032474+908404554
733+904103884+899400615+895653217+896646446+899035700+897215040+893543142
719+894467131+898021086+900133834+902421639+903406980+900484861+897111505
706+896788318+898756521+899487980+894352838+885614582+881033559+881304393
692+883234130+884962404+885101081+886023310+887751127+884011944+876062978
679+874141325+878462924+881067332+881822002+880705352+876596364+879087588
665+885873484+884035285+879003157+879024150+880416850+879890374+880648694
652+882467073+881880745+878135694+877151266+880886603+877810616+867584471
638+862496533+870095320+896819156+908948959+878603492+864453979+881517069
625+872187596+832821368+802845966+792965697+802600103+821991292+829816382
611+821866764+812339022+807155307+807976153+817188335+828731223+828730897
##END=
