##TITLE=Sample description
##JCAMP-DX=4.24
##DATA TYPE=INFRARED SPECTRUM
##DATE=25/8/2023
##SAMPLING PROCEDURE=Instrument type and / or accessory
##ORIGIN=Default
##XUNITS=1/CM
##YUNITS=ABSORBANCE
##RESOLUTION=4
##FIRSTX=4397.6552
##LASTX=599.8556
##DELTAX=-1.9287962
##MAXY=1.8875232
##MINY=0.36641264
##XFACTOR=1
##YFACTOR=1.7578929e-009
##NPOINTS=1970
##FIRSTY=0.57859093
##XYDATA=(X++(Y..Y))
4398+329138888+329246441+329460088+329675193+329702217+329373253+329281026
4384+329428962+329093758+328741771+328923410+329056664+328578306+327481758
4371+326368562+325995654+326501816+327490574+328096150+327531262+326268842
4357+325453008+325297071+325306938+325481592+326000503+326659415+327296152
4344+327472773+326745436+325823746+325443718+325301784+325264147+325358205
4330+325333792+325519500+326142199+326579327+326302884+325589111+325102242
4317+324878423+324813118+325044058+325156120+324993062+325010998+325068199
4303+324807455+324639718+324802709+324667420+323924114+323397811+323808186
4290+324395351+324484560+324414712+324158207+323950290+324176177+324074118
4276+323401982+323258386+323781569+323858979+323435923+323467795+323890614
4263+324032480+324122265+324176923+323562192+322753208+322529456+322597948
4249+322707468+322918436+322990251+322986691+323184639+323345154+323313621
4236+323116418+322746426+322453844+322169230+321635366+321030908+320728697
4222+320997849+321535511+321756312+321682632+321820905+322485344+322978621
4209+322463169+321823380+321801646+321552532+321004054+320840318+321034909
4195+321375640+321485159+321001138+320483821+320575268+320855203+320497757
4182+319610651+319471599+320394375+320828518+320235419+319723053+319455426
4168+318922512+318585647+319008398+319873871+320392951+320159977+319622010
4155+319245542+319078042+319037795+318851104+318503694+318375221+318422826
4141+318313341+318312493+318563370+318574864+318418520+318397362+318008620
4128+316998331+316353693+316836663+317696541+317953216+317775747+317900355
4114+318189988+317960167+317387514+317065534+317076283+317070959+316922651
4101+316823914+316659974+316489660+316740944+317109410+316937163+316441037
4087+316078912+315819965+315803080+316159441+316444462+316218947+315439971
4074+314608439+314482712+314948423+315225273+314927164+314456807+314613491
4060+315327400+315680303+315305835+314849652+314885289+315048957+314965919
4047+314617458+314158054+314020223+314075423+313899243+313771990+314117739
4033+314382484+313750866+312714706+312236586+312460676+312890242+312936898
4020+312521437+312143274+312344511+312934593+313234702+313106806+312788929
4006+312478511+312396016+312456438+312258218+311819938+311562483+311574961
3993+311722897+311919896+311937629+311582251+311231722+311457474+311944173
3979+311994355+311462458+310695180+310373844+310589221+310744819+310639437
3966+310353873+309951500+309677736+309767182+310238759+310703148+310439861
3952+309250035+307784919+307144113+307639730+308140636+308148943+308635371
3939+309694859+310068174+309004685+307452089+307248919+308191429+308295692
3925+307284454+306702103+306676300+306275623+306073402+307008587+308345976
3912+309175745+309119053+307427032+304013729+300843098+299804327+300954550
3898+303713111+305804927+305587144+304196555+304266742+304977464+304326113
3885+303256725+302829057+302962752+304243211+304932334+303502380+300868223
3871+298583341+298761861+300662985+300909047+300702012+302577841+304348322
3858+303728098+300047202+295285728+297070213+302197542+305265842+305205793
3844+302649181+299195767+295573428+293644331+295577836+298726733+301237096
3831+303071830+303678933+303218647+301828059+298241967+294579075+295461434
3817+297923310+300863476+304261385+305526179+303601422+300521898+299381543
3804+298513696+297316173+298608059+300841131+303021580+305046702+305752202
3790+305373191+304644567+303870812+303867998+304131793+303388215+303318469
3777+304940065+305761459+304390672+301981792+300995679+301728983+302874594
3763+303336067+302105586+300154280+299413991+298426081+294900614+290360112
3750+290742005+293853367+295122467+295975089+297858887+298542754+296327924
3736+292376044+292047385+296187922+300144718+301651404+300847235+299766318
3723+300227044+301900348+303651672+304358223+303140187+300059510+299121104
3709+303799506+310072107+315303428+320690890+328961657+339075296+348235779
3696+355688373+360191748+360860629+359328988+358652512+358144858+355595808
3682+350689653+344348560+336980055+328419147+323472033+322128609+319232658
3669+318285944+320558959+321536663+320343616+318092200+315104463+311437503
3655+308573084+305713379+299607939+292480478+293207543+297766118+300046422
3642+299766792+298491182+296812216+294221629+290831926+286818777+281116472
3628+276962762+277840679+278600430+276534976+271860558+267600601+266014607
3615+264677100+262842179+261160635+259458816+258763335+258729055+257303170
3601+254731910+252754631+251054998+248869701+247270788+246087913+243418866
3588+240237249+239975268+241036366+240885091+239753398+238691418+237766880
3574+236599873+234973174+232145630+227751910+224773446+225653159+227175120
3561+227528040+227559047+227346112+226155167+224796146+224302411+223545661
3547+222022225+221190812+221409969+221593083+221189727+220554380+220318778
3534+220134410+218985696+217091234+215983633+216022269+216131839+215995263
3520+215930568+215878538+215741436+215274504+214215440+213193470+212780739
3507+212345019+211611410+211382097+211666695+211687954+211668611+211912757
3493+211845265+211296279+210836010+210700485+210718387+210680920+210576453
3480+210836010+211279885+211071731+210383913+210186558+210573334+210876088
3466+210681802+210036249+209507895+209609277+209924984+209926255+209853118
3453+209904538+209610854+208830928+208438541+208904828+209464647+209821992
3439+210359144+210761907+210555770+210080464+210038572+210593339+211279071
3426+211729880+211875052+211992828+212464167+213056113+213627410+214586297
3412+215636901+216120209+216427677+216927583+217425742+218249069+219488738
3399+220728102+221939204+223051655+223972498+225090814+226694999+228453697
3385+229973657+231489142+233357359+235508564+237644527+239647490+241921844
3372+244564139+247127159+249718932+252601067+255675945+258933920+262265728
3358+265686728+269400496+273328725+277377206+281504519+285659975+289657324
3345+293365820+297360659+301738578+305704665+309277059+312823412+316097663
3331+318928344+321442640+323983586+326682777+329157775+331107589+332597389
3318+333873610+334886679+335304140+335290001+335505547+336447683+337931414
3304+339079195+339302676+339097641+338737719+337345775+334764411+332062745
3291+329691740+327305069+324833937+322444147+319890112+316748810+313458182
3277+310974165+309297098+307729888+306130908+304713465+303275882+301527237
3264+299723595+298456190+297952673+297506900+296257398+294625155+293658911
3250+293392674+292902923+291981301+291515217+291482700+290954397+289886907
3237+288704643+287581918+286576207+285620813+284729944+283978144+283352918
3223+282607221+281547496+280741954+280702571+280899129+280671597+280204581
3210+280076921+280280651+280168995+279384475+278387223+277860328+277902965
3196+277884791+277409281+276988006+276920005+276900255+276671400+276168697
3183+275664892+275342641+275082253+274811049+274576786+274667521+275097121
3169+275255246+274995333+275130452+275881387+276413538+276475588+276498899
3156+276582700+276590685+276472418+276260262+276159203+276493626+277033254
3142+277149267+276916242+276826032+276947707+277096813+277198567+277357963
3129+277633338+277865363+277806653+277497219+277349148+277426981+277453462
3115+277534584+277918478+278371762+278459275+278388614+278444051+278320206
3102+278160776+278427861+278838320+279004566+279116340+279215314+279135802
3088+279152451+279461969+279826027+279922848+279708727+279503895+279289960
3075+278888791+278603736+278446357+278004618+277599194+277715562+277813231
3061+277510273+277329736+277518699+277747028+277783562+277667974+277565067
3047+277579816+277577036+277555081+277653580+277611265+277263245+276969442
3034+276860668+276733026+276616895+276583446+276636035+276852785+277096355
3020+277192600+277229473+277271247+277283707+277311019+277473145+277804313
3007+278125038+278328564+278677602+279301115+279828859+280113846+280548600
2993+281279344+282026261+282601745+283035160+283553223+284346627+285229697
2980+285690051+285595857+285542352+285705377+285691034+285627696+285868469
2966+286248090+286296679+285926043+285426493+285025883+284926536+285143235
2953+285337894+285335215+285455246+285869249+286304952+286518904+286474418
2939+286344792+286145149+285797230+285663536+285909598+286075165+285939809
2926+285804554+285682863+285284999+284702242+284177516+283688901+283291394
2912+283330641+283750866+284122197+284425019+284630156+284565258+284512601
2899+284828715+285399062+285878268+286048073+285874301+285580498+285477489
2885+285572563+285767392+286139724+286598653+286767577+286533518+286222795
2872+286129653+286201231+286269112+286302612+286283082+286268502+286378835
2858+286534874+286639070+286665280+286408673+285760001+285187042+285104683
2845+285212744+285387669+285861687+286338248+286528093+286705765+287046359
2831+287470229+287878773+288176679+288381069+288591089+288886350+289256172
2818+289624706+290006836+290449524+290798900+290926831+291097654+291441503
2804+291690685+291901179+292264898+292495464+292470712+292494379+292568364
2791+292567822+292640315+292869762+293192759+293483036+293610526+293664268
2777+293903447+294285171+294438498+294329826+294289239+294464979+294709515
2764+294801403+294759155+294872709+295285932+295777039+296121363+296277843
2750+296234104+296154287+296346912+296798721+297181597+297419081+297633949
2737+297754725+297759404+297750351+297832914+298132142+298476195+298593479
2723+298650951+298900675+299337260+299864376+300270445+300435232+300542310
2710+300753957+301067256+301357058+301460813+301480751+301579216+301701823
2696+301899907+302225718+302519657+302725268+302860455+302901448+302873441
2683+302868966+303026124+303218681+303167380+303062743+303218579+303509602
2669+303818697+304170176+304435734+304551221+304554815+304489646+304536878
2656+304760325+304899445+304857841+304862520+304990179+305126587+305191213
2642+305264961+305518109+305842768+305989856+306052312+306312785+306711970
2629+306966373+306956574+306765034+306798975+307226914+307541264+307558930
2615+307624404+307840323+308170915+308588512+308898828+309037439+309160283
2602+309285196+309384408+309565437+309807328+309964114+310046439+310111812
2588+310166402+310188780+310152161+310228384+310461256+310619771+310717083
2575+310853864+310921440+310830637+310685855+310609565+310577353+310591391
2561+310597155+310541887+310624179+310878683+311078259+311143055+311047336
2548+310818736+310707250+310818465+310978946+311061441+311083718+311199341
2534+311480700+311709029+311732560+311696110+311726999+311810512+311921591
2521+312028465+312106349+312177350+312240214+312253302+312284835+312441349
2507+312673171+312980299+313361650+313565701+313538609+313599777+313850756
2494+314097598+314194233+314164293+314247060+314473286+314553103+314507736
2480+314522621+314567615+314575482+314529877+314566971+314807811+315044549
2467+315074964+315047804+315104022+315146032+315130944+315137725+315165936
2453+315130096+315061435+315065605+315107379+315129825+315155119+315263588
2440+315531825+315753067+315702037+315615066+315695154+315773920+315798197
2426+315895476+316090271+316288219+316433137+316588702+316766543+316847377
2413+316825168+316929771+317256498+317630253+317843866+317777985+317716919
2399+318006178+318406822+318611416+318644441+318616061+318672754+318860055
2386+318975881+318804448+318288589+317406637+316064807+314072609+311435265
2372+308601939+306040377+303827072+301821243+300247083+299538870+299497572
2359+299770827+300834859+303280053+306871977+310347532+311871646+310748176
2345+308250393+306531992+306224830+306681352+307437611+308226963+308693759
2332+308942873+309779830+311273970+312598575+313567430+314668556+316084032
2318+317623031+319150230+320590323+321779572+322651013+323358717+324055978
2305+324766733+325402385+325839954+326086219+326310242+326670672+327085183
2291+327307816+327360677+327477350+327687708+327930990+328173390+328329498
2278+328410942+328518596+328687622+328905338+329127157+329315170+329493147
2264+329621044+329638811+329653459+329768980+329990222+330365537+330795341
2251+331018312+331117524+331362026+331673291+331919353+332118421+332224922
2237+332274223+332392591+332552123+332676494+332822870+333003492+333166414
2224+333423191+333780739+334018019+334147102+334296360+334401404+334440600
2210+334462674+334510042+334649840+334885696+335157832+335391349+335591840
2197+335834376+336080099+336254482+336362238+336403198+336439037+336568358
2183+336712598+336829441+337039087+337247038+337312817+337395991+337596652
2170+337839391+338081723+338234813+338313002+338454699+338615926+338733549
2156+338874601+339079331+339325088+339513237+339574439+339584950+339639506
2143+339738854+339880822+340071683+340278380+340555907+340883855+341079565
2129+341183320+341336138+341515540+341669138+341748141+341828432+342033331
2116+342273697+342439061+342551869+342647859+342739747+342858523+343069695
2102+343367397+343615121+343749765+343881730+344051638+344215510+344425393
2089+344690240+344963156+345346880+345863926+346212387+346282065+346466451
2075+346963390+347524549+348035966+348450206+348589835+348700981+349294419
2062+350252695+351091416+351676140+352132865+352633263+353308382+354131675
2048+355028105+355979938+356904748+357733805+358636813+359754994+360881651
2035+361796221+362565229+363284427+363904380+364369006+364635616+364743406
2021+364749407+364513619+364111111+363899566+363854741+363767566+363622140
2008+363447960+363290971+363158022+362982588+362764092+362602764+362370569
1994+361762043+361166197+361309725+361913403+362380470+362650945+362862761
1981+363087089+363317385+363655029+364079170+364311670+364151663+363633566
1967+363426192+364163293+365133131+365640717+365988703+366333570+366589025
1954+366918938+367353658+367728329+367944180+367852428+367525464+367895388
1940+369356639+370761977+371528102+372018396+372511436+372993998+373395964
1927+373488055+373034619+372653268+372902789+373357039+374199659+375464520
1913+376081591+375766800+375631376+376447108+377438782+377973290+378388513
1900+378769389+378703915+378461176+378720190+378869245+378528040+378962692
1886+380217992+381243370+381959042+382526541+383020666+383487597+383748918
1873+383258862+381514794+379892757+381001851+383608069+385272760+385856806
1859+386154576+386592822+386971054+386960102+386565731+385725417+384256910
1846+382692685+382943460+385167717+386698578+386999874+387126177+387022083
1832+385529639+383404119+383236653+384422410+385681575+387142419+388061939
1819+388244833+388292438+388153318+387395839+386698510+387246377+388420708
1805+388775102+387820251+386456008+386293323+386992347+386727365+385279135
1792+385251670+387928346+390191528+390783067+390513067+389986934+389832420
1778+390219094+389743516+387525804+385493460+386971494+390330139+392732746
1765+393177740+392371807+392310402+392871459+393232737+393661964+392820531
1751+389953773+387781665+388687012+390670903+391902740+392295347+392766517
1738+392942392+391046625+388830303+390796901+394396692+397303188+398789021
1724+398825302+398009774+395462588+390581050+388304882+392252252+396577276
1711+398537704+398012690+395699054+393619343+392199018+389742533+387625693
1697+388708340+392958057+397015726+397868552+396628984+394388520+390437726
1684+388088115+391527594+394793029+395546338+394435278+393071645+391580591
1670+390163317+392101027+395008439+394905803+393615138+394392928+395081441
1657+392670290+386677047+382607986+385157002+384944304+383968533+388554979
1643+393632092+395310719+394015578+390718203+390811718+397339197+402466492
1630+404716010+406101343+407496882+409311814+412835857+415819628+416495832
1616+418795057+424296582+428274807+430078652+431601444+433785385+435856858
1603+437710139+439876144+441898926+443225837+444449231+446230427+448255006
1589+450322545+452502892+454500312+456084000+457035732+456404216+454161650
1576+454629056+458689438+460582865+461062986+463815376+467264112+469011773
1562+467917124+462603206+460394411+469167270+476880710+482091619+485788553
1549+489060735+490790596+489297371+485287375+484006509+495208457+506749406
1535+511699639+516113974+523004121+528196212+531224333+534568567+537938605
1522+542738834+550630590+558285710+566673760+575666879+582069852+584132949
1508+583598103+592905199+609637967+619701865+625560158+630411078+637925518
1495+647876845+654999118+659053566+665362549+676703108+687757629+695890327
1481+702693672+709009166+713712998+716551545+720182021+729386990+740713647
1468+748745574+754562230+761876348+769460229+773465851+774562738+781927242
1454+794890177+804499316+810551014+815191508+821634762+830070791+838006287
1441+844521898+848333844+850273792+856473459+865829856+872239814+874883261
1427+875856117+875477377+876073121+877370873+874331936+869825916+869009303
1414+868414238+866823938+864930036+861576646+856614105+852413044+849834833
1400+846889276+843222316+840040631+837784604+837465608+837504330+834751499
1387+830846852+830683285+833328563+836219124+838979007+839957627+837896225
1373+836551750+838741456+841639815+842472974+840244683+835813055+833261834
1360+834884142+837381994+838338913+838192707+837765412+837124844+837091479
1346+838333352+839853872+840137333+838689239+837551664+838496784+840524821
1333+842639593+843981423+844195850+844049440+844101318+844039811+843976608
1319+844649999+846233721+848892697+852133177+855228467+858328436+861234526
1306+864948345+870736655+877287258+882620402+886298958+889671878+893826351
1292+897615240+900001266+902349249+905651371+909279677+913093250+916589116
1279+919111109+920884167+922417571+925224924+929771361+933056801+932814299
1265+931344707+931316090+931939434+932313291+933926512+937809798+942064838
1252+944271633+944562961+943697319+942803127+944043440+946448590+946727508
1238+945414973+945455322+947203153+948780162+949201556+949152052+949014797
1225+948739677+948704278+949381263+950928026+951549200+949437684+946507723
1211+944878702+944130174+943458411+942095287+939316551+935626738+932316749
1198+929861485+927983452+926189304+924124579+922107595+919930774+917734083
1184+917343748+918646382+919054756+917688784+915529255+913873854+913287198
1171+912248291+910084558+909046127+910306784+911720158+911773731+912075570
1157+913153130+913640643+914108558+916140461+918530895+918300193+916739595
1144+917758225+921022304+923289181+923769099+925301418+929070235+932295863
1130+932910459+931591278+930588923+932737941+938335693+942610536+942793226
1117+942747858+944332259+945165554+943788732+941758659+941255753+942719105
1103+946564755+951871586+955714591+957259184+958880543+962781867+968540949
1090+973930310+976854506+978083427+979798572+984044186+991703341+997092634
1076+997079072+998569414+1003468889+1008069373+1011594941+1012762829+1012975357
1063+1016301282+1021100393+1022881859+1020417983+1017098840+1016823584
1051+1018396320+1020121569+1022253090+1022789158+1022720802+1026989812
1040+1032988548+1034077161+1033376781+1036012430+1040493968+1044762843
1028+1047689074+1047936594+1045711761+1043540365+1043384868+1044190156
1016+1044911830+1044107017+1042236510+1043257378+1045385305+1044923358
1005+1044193479+1045012601+1047154091+1048768533+1047338951+1044626402
993+1042771357+1041821015+1042368883+1044350061+1047441215+1049957308
982+1049176365+1047719590+1049242483+1050300852+1046247896+1040568631
970+1039882153+1043021793+1045390324+1046414243+1047190711+1050969970
959+1058475459+1064500303+1064364946+1057302485+1050620865+1052707087
947+1060051654+1063958674+1063773000+1062855209+1061875368+1062011877
935+1063354522+1063501677+1062737891+1062067281+1061914497+1063048275
924+1063742823+1062011945+1060730198+1065416195+1072747809+1071774546
912+1065602344+1065573997+1069449417+1071099868+1072311224+1073741823
901+1073506713+1071675335+1069167719+1067712029+1068365957+1069366074
889+1069448061+1070006642+1071659941+1073167644+1072362424+1068317402
878+1063709527+1061667316+1062673468+1063080283+1058285920+1049971006
866+1043500897+1040540896+1038811306+1037931355+1040182364+1043060583
854+1039444551+1029819951+1022358270+1018512756+1014224283+1010471606
843+1009488918+1007390286+1000810862+994182272+990093375+984639116+978359835
829+977296245+980918719+980926450+975330189+968586384+962565881+958756647
816+956292025+952688539+949466165+948687799+948506533+947478138+949272489
802+951825202+948102363+942280690+938078340+932024608+926165230+923912457
789+923633607+922981510+921806637+920096918+917482020+914967826+913104575
775+911928346+910364493+906246301+901983394+900478539+899106125+896278021
762+893925359+891519327+886858625+882216232+881509545+882721580+881878791
748+880404317+879796977+878559580+877285902+878500717+883679652+888666064
735+887166160+882814010+881341706+882039306+883482518+883206245+880948047
721+879940878+879211134+877561497+877161803+878321079+878875659+877159158
708+874492451+873385120+875184422+876620175+871741858+865228552+865095501
694+867271915+865325593+860810283+857834413+857916264+860872808+864467478
681+864930917+863787917+864601817+866120709+864581066+856403408+843614144
667+839707598+849167004+858154901+861195126+860568527+857244298+849560459
654+840902747+837881374+843110491+851565440+854823348+850356118+842664412
640+837968040+838928350+844724390+852807245+854120255+841243376+820859651
627+804583812+800164933+805203629+807988740+804748192+807524012+824045066
613+833661054+821162168+813653696+826337781+842094980+847193421+840812012
600+823189053
##END=
