##TITLE=Sample description
##JCAMP-DX=4.24
##DATA TYPE=INFRARED SPECTRUM
##DATE=25/8/2023
##SAMPLING PROCEDURE=Instrument type and / or accessory
##ORIGIN=Default
##XUNITS=1/CM
##YUNITS=ABSORBANCE
##RESOLUTION=4
##FIRSTX=4397.6552
##LASTX=599.8556
##DELTAX=-1.9287962
##MAXY=1.9289126
##MINY=0.6177206
##XFACTOR=1
##YFACTOR=1.7964399e-009
##NPOINTS=1970
##FIRSTY=0.72957027
##XYDATA=(X++(Y..Y))
4398+406120057+405612579+405348870+405772703+406491566+406846949+407306450
4384+407806097+406942672+405490811+406096267+408250468+408936483+408101891
4371+407436679+406805144+405854755+405210977+405326939+405872407+406743463
4357+407801021+407989247+407065568+405895665+405527806+406373447+407134946
4344+406901330+406474512+406514725+406729594+406129779+404533754+403639339
4330+404508704+405821045+406340268+406518773+406728599+406618609+405982562
4317+405186159+405147837+405963782+406512967+406606930+407356053+408383981
4303+407743355+405937737+405441241+406421159+407156081+406707066+406126759
4290+406702653+407165438+406563565+406140695+406102372+406115412+406556166
4276+407448192+408340948+408414407+407836755+407710607+408088553+408213207
4263+407564286+406567381+406178718+406590805+407215870+407621421+408111745
4249+408448382+407708749+406530983+405891783+405314994+405046673+405702860
4236+406154862+405674393+405295750+405857708+406820008+407054055+406671298
4222+406638650+407174595+408053482+408727387+408595599+408070934+407735890
4209+407442120+407042608+406553213+406144477+405985150+405929508+406019590
4195+406005721+405486133+405067277+405215290+405727181+406481513+406991976
4182+406620036+405585372+405143225+405762285+406336950+406568442+407009462
4168+407627095+408034304+407616909+406714929+406564096+407263814+407783967
4155+407483296+406634635+405584443+404879416+405309088+406300088+406599797
4141+406429620+406696813+407172870+406961617+405933888+404931109+404755757
4128+405207659+405593369+406011926+406974922+407852581+407720694+407126784
4114+406816557+406454637+405761953+405132408+405181282+406249855+407591394
4101+407856132+406926978+406066506+406049816+406410210+406819577+406817188
4087+405745828+404870922+405384040+406324276+406926281+407412491+407838679
4074+407611600+406356460+405134067+405180386+406022410+406438479+406293054
4060+406190895+406263159+406020619+405432880+405140172+405321696+405576447
4047+405629235+405800739+406351350+406866160+406909891+406284626+405462344
4033+405404877+406029942+406234559+405790985+405496286+405453883+405601995
4020+406312663+407013543+406868981+406222316+405915108+406100846+406346307
4006+406565821+406932486+407291221+407220615+406484067+405562346+405570774
3993+406640873+407104620+406225335+405374485+405488622+406148624+406494486
3979+406611708+407022468+406965731+406212163+405910198+406213921+406683375
3966+407401641+407930121+407665185+407278878+407464350+407575302+407121442
3952+406856605+407185246+407385052+407382696+407449287+407470654+407785692
3939+408270939+408555618+408530269+407739340+406617349+406171916+405875957
3925+405136257+404836681+405533779+406150482+406181007+406589876+407560836
3912+408312878+408191243+407034379+405221628+403803510+403571255+403951988
3898+405092129+406815860+407472147+406028416+404697826+405483777+406480849
3885+406354502+405984453+405845432+406522024+407304658+406928007+405958109
3871+404837312+403947442+403863200+403481638+403703342+405254442+406242190
3858+406186947+404331792+399961080+399817381+403644382+406498169+407152498
3844+405770347+403818640+402218435+401464634+402578928+404352363+405617457
3831+406426136+406847779+407146194+407018719+404755060+401636005+402111233
3817+403542953+404486241+406760385+408925899+408570880+405698746+404076079
3804+404053583+403926174+405343727+407135543+407650254+407722684+408041571
3790+408838372+409835045+410097693+409779503+409649075+409156064+408385176
3777+408574795+409232210+409154471+408291212+408006898+408681168+409459190
3763+410014778+410022110+409651166+409880932+410479023+409956979+408105408
3750+408680969+411492518+413688027+416853997+421344585+424698615+426183157
3736+425398102+423840797+425471461+429161731+431281425+430798234+428864013
3723+426483961+424058188+422239696+421416252+421209280+420829642+421914141
3709+426581873+432302020+437286516+442310262+449042544+456900667+464724781
3696+472391989+478401195+480909053+481300503+483482507+485376217+483916858
3682+479678399+473869763+466496788+456321787+448511609+446701744+444798578
3669+442281960+441129211+439711393+437863670+436086752+433818746+430617142
3655+428289347+427194994+424134600+419206145+419779317+424192432+426965990
3642+427125185+426024826+424948920+423905331+422533134+420728047+417878309
3628+415086767+414583470+413739488+410363260+404657546+399525934+397224019
3615+395845651+394050318+392564018+392322008+392787148+392832272+392406582
3601+391734999+390800238+389212907+386862185+384760939+383300286+381135900
3588+377884493+375734474+375042220+374469147+373291547+371526208+370002050
3574+369009458+368075560+367117175+365763459+363566590+361868174+361226818
3561+360922597+360206521+358843216+357272640+355958109+355512610+356208480
3547+357049177+356321091+354518359+353838316+354378209+354622907+353750954
3534+352498469+351732989+351172358+350573371+350303922+349829889+348935707
3520+348775019+349099978+348952960+348757501+348616953+347950414+346940502
3507+346485282+346717603+346774871+346467099+346108033+345717280+345511402
3493+345495775+345416609+345301975+345332765+345399854+345326892+345038000
3480+344413997+343884090+343858210+343999620+344254006+344896358+345652083
3466+345954711+345720698+345498562+345484262+345352971+345243480+345378619
3453+345555100+345665786+345554071+345120484+344761119+344787994+345395408
3439+346305118+346655823+346596831+346816080+346957888+346690297+346804500
3426+347799083+348844796+349299817+349454797+349664756+350347487+351697951
3412+353235647+354124023+353905006+353350215+353637282+354858347+356142121
3399+357115602+358304484+359566359+360390932+361114274+362056401+363310015
3385+365048710+367288115+369737943+371682184+372861112+373984563+375817389
3372+378639090+381927492+384614353+386639917+389007095+392097948+395631512
3358+399321483+402880561+406383169+409929042+413467550+417368376+421755942
3345+426134450+429970079+433087972+435775430+438469159+441409311+444206327
3331+446634522+449244374+452094079+454712159+456781885+457806163+457860843
3318+458114532+459083733+460317108+461333423+461650219+461793023+462767002
3304+464429186+465577224+465033381+463656473+462803366+461449982+458658540
3291+455469709+452860687+451061870+449709913+447834419+445249949+442909315
3277+441454302+440526675+439504420+438006706+435905327+433809124+432324914
3264+431102389+429810187+428719915+427860737+426854707+425646482+424573795
3250+423998001+423829085+423458638+422674578+421980831+421559089+421029116
3237+420400036+419799955+419279537+418977108+418268331+416861031+415873681
3223+415920099+416050759+415444938+414744920+414536853+414265778+413790285
3210+413521699+413125438+412476086+412264269+412853069+413607135+413555342
3196+412861065+412417690+412599314+412949886+412827388+412380164+411788643
3183+411053025+410581680+410811181+411750122+412571742+412431294+412061975
3169+412664212+413566026+413562012+412854794+412481195+412929547+413190702
3156+412659368+412588000+413995267+416001653+416896168+416355212+416291043
3142+417978079+418984242+417511710+416064561+417027027+419056108+419019445
3129+417027923+416661291+419648989+422541761+421405834+418389370+418446869
3115+422212323+424132676+421095541+418233725+420062171+424130287+424746029
3102+421505007+419737677+422168991+425390139+424557802+421203971+420500204
3088+423794977+426649426+424592807+420892616+420425120+422772224+424242168
3075+422763598+420918363+421714236+424353119+425049288+422699993+420733687
3061+421356861+423427814+423992659+422379680+421020124+421040895+421712942
3047+421991648+421706604+421425940+421610318+422230174+422351046+421776015
3034+421366085+421093251+420800510+421081606+421741575+422078876+423998366
3020+432852797+448760221+459720278+456997185+447471835+439318915+434013011
3007+430489401+428510321+428082242+428113762+427730375+427296489+427688403
2993+428952436+430636286+432059281+432161373+431524861+431809308+433574646
2980+435794740+436303413+434926604+433899074+434498956+436212866+437237344
2966+436331117+434729917+434743421+437121117+439000725+437808194+436022417
2953+436042590+437441032+439209290+439273160+437277093+435783393+436545157
2939+438982145+440075436+438382362+436750471+437298095+439699382+441821531
2926+440845030+438050370+436637860+437172279+438716378+439187856+437535062
2912+435735880+435593442+436984086+438290621+437966194+436842908+436814042
2899+438517501+440724722+441144241+439509862+437919345+437930194+439446290
2885+440562940+439838370+438699722+438666875+439564641+440630327+440808268
2872+440082503+439496523+439466795+440226568+441435722+441964368+441827669
2858+441486818+440959831+440750237+440753820+440094050+439163270+439241308
2845+440205864+440827644+440887168+441127088+441820071+442527188+442933901
2831+443250265+443602265+443880838+444205365+444627771+444908103+445083555
2818+445460870+446080660+446661729+446986356+447150892+447387062+447966738
2804+448735171+449044236+448957439+449084317+449507751+449924981+450060320
2791+450029330+450071667+450156871+450411423+450840000+451198470+451623464
2777+452175700+452576971+452692634+452550527+452583275+453235812+454004179
2764+454267025+454335275+454603066+454951382+455277369+455529299+455613475
2750+455677943+455817727+456033061+456590175+457377752+457965955+458436205
2737+458839633+458969430+458904200+458925302+459055929+458962927+458826461
2723+459166283+459719747+460126526+460596245+461192710+461660538+461844650
2710+461882143+462140809+462849088+463695790+464058175+463860957+463759395
2696+464144707+464691203+465049142+465337304+465665149+465808351+465782869
2683+465806360+465914259+466217750+466715971+467084958+467237815+467386624
2669+467459851+467355004+467217841+467131641+467358190+468085845+468773453
2656+468781914+468369794+468299653+468710048+469263545+469810406+470191670
2642+470335801+470605781+471113358+471399198+471435596+471594558+471869747
2629+472197492+472547468+472673748+472635393+472804441+473156242+473558342
2615+474013794+474272726+474336961+474526979+474883855+475280315+475507428
2602+475545551+475748907+476225328+476703044+477037658+477338760+477700647
2588+477975869+477937613+477758677+477920095+478381055+478615102+478499870
2575+478484342+478961162+479550393+479602684+479339837+479357323+479640077
2561+479859293+479936534+480058336+480364746+480582005+480581109+480748001
2548+481005174+481153452+481464774+481790561+481808246+481804397+482117278
2534+482433676+482518416+482711354+483112657+483525043+483678763+483529755
2521+483523251+483744060+483932352+484172405+484517635+484914659+485418255
2507+485644836+485270043+484938150+485201229+485819525+486490478+487111462
2494+487537484+487638515+487616318+487772294+488149244+488714155+489278768
2480+489420808+489286731+489510724+489922977+489941823+489750345+489798787
2467+489953004+489963522+490003935+490049025+490009774+490221691+490668516
2453+491048851+491518438+492140085+492550414+492576095+492330037+492109759
2440+492239856+492631571+493029258+493256171+493181418+493107926+493513211
2426+494213925+494731655+495060363+495248489+495366940+495667312+495945454
2413+496024122+496029564+495826805+495719835+496267559+497121329+497586868
2399+497657407+497937408+499156117+502377928+509012265+520152618+536464332
2386+557427421+580822422+604617565+628123981+651065089+673424098+695886826
2372+719597096+744988297+768830157+785227109+793881734+800640161+807437806
2359+808974009+800651110+785043494+765957956+746162579+734133419+737481278
2345+751298870+757371879+751443665+744200421+737951097+734400977+737936366
2332+744632349+745616116+741358613+737875515+736346214+734197853+729360375
2318+720030418+707927002+702397404+707535752+712670649+707037996+692041144
2305+674677082+661302434+653020147+646033180+637732047+627696632+615851085
2291+603563723+592726496+583307486+574628242+567009342+560874288+556153502
2278+552141691+548123013+544408522+541423744+538915155+536721571+534840935
2264+533153202+531698688+530397627+529006551+527632994+526617010+526072869
2251+525591238+524740720+523801513+523264539+523096154+522926342+522615751
2237+522351776+522097556+521703684+521649934+522174134+522600621+522675938
2224+522735130+522962574+523353426+523664814+523839935+524061274+524318115
2210+524598182+524843211+524808339+524656411+524951044+525683344+526375432
2197+526948637+527530603+527946671+528037450+528009745+528042062+528321166
2183+529153668+530018222+530122869+529956873+530294108+530868541+531005505
2170+530721955+530712831+531119874+531525989+531813189+531822015+531540854
2156+531434248+531514974+531397486+531179199+531061280+530858289+530535753
2143+530501478+531012241+531789997+532443397+532964445+533624017+534295799
2129+534497861+534391421+534523176+534870896+535209325+535536074+535917570
2116+536412075+536910627+537289834+537571426+537855010+538276089+538633894
2102+538749956+538859348+538991435+539056831+539127835+539387894+540027359
2089+540648907+540778074+540833517+541293548+541943398+542478979+542817308
2075+543009914+543263238+543762753+544387420+544824126+545192649+545836493
2062+546586445+547132079+547657606+548502783+549488640+550162379+550456812
2048+550845342+551638129+552478727+553143507+553673945+554041207+554367161
2035+554754629+555212968+555719815+556209641+556551255+556735301+556898742
2021+557041480+557147255+557112417+557131727+557553171+557863663+557736653
2008+557578387+557431270+557297226+557323371+557266435+557087665+557074460
1994+557070213+556933381+557136041+557740568+558075015+558020933+558152987
1981+558555784+558816507+558904565+559105366+559505110+559918325+560107580
1967+560149917+560529820+561317165+561937353+562142998+562221036+562439754
1954+562930344+563699440+564450487+564694222+564533568+564663830+565402070
1940+566448147+567218173+567427733+567490376+567884082+568483366+568994328
1927+569259099+569095392+568811842+569073626+569876964+571092853+572251077
1913+572441393+571709059+571100617+571336323+572076421+572903448+573748791
1900+574438921+574900246+575170193+575174971+574826057+574529766+575038405
1886+575896953+576352969+576632206+577083379+577652868+577996141+578190240
1873+578348904+577755326+576692991+577219945+579079778+580580412+581333118
1859+581492511+581397419+581500607+581912628+582482648+582890555+582594529
1846+581367956+580663427+581808777+583014911+583330977+583591435+583852158
1832+583047559+581468622+581173459+582075007+582923402+583845987+584871227
1819+585690026+586137284+586195347+585856454+585453325+585661094+586287984
1805+586848781+587134654+586826352+586532051+586859066+586598609+585194394
1792+584974282+587341892+589635379+590568713+590650998+590474152+590439911
1778+590548341+589895637+587693261+585322599+586326273+589553094+591881884
1765+592551774+592187731+592276519+592876998+592928957+593106134+593314235
1751+592138294+590476143+590867194+592269286+592759079+592375725+592479974
1738+593323260+593094721+591633172+592377915+594862116+596990038+597999884
1724+598002339+597713945+596467066+593288023+591522220+594475710+597965444
1711+599548695+599278880+597803131+596350142+595381771+593113235+590074739
1697+589873805+592777194+596313180+597768027+597280557+595779458+592506186
1684+589865046+592981181+596660900+597807378+596638869+595209836+594451423
1670+593277472+593629107+595492921+595857761+595164911+595859486+596690960
1657+595609580+591870271+587561473+588489564+589371603+588978959+591403571
1643+595043408+596846372+596177477+593205473+592117059+597037219+602008078
1630+604655655+606132798+607132026+607911674+610754875+614715424+616310818
1616+616891589+620255640+624119902+626508879+628155900+630181165+632302252
1603+633974291+635525092+636889094+637677700+638608910+640046371+641575473
1589+643429533+645410736+646892392+648059773+649326692+650084308+649377987
1576+649138366+651399669+652752456+652580056+654172000+657236043+659381019
1562+659891251+657303596+654328075+658998993+664879562+669565609+673284679
1549+676814095+679462269+679491400+676507850+673728485+679571827+688019878
1535+692461128+695644684+700145259+703807459+705767162+707242380+708394499
1522+710271718+714770701+720911993+728535471+736406268+742109925+743622769
1508+739885650+740355602+751906781+761256912+765831742+767664434+771341764
1495+778394359+784234118+787581712+791594684+798051179+804010980+808782166
1481+813931197+819098610+822275795+823417827+825107716+830086670+836462806
1468+841831683+846670754+853242315+859884283+862137159+859527473+861469392
1454+871682848+881423498+887635263+891123139+895889613+901525717+903750125
1441+903239760+902669143+903865589+909276471+915269186+918107544+919918139
1427+922681578+922945885+919688273+915658844+911092176+908872082+910871998
1414+912386368+910922099+907736951+904555055+900621581+896582264+894779101
1400+892852113+887211563+879111364+873384814+873159460+874532553+871973897
1387+866769721+865411227+867430122+868911512+869250074+868875678+867631587
1373+867109145+868036640+869099241+870026603+869772316+868191123+868152635
1360+869283917+869072299+868831749+869743450+869814122+868646808+869019809
1346+870696559+870300730+867627074+865540494+866682725+870867234+874925595
1333+876599027+876706329+877081653+878258391+880096989+881743944+882052976
1319+881228603+880166666+879803219+881539029+885733292+890983454+896457643
1306+902044774+906585098+908603993+909385897+912530499+917820742+922042810
1292+925172084+927558606+928058153+928276871+931253388+935709370+937758591
1279+937948044+939008455+941416477+944350657+946221373+946581369+946021766
1265+944554179+943440349+944402284+946311820+947101753+947177734+947373624
1252+948400192+950553663+951778444+951672137+952123442+952449860+951895368
1238+951979112+953646638+956669937+959629201+960727569+960079245+958396987
1225+956029908+954367492+954111812+954677188+956526935+958791688+958630039
1211+956402778+954400671+953829722+955994738+959627674+960672690+958420345
1198+955994274+955350330+955985714+956485261+955582187+953623612+952669640
1184+953435883+954650180+955708335+957418264+959350494+958751342+955586235
1171+953666745+954879847+958185303+961662230+963466455+963364063+963440907
1157+964985868+966063931+965288198+964396803+966204146+970793708+974074280
1144+974823535+977158961+981155144+981781105+978236028+974394593+973374926
1130+974940194+976348324+978083867+980773051+980965889+978874796+978396682
1117+980605960+983385590+985657444+987649729+986617189+983812807+985737804
1103+991608552+996620354+1001185231+1004840065+1004159026+1000295428+998425707
1090+1001369509+1007135675+1011408640+1013231246+1015732237+1019220113
1078+1021263295+1022157278+1023513782+1025616952+1025375539+1022144538
1067+1022109500+1026764890+1032272125+1037507025+1042041775+1043633121
1055+1040490111+1035754029+1034504695+1037370857+1042165467+1045269657
1043+1044408986+1043827021+1046490391+1047631693+1045077284+1042755794
1032+1041734136+1040582283+1040702458+1043640288+1047678011+1050156042
1020+1050655058+1050625728+1050156838+1050392942+1053726269+1056656334
1009+1054997567+1051301657+1048693431+1048056720+1049345272+1050755592
997+1051844736+1053600585+1053788911+1051588923+1048954287+1045905506
986+1043731398+1043627348+1044906211+1047979744+1051326409+1050968802
974+1046997835+1044836468+1047452326+1050743448+1051204110+1052375605
962+1056272715+1058689629+1058342838+1058784322+1060456228+1061570257
951+1063194252+1064390167+1063538387+1063630427+1063410713+1059586930
939+1055493797+1053924548+1055143224+1058667465+1061264874+1060254232
928+1058600244+1060465651+1064730321+1068489206+1070326344+1069714319
916+1067326934+1065376123+1066485573+1069280068+1070344527+1070418317
905+1071088739+1069960310+1067288048+1067819448+1071065314+1073399545
893+1073741823+1071857835+1070301327+1070694436+1071314424+1070936645
881+1068194242+1063952133+1061308472+1059551428+1057559740+1058558438
870+1062331523+1062655950+1058828716+1055784182+1053230437+1048189172
858+1041657160+1036144151+1032994572+1032802795+1034430971+1033787425
847+1027835985+1018940876+1010361169+1003764458+1002349360+1005483412
835+1004827457+996784791+988196060+984622050+985147810+985947365+985304549
822+984912038+984755763+982085425+976835595+971812977+967654215+963184563
808+959504115+959172454+963007319+967587525+965598757+955915971+948670471
795+948107883+945758256+941195039+941807064+943472931+941168495+938604199
781+935578245+931167851+929799072+931731303+932858205+932764905+931839202
768+929780093+928254442+925646747+919562457+913184862+910138005+910926877
754+913139473+912345027+905980704+897143791+892013207+892132056+895370290
741+900412684+904606151+905065950+902282139+898807468+896060686+894691243
727+895597569+896705293+896687642+897457867+897512413+897278499+900214603
714+901842911+897537165+891938222+890654780+894520900+898100417+895976145
700+891747176+890119531+890252779+889999687+888148215+886568349+887121846
687+887114282+885220008+882256100+878627013+876168625+876119187+878076302
673+880324865+882105930+881995510+875662441+869882604+869601443+871252047
660+873154085+873417794+869791560+863401622+854606914+846138491+844433273
646+847393731+849380641+851028260+851699875+851710028+847067578+831968070
633+821505902+822162919+819726164+822348126+839294992+848074040+842689302
619+835484414+824342203+823519820+849647934+880796011+881773938+865946409
606+852884974+842702972+844592003+851508099
##END=
