##TITLE=Sample description
##JCAMP-DX=4.24
##DATA TYPE=INFRARED SPECTRUM
##DATE=25/8/2023
##SAMPLING PROCEDURE=Instrument type and / or accessory
##ORIGIN=Default
##XUNITS=1/CM
##YUNITS=ABSORBANCE
##RESOLUTION=4
##FIRSTX=4397.6552
##LASTX=599.8556
##DELTAX=-1.9287962
##MAXY=2.0374036
##MINY=1.2721552
##XFACTOR=1
##YFACTOR=1.89748e-009
##NPOINTS=1970
##FIRSTY=1.3578289
##XYDATA=(X++(Y..Y))
4398+715595890+712500625+712194855+712088116+711492911+713079998+715832364
4384+716220245+716625153+718369868+718045502+716118783+714081366+710926920
4371+709282411+712143779+716335090+719099958+720742268+719787389+716565658
4357+713593781+711121803+708602079+706942995+706875709+707889580+711012739
4344+715583388+716768143+714450652+712827441+712741873+713209417+712802122
4330+710727576+709882014+713568777+718816491+720313549+719895951+720324795
4317+718832072+715363814+713113295+712349594+712091257+713096584+715894560
4303+716977413+713903257+710184139+708335261+708516385+710461198+714110706
4290+719606516+721953221+717806453+714052718+716243302+720890283+721296385
4276+717875183+716934880+718490178+717682247+715169748+713625194+712123109
4263+711997648+714844000+716530601+716365811+718080433+720332774+720376249
4249+718844197+717652154+716894861+715375563+715664998+720242745+725299158
4236+726779190+725689804+723838035+721679115+718906142+714868187+711052507
4222+708558038+706763943+708857086+715734922+720726436+721004625+719526100
4209+719076398+721241915+721924195+717105513+712618987+714844063+721361974
4195+726874747+729179359+727957788+724563350+720418907+717249697+718142818
4182+720987097+719539733+715436126+714525225+715866163+716837690+718246102
4168+719865104+720952794+722254969+723755043+724780851+724104351+720567928
4155+717622941+718003409+717959494+717255225+719861397+724658656+727632040
4141+727614387+726784468+726123108+725160314+725296268+726336839+725660841
4128+723694417+723847585+725553411+724721732+722563377+723381800+726610693
4114+729850959+731454380+728740212+723924231+723230957+726627656+728814722
4101+727284869+723693789+720416645+719506059+721900385+725581933+727433325
4087+726750982+725943491+726899563+728528742+728563548+725708526+722316035
4074+722147727+725086683+727649883+726583616+722240268+718869453+719301438
4060+721408779+722149674+722302528+724215237+726942850+727747450+726850245
4047+725054391+723931833+726740553+730869981+731607673+731127941+731980288
4033+732072139+730006325+726994931+724373116+723685307+724933013+726203713
4020+726551575+724781542+723057120+726040619+730273269+729664054+726049100
4006+723531072+723071192+723477294+724248534+725842657+727201249+728060821
3993+729680326+731288773+731167709+730364428+730890965+731155270+730103390
3979+730395715+731606919+731655043+731440810+731431135+730847930+729865157
3966+729985341+731604846+732795318+732422765+731288396+730159304+729882120
3952+731708444+734729262+735986517+734983452+732999311+730489638+729052578
3939+730225710+732287314+732856949+731712591+730420028+732028035+735809790
3925+737202559+736557094+738183635+739906800+737794999+734958008+733557888
3912+732719551+733065968+733594390+732677709+730987275+729853032+730640293
3898+734399053+737412457+735438368+730896430+730935696+734341128+734792212
3885+732451099+731306867+730723976+731736464+734015506+733579500+730360658
3871+728422254+731268669+735879965+735090317+730095976+729433737+733518497
3858+738428841+739524070+730208622+723666837+727615015+732483329+735190146
3844+734034479+728979575+722125173+717856147+722629972+730816014+734780401
3831+736321814+737793051+737752152+736545283+733522895+729281387+730771032
3817+733911782+734624532+736568842+739059479+740701035+741327463+741259864
3804+740958115+739122806+737841615+736789170+734125576+733838214+736630976
3790+738993827+739046600+737334617+735990349+736631667+738537968+741071263
3777+744179972+746264319+745566396+742942633+741619286+741468003+740181534
3763+739191914+739393771+738969451+737518820+736458144+735835234+734045034
3750+732576561+735046779+737488601+736389602+737182769+740232171+741453616
3736+740453693+740417317+740553584+740826308+743439076+745622436+743695843
3723+741652709+742853735+745881212+749557735+751296544+746997048+740300462
3709+739927721+742689825+745223685+746136093+745576259+746911543+749295754
3696+749458283+746803861+742329963+737473460+736438857+739019836+741716351
3682+744626533+747364072+746261555+738843298+732642841+731704361+730001299
3669+729935396+733371549+735731824+737267520+742066160+747632963+746082755
3655+740643676+738320530+734564157+726089245+721690486+724112141+728030540
3642+731302343+733671036+733144248+729043908+724961222+722335511+717047714
3628+711192419+713041423+717588387+719244392+715567493+709399831+707261518
3615+707324217+705944830+704223298+703970992+703786915+701414013+698208678
3601+696884640+697644258+698257493+696561719+693614910+692497378+691010685
3588+687010991+687307462+692424940+695750773+695589250+693550011+691309984
3574+690474474+691165235+691196459+686714519+678760176+676444193+679742885
3561+681462282+680224440+681484836+684414243+683733910+681260362+680016866
3547+678021102+675155148+675064241+677521706+678565418+677134012+675157787
3534+674105781+674948140+676920156+677396244+676680415+676215070+675279919
3520+673732601+671798343+670937953+672351706+673410371+672688197+672622607
3507+674078453+675024912+674144733+672946596+672583782+672372187+672513229
3493+673614866+675107778+676016354+675930033+676219154+677980957+678887899
3480+677390527+676523352+677403783+677540804+676567456+675147358+672952251
3466+670979669+670444588+671822279+674132922+674964726+674235390+674043522
3453+674845735+675004808+673709418+673017903+674824249+676840242+676919276
3439+677175665+678709162+679426687+678990053+678756406+678723423+678833556
3426+678958703+678152281+676833206+676534975+678439705+681793370+682939487
3412+681206144+681558027+686105933+690213058+689646314+686923664+686728278
3399+689590211+692977675+694397773+693960573+693684206+693586513+693617800
3385+695880193+700090728+702515210+701866856+700884837+701284593+703033391
3372+706514716+710838651+713612503+714356477+715687552+719064587+722424723
3358+725139519+729537587+736013343+741564377+743130291+742168377+742332916
3345+744691117+749729750+755859591+759757257+762393334+765144255+766035994
3331+765148590+766266247+770763077+775470119+777540016+777044200+776466210
3318+776590164+775668897+773751351+772239780+771796235+771762184+772211194
3304+773753110+774997925+775013757+774199356+773626329+773610748+773619669
3291+774892693+774956838+770325563+766848699+767930044+768024470+766359229
3277+766120179+765904124+764543207+763725476+763545420+762902531+762521371
3264+762234575+761183575+761238295+761814904+760195148+758788997+759809214
3250+761889288+764324828+763502824+756621407+750248999+750559606+753725612
3237+753044525+750390167+749721394+749890079+751040846+753162951+755039535
3223+757185262+757189660+752132682+745853695+744257624+746778040+749974076
3210+753943301+756992452+755623808+752253181+751199605+752617315+754543217
3196+755476798+756486899+758533551+758317181+755082256+752892049+753271073
3183+754477942+755193708+756412011+758466705+759147163+757961089+756853420
3169+756921648+757997841+759922047+761683725+761553112+760502802+760404795
3156+760819441+762154347+763865702+763092765+761589487+762460871+763746146
3142+763269492+762185571+761777271+761344972+761377076+763425235+765024070
3129+763308004+761372301+762642435+765141616+766185769+765670603+764815617
3115+765785070+768651778+770773506+770250738+767464259+765171898+765423386
3102+766380903+767324096+770320474+772649211+771474256+770566748+770737570
3088+769179320+767273710+766968694+767218613+767017007+766885074+768184988
3075+770429476+771862452+773480261+775430979+775621904+774462467+772747092
3061+770915616+770030411+769370308+768278220+768140068+769616080+771292001
3047+772015306+772944174+775345725+777632243+777888192+776842909+775945013
3034+775891172+776378632+776700422+776402191+775538221+775356908+776137384
3020+777358200+778930083+779860522+780238855+779838345+777533670+776723039
3007+779831183+782958237+784012316+783996798+782641788+781795785+784120375
2993+787359258+787084839+784617070+784315321+784879365+783414661+782173301
2980+783979019+788135650+792066175+793259851+791935373+791489378+793287682
2966+796267098+799757470+801242089+799412560+797191694+795780706+794298537
2953+793518941+793401898+791930787+789193876+788053601+789542680+791824549
2939+794003448+796161929+798467420+801807577+805000409+805835229+804243053
2926+801041300+797667845+796316981+797406493+797375960+793759624+790781653
2912+792378415+795155094+794677875+793404411+794980503+797388776+797009376
2899+793737887+790970506+791771714+793640382+792250189+789711994+789927547
2885+792573047+795561007+796803624+796331619+796779373+798901729+800133478
2872+799195939+798248600+798563856+798601928+797974243+798735934+800241097
2858+800377176+800772974+801459338+800586635+799879916+800286834+800294687
2845+799591611+799132549+800028685+801508718+801066807+799270701+799052070
2831+800753435+803238795+805434782+805857908+804291114+802536662+802842243
2818+805711777+808881804+809990290+809558933+807928371+804751810+802390279
2804+802644093+805116196+808183818+808834434+806971734+805516329+805621184
2791+806931840+808745097+809641422+809631873+810309190+811297365+811516687
2777+811791610+813178096+815124353+815715600+814833348+814136806+813880983
2764+814531725+816266387+816917569+816426591+816786767+817061752+815896913
2750+814573001+814577461+815682742+816673431+816542880+815317352+815140060
2737+817308341+818941101+818284768+817624665+817761184+818146239+819736781
2723+821825337+821704085+819164193+817331900+818539398+821180312+822480602
2710+822558757+823228974+824448346+824429938+823094529+822372920+822863835
2696+823240785+823729313+825746751+828174312+829090427+828511494+827357523
2683+826466538+826339506+826845059+827478273+828012788+827607001+825713077
2669+824188250+824198868+824849358+826144748+827746662+828549000+829526810
2656+831219379+832381015+832616232+832072795+831416336+831114776+830909589
2642+831162774+831813956+832711160+834338455+835887784+835524529+833364541
2629+831730524+831655385+832001489+831659909+830765783+830161657+830106182
2615+830758809+832564904+835024065+837292929+838807516+838707184+837530534
2602+837329996+838820521+840894376+841653302+840531624+839420374+839366282
2588+839148342+838050976+836864148+836333653+836885760+838502437+839509334
2575+838954149+838425853+838692923+839222538+839986616+840983713+841665553
2561+841274404+840690194+841251285+842265344+842784216+842438427+841669574
2548+841736357+842817011+844028215+844251747+843799909+844289882+845548079
2534+845810751+844313504+842393759+841399740+840932134+840788578+841832982
2521+844344979+847010961+848148597+847580595+846712479+846662596+846968554
2507+847266721+847725030+847630667+846372344+844880437+844611483+845153915
2494+845825703+847633117+849924975+850548514+849450458+847834848+846296011
2480+845555807+846819784+849826277+852348201+852428931+850916794+849994397
2467+848961553+846880850+845926789+847071335+848021941+847256104+846612524
2453+847656739+848832950+849212162+849992387+850907685+850482359+849281772
2440+849684167+852122596+853466424+852425790+851765750+852345436+852451359
2426+851433593+850652050+851398286+851875631+850487511+849854800+852141004
2413+854780096+854991753+854049692+853320733+852538938+852649949+854462515
2399+856056136+855614161+854795237+854993513+854598657+853156131+852486290
2386+853302325+854169625+853240316+850696718+848234227+846828579+846623518
2372+846076940+843400719+840165919+837193037+833210620+830197027+830291076
2359+831652495+832508801+833487113+835582140+839059067+841923325+841468094
2345+838276141+836799438+838892015+840131742+837913452+836614419+838294800
2332+840101900+842558674+847257109+850386551+848880195+846338795+846448425
2318+848592393+851248071+852687644+852309563+852402293+853895707+855358589
2305+856935184+858701259+858632089+856977214+857427481+861080821+864669577
2291+866131327+865875692+864424496+862922412+861967283+861409961+861187812
2278+861095711+861399972+861723333+862234854+864291181+866274569+865972694
2264+865176449+865713981+866940577+868217182+869338986+870401295+870974574
2251+869806845+868024498+867097137+865930287+865085730+866477808+868994265
2237+870466131+870714290+869926589+868457362+867650500+867659359+867877487
2224+868497068+869136564+869484112+869798803+869751684+869703937+869959887
2210+869450689+868916425+869791830+870927644+872035941+873810309+874475186
2197+873433673+873006776+873791650+874312030+874246189+874322773+874532860
2183+874275905+873083548+870984312+869301794+869794405+872021679+873624661
2170+873255752+871861098+871981220+874195426+875698265+875370443+874687598
2156+874221562+874410665+875740860+876885344+876328588+875233610+875147729
2143+875169026+874444716+873840842+874279423+876010254+878063063+878635399
2129+877824893+876999372+876404230+876165118+876796384+877809564+877431231
2116+876037331+876546466+878847559+880636251+881415785+881387890+881066163
2102+881085451+881068048+880259175+878699166+877333601+876829430+877454979
2089+879304611+881021118+881426716+881390278+881343662+880799094+879742502
2075+878451510+877777962+878151143+878697533+879216279+880176435+880604211
2062+879781642+879081457+879314098+879416314+878826638+878476766+878997083
2048+880389600+882492229+883977351+883348158+881409502+880601949+881405607
2035+881733805+881187981+881600365+882680453+882746545+881913422+880936555
2021+880239448+879987960+879710336+879664159+880775786+882825014+884569414
2008+885164870+885424777+885941199+885407061+884136047+884253655+885191885
1994+884974824+884292042+884843708+885587369+885299881+885132829+885739782
1981+886472637+886701006+886401707+886281334+886648924+887407411+888159489
1967+888048226+887699421+888263842+888655996+888260009+888300783+889003230
1954+889843766+890245218+889758324+889049406+888919861+889358694+889718430
1940+890158708+891153669+892112002+892833925+893298893+893293051+892925524
1927+892138954+890952000+890017729+890154939+890609164+890702271+891652060
1913+893895354+895761447+894978898+892602729+891983839+893226330+893560497
1900+891777522+890130877+890543763+892749425+895258909+895952624+895559465
1886+896071300+896168553+895594772+895788273+896639553+897373852+897026053
1873+895028530+891901978+889621994+890943205+893898182+895694224+897031581
1859+898219352+898167458+897384972+897388239+897979926+897758970+896420545
1846+894597676+894302021+896756219+898641788+898432706+898231854+899145770
1832+899561735+898740360+898189887+898041683+897817271+899197287+901900335
1819+903443318+903253775+902256113+900311489+898323453+898830137+901145680
1805+902695323+902538700+900114910+897401998+897613216+899144262+899123970
1792+897524570+897926461+900959216+903595104+904066920+902726170+901921570
1778+903740858+905194316+902221308+896744219+896878791+900834885+902375732
1765+902200073+901416017+900854486+901858116+903316286+904393170+903265084
1751+898325024+894548672+896423183+899414096+900531126+900233523+900803095
1738+903771705+905066718+901114833+898819206+900751390+902999962+904453106
1724+904488979+903734952+901959516+896817411+892438567+895971471+901351432
1711+904149786+903814300+900158384+896969761+898411220+898973567+893674461
1697+890588997+893087675+897382082+899771194+899856699+899553630+896335982
1684+888735030+889243222+895126034+899074904+899318979+896907690+893995874
1670+889580655+887581624+891210714+893986765+893233995+892839516+893633437
1657+893769579+890154688+880989203+881250492+884374782+881796253+881433376
1643+885243967+886310674+884360270+880834150+878384350+881087649+883896621
1630+883962838+883290422+883203535+883267176+886311553+891144936+891880115
1616+890027153+893458029+898857466+902395585+905050572+907753431+910587219
1603+913084766+914725631+915552346+915343641+915877151+918948103+922102235
1589+923475968+924834246+926944288+928039203+927649311+926696506+923950988
1576+920858676+922829749+924014441+919554114+917305416+920987090+924702816
1562+926719186+923471821+912903767+914513408+922508022+927950620+929791520
1549+930907041+932303831+930497108+924688052+919060371+922365723+931004169
1535+935392437+935737409+936203320+935973820+933079406+929885632+926346194
1522+920459988+919701501+924807168+929074372+933159006+938215858+940980851
1508+937285858+932184840+936963000+942552232+944728429+943115961+940286571
1495+941534780+943910070+942494684+939160809+940152063+943807602+945621047
1481+944805075+942824013+938795921+931711139+924340504+924374618+931964513
1468+937494814+937116293+935250640+935745451+935254975+930774920+927632285
1454+931013027+934963216+936945660+936466368+936746065+940360517+943479781
1441+944912004+945062784+940740043+937913606+941572286+945780120+949472914
1427+952218998+950742986+947959647+946821697+942531813+938408542+941296107
1414+944400670+943529475+941517503+940208354+937646223+934681822+933600352
1400+931907593+928302629+924684094+923675626+926239391+927479495+923668590
1387+918107441+917444385+920260581+921430572+920951783+920241922+919166671
1373+919474326+920462941+919298353+917261376+916368569+915871560+915649536
1360+916795277+918222662+918500914+919340069+921763168+922677084+920922569
1346+918717284+917566015+917449097+916300090+913528185+912679858+914090658
1333+916485926+920356390+923273922+924210016+925613088+925575142+923228626
1319+922701461+925583811+929067649+931337393+934860999+940240395+943653618
1306+944162375+944546362+946221341+949424916+954825924+960144567+961899208
1292+961712304+962628733+964591451+967078506+971118158+976978479+982380303
1279+984552542+983713702+982767431+983717849+985550518+984233328+979804350
1265+978032872+979843867+980937589+979526601+977479320+977838868+981372149
1252+985028379+986381380+986567028+986777492+988006978+990340741+991874677
1238+992267334+992875166+995381635+998961595+1000332250+999675791+999618243
1225+1000675463+1001363146+1000848483+998984778+996306734+994880982+995458847
1211+997513729+1000252210+1002406984+1004090005+1005383887+1004744328
1200+1002031919+999856852+999887888+1001770692+1004524880+1006022504+1006576055
1186+1009481023+1013821983+1016021237+1016377141+1016682911+1017042270
1175+1015370621+1010914565+1009241094+1013528339+1017301110+1014988645
1163+1011118558+1011881757+1015271043+1016082743+1015242207+1016092418
1151+1018399794+1018731134+1015949177+1014912249+1018315043+1023182792
1140+1027944805+1031358342+1031305129+1029357867+1027068396+1024428864
1128+1023828256+1025771812+1026886454+1027417829+1029322873+1030327823
1117+1029159151+1028561308+1030775074+1033758762+1034963118+1034185847
1105+1030689067+1027136498+1026378702+1026622652+1027136184+1027145922
1094+1025914739+1024661065+1024578450+1029026590+1038029044+1044246526
1082+1045161887+1045266868+1046536060+1049305514+1052043556+1050552026
1070+1045830471+1044388762+1048833132+1054843040+1057940692+1058669086
1059+1057696931+1053614622+1049112955+1048064342+1049503350+1051627654
1047+1053415152+1055395021+1058608397+1060361468+1059715752+1059066643
1036+1059446483+1060651342+1061423337+1060812175+1058744225+1055332950
1024+1052716098+1053201296+1054828590+1055501195+1056135100+1055160181
1013+1052181394+1051099232+1052791676+1055530975+1057499158+1055097984
1001+1049817098+1048359117+1052569715+1059143541+1061445954+1056444451
989+1051715860+1051360710+1052081690+1054083234+1056867766+1054654439
978+1047693737+1042529517+1041417137+1043535723+1046711781+1047604211
966+1045513959+1043852362+1047403548+1053814280+1056464555+1056302969
955+1057531450+1060342620+1062246219+1060875628+1057504310+1057393863
943+1061685317+1064458290+1063411624+1061216140+1058550975+1056900938
932+1058567687+1061681925+1063403960+1063541421+1061730551+1058183323
920+1055539770+1056718242+1060767694+1062516618+1059143541+1054735232
908+1055478453+1060233933+1063781538+1065066185+1064258632+1064215534
897+1068421671+1073741823+1073531736+1065839059+1059888898+1064118909
885+1069838502+1065848231+1058549970+1055008898+1053206824+1052677523
874+1052793121+1049476272+1043936924+1042241715+1043755674+1044703076
862+1045211205+1041887885+1037456394+1039319094+1038529446+1030302944
851+1027048103+1030689255+1033461474+1034165554+1033491567+1028776672
839+1022137445+1019376473+1018777373+1016795556+1014224504+1009696387
827+1004744768+1003353318+1003368271+1003598587+1005339909+1006509461
816+1006835648+1007077588+1004477761+1001792807+1004743888+1008199769
804+1005551379+997358928+984599850+975040452+977250072+985147998+987256344
791+983616009+980715753+978116429+972468896+968662640+969614628+968400283
777+961889471+954159098+948129589+945172288+944569733+943584070+942904178
764+945284807+947772052+944619553+937662871+932102791+928006471+924501147
750+922399775+921884421+922902249+925141586+926522355+924114459+919624289
737+917193274+918419681+922174547+923639062+922092057+921345570+920975656
723+920589219+920008527+917120208+913503495+911148812+908246043+905707533
710+905722863+905797499+905879109+908299821+909327765+905821372+902448923
696+902906353+903538938+901243625+899805873+901736110+901691944+897066324
683+892299032+890958660+894480695+898582920+897526580+892531108+885622111
669+880039413+884617224+895510587+899036832+894731619+890411077+886518436
656+881629893+880928388+878888018+870936816+868276740+876062461+887531427
642+891270775+882942434+873325236+874412487+883943048+879541273+862869765
629+868304258+889681489+874226650+842740427+858426399+904520517+913510783
615+900552235+893411476+885742044+891578492+917064985+935777743+921535051
602+892825821+878353314
##END=
