##TITLE=Sample description
##JCAMP-DX=4.24
##DATA TYPE=INFRARED SPECTRUM
##DATE=25/8/2023
##SAMPLING PROCEDURE=Instrument type and / or accessory
##ORIGIN=Default
##XUNITS=1/CM
##YUNITS=ABSORBANCE
##RESOLUTION=4
##FIRSTX=4397.6552
##LASTX=599.8556
##DELTAX=-1.9287962
##MAXY=1.9168111
##MINY=0.62432927
##XFACTOR=1
##YFACTOR=1.7851695e-009
##NPOINTS=1970
##FIRSTY=0.73801792
##XYDATA=(X++(Y..Y))
4398+413416168+415041501+415776889+415525505+415313052+415811780+416472678
4384+416136486+414501971+412948391+412774435+413886783+414783305+414585076
4371+414429451+414295929+413186754+412222686+412535706+413198974+413561877
4357+414015998+413888653+412601348+411930834+412912264+413946616+414226814
4344+414129419+413736867+413352028+413245852+413488855+413681108+413356335
4330+412762983+412508460+413175201+414375061+414976226+414575794+413782209
4317+413306119+413503814+414374326+415223937+415677758+415968073+416158923
4303+416307036+416349907+416209240+415858691+415278428+414589316+414334894
4290+414632121+414461938+413902242+414098401+414988747+415573217+415430781
4276+415126375+414934957+414594291+414242507+414367481+414998496+415802097
4263+416553646+416860822+416565599+416044867+416059391+416403997+415993883
4249+415386574+415331683+415412851+415127243+414440135+414443474+415422500
4236+416174783+415874852+414470152+413278072+413715465+414799232+415147510
4222+415262868+415653985+416101728+416178322+415666539+415340097+415288110
4209+414519567+413228056+412700145+413257571+414178334+415157260+415712081
4195+415277092+414572221+414428149+414696962+415008780+415172185+414865876
4182+414208484+414108518+414943839+416112947+416880956+416876949+416665298
4168+417368399+418306457+417518615+415487876+414324543+414568816+415467976
4155+416300892+416558821+415960627+415128812+415208244+416095351+416518788
4141+416049141+415671280+415694853+415055791+414009854+414101606+415187477
4128+415830211+415550012+415073120+415144238+415698358+416091645+415874618
4114+415401131+415322234+415447709+415230147+415277059+416155885+416908502
4101+416826532+416170142+415538159+415565671+415937589+415894050+415692248
4087+416201861+417003927+417072441+416785564+416326301+415657424+415664936
4074+416200325+416710239+417185161+416850105+415691146+415135457+415443869
4060+415344805+414579400+414535360+415607240+416352411+416116820+415930077
4047+416442761+416956181+416465666+415356958+415183403+416005802+416423162
4033+416341961+416565599+416965964+416951874+416773411+416953910+417018785
4020+416841023+417077249+417552338+417457981+416503529+415538626+415533752
4006+416137020+416711742+417321488+417656611+417381487+417272840+417600217
3993+417811201+417933371+417740350+417213976+417142257+417390869+417309434
3979+417268934+417485794+417389167+417256980+417504291+417439083+417100087
3966+417117449+416964595+416243898+415896354+416639855+417624090+417580184
3952+416865029+416558120+416672576+416785364+416625098+416360592+416452478
3939+416478287+415981629+415354187+415128512+415382567+415900461+416458354
3925+416735715+416800021+416927867+416616417+415894918+416161094+417213007
3912+417746360+417835207+417470635+415539728+412705922+411687397+412413536
3898+414213392+416608771+417778981+416999386+416085735+415901229+415192785
3885+414115797+413733228+414183476+415855019+417311137+416946598+415322200
3871+413512962+412711164+413288690+413601142+414076665+415580563+416669171
3858+416087738+412561448+407010128+408319970+413684580+416870138+417469968
3844+416237654+414038902+411733173+410227572+410889004+412552100+413677302
3831+415194455+417027266+417495410+416424765+413519874+409952181+410709406
3817+413846416+416502728+418580278+419263647+417884423+415460831+414738397
3804+415000433+414410186+414820634+416150877+417632003+419789119+421671012
3790+422235349+421430112+419966047+419258505+419466383+419056035+418419044
3777+419056970+420253023+420836860+420083608+418981712+419465181+421269044
3763+422647166+421830577+419455599+418524285+418406456+416423229+413480508
3750+414953087+419353296+423216178+427841760+432906372+436601443+438028646
3736+436786817+435819043+438456524+442773026+445390874+444466105+440951701
3723+437482573+435103455+433670441+432917190+432304172+431565879+433392212
3709+439344999+445914076+450902495+454670820+460528649+469508197+478813418
3696+486871201+492043859+493273201+492849664+494512493+496270746+494935796
3682+490137660+483168585+475577978+466394859+458465990+455185876+451504628
3669+448311425+448886413+450155020+449885740+448165616+445605831+442231794
3655+439386869+437362139+433668071+429364389+430735934+434999549+437768748
3642+438316391+437149586+435665421+434705026+433798153+431995226+427861861
3628+423839046+423747661+423423990+420214760+414375194+408743040+405672774
3615+403123940+400848862+400206896+400440517+400992534+401701778+401366522
3601+399803359+398424602+397472755+395966887+393975680+392091183+389573168
3588+385888681+383200250+382379320+381859590+380603069+379029523+377742852
3574+376228537+374324508+372111432+368962703+366382551+366790295+368024845
3561+367967116+367020043+366095107+364956249+363448478+362370287+361660041
3547+360836406+360364155+359981787+359286799+358973579+358896083+358422998
3534+358073584+357917859+357467377+357158497+357206844+356828850+355873296
3520+355093534+354628596+354178147+353726698+353256149+353023530+353435681
3507+353848199+353296884+352329143+351994721+352001733+352033018+352249477
3493+352254853+351663871+350714628+349838840+349731095+350605881+351525976
3480+351838395+351900999+351865907+351409315+350870354+350889786+351016997
3466+350911288+351185644+351766475+351909379+351797493+351999295+352092049
3453+351746075+351758195+352208409+352170980+351835523+351845740+352395520
3439+353578518+354476910+354202855+353340556+352908205+353348369+354321051
3426+355218876+355664483+355589992+355313567+355259109+355866518+357170350
3412+358450644+359279587+359969867+360747959+361486219+362158869+363027278
3399+364162630+365228133+366217009+367569455+369060799+370269607+371808630
3385+373902808+375619826+377110903+379279337+381545034+383474405+385775961
3372+388327833+390801140+393517018+396378504+399132010+401852529+404809941
3358+408453960+412629361+416647769+420548814+424340212+427469409+430419776
3345+434081190+438243603+442131227+444993280+447368893+451035516+455760630
3331+459447788+461693551+463893338+466398398+467918022+468265399+468685831
3318+469506260+470174537+470442382+470821578+471549854+472049317+472734622
3304+474145699+474935377+474006201+472232188+470519076+468969803+467848240
3291+466835291+465039942+462649472+460029487+456922393+453780709+451819685
3277+451159522+450154586+448212761+446777844+446411102+446268999+445592442
3264+444097426+441753433+439114583+437352190+436909821+436936366+436438305
3250+435291534+434069704+433591610+433606068+432649713+430925248+429817075
3237+429640281+430202348+430487588+429481918+428276149+428086166+428201157
3223+427554316+426039667+424566254+424216372+424605819+424552965+424256406
3210+424503249+424686487+424161849+423611935+423259517+422327802+421098962
3196+420985840+422072645+422873142+422514780+421857688+421815752+421810243
3183+421327741+420807477+420849380+421611613+422341492+422282260+421900960
3169+422275349+423153574+423610600+424018444+424659342+424925784+424995734
3156+425271959+425392860+425748117+426523938+426503137+425753659+425841839
3142+427200061+428348536+427997686+427225437+427982361+429813302+430172966
3129+428842489+428437650+430250695+432215959+432114156+431096500+431564644
3115+433749539+435024123+434050239+433288807+434585127+436462011+436016438
3102+433342430+432035292+434000356+436459607+435761414+433459825+433097022
3088+434927329+436309591+435346091+433975915+434439385+436324850+437360804
3075+436355968+435296241+435969293+437731286+438266608+436800774+435330532
3061+435192536+436063015+436435801+435729428+435150700+435343253+436010895
3047+436283214+435923283+435509863+435111167+434973906+435242185+435224856
3034+434924023+435084991+435721381+436404415+436712327+436500141+437569651
3020+443629816+454414528+461749110+459674498+452963652+447720911+444835852
3007+443397129+442826649+442598637+442555732+442691758+442774429+442941673
2993+443684540+445164832+446800682+447759041+447962712+448078605+449051855
2980+450628907+451005733+450149411+449615224+449799897+450710910+451645729
2966+451480121+450677755+450463366+451696914+453384617+453456236+452579948
2953+452576709+453759173+455356860+455603803+454295864+453243349+453254334
2939+454285313+455234356+454726079+453799740+454121742+456028175+458084924
2926+457830134+455512852+453479508+452841048+453433632+453934765+453262181
2912+452274440+452188932+453357172+454843273+455170817+454771654+454835360
2899+455447577+456213516+456444266+455951214+455339064+455258964+455998592
2885+456985531+457388100+456979154+456375752+456412346+456934380+457488400
2872+457972304+458081819+457977779+458133739+458290031+458375473+458854903
2858+459615767+460246447+460449051+459881308+458910896+458457309+458609228
2845+458930662+459493230+460090822+460119971+459921441+460215029+460892253
2831+461474788+461720462+461943499+462594013+463286163+463555777+463778380
2818+464265957+464860811+465345516+465494230+465446284+465713828+466381237
2804+467056825+467471915+467577824+467535854+467758958+468417686+469138984
2791+469532170+469651936+469905356+470607990+471432727+471714828+471477200
2777+471240941+471307585+471787983+472346344+472521468+472527845+472786575
2764+473307941+473877654+474471307+475063924+475347495+475416543+475740181
2750+476197774+476446587+476675033+476944214+476994564+476997870+477248486
2737+477667448+478063740+478349448+478636424+479303432+480307734+480696746
2723+480333643+480365062+481013940+481565990+481851531+482148090+482542211
2710+482978703+483484142+484033655+484549879+484969042+485312913+485577352
2696+485664464+485854045+486429935+487073103+487507959+487771864+487712165
2683+487381749+487301049+487547558+487806755+488066253+488322745+488601842
2669+489094928+489592020+489781235+489902302+490128211+490247042+490270147
2656+490446506+490847272+491249840+491353245+491164098+491125167+491637250
2642+492515709+493198076+493451297+493568558+493760277+494025550+494336734
2629+494431291+494366817+494626916+495166412+495567678+495826842+496271381
2615+496886001+497340089+497695713+498084325+498238548+498256177+498628095
2602+499204118+499490727+499665618+500122510+500555830+500565179+500521072
2588+500737632+500983440+501124408+501136160+501319164+502080529+503001959
2575+503461623+503470738+503346865+503239320+503040123+502884831+503163861
2561+503720686+504000685+503977680+504018715+504270166+504521717+504538611
2548+504634805+505091563+505536001+505753963+506005581+506409152+506786078
2534+507070650+507372151+507614821+507762299+508046170+508260493+508088040
2521+508132280+508711142+509308934+509903221+510542216+510817740+510597742
2507+510174205+510021752+510429896+511166419+511854228+512469584+512977160
2494+513099330+512843238+512683038+512886743+513172418+513503434+513988039
2480+514325333+514388271+514291543+514214549+514311410+514554780+515063492
2467+515838780+516511964+516718140+516330430+515790299+515779314+516268660
2453+516707756+516886286+517003948+517175233+517241610+517269089+517553628
2440+517958968+518288882+518646910+518901099+519012851+519263100+519525570
2426+519709842+520220891+520929668+521229700+521222154+521391602+521626259
2413+521821182+522221781+522508958+522392431+522344251+522727922+523418636
2399+524164875+524917258+526201725+529404511+536222468+548081297+565796186
2386+588457825+613710366+639545942+665155477+690605680+716052410+741913763
2372+767990006+792736640+815543386+836755283+855475843+867726924+871002364
2359+868211929+858424807+839171363+815163222+793786718+783114593+788859801
2345+806038400+815631600+809856541+799034167+789298530+783594323+784485670
2332+788743275+788893457+784182500+780608297+779779654+777791685+772412418
2318+763248798+752873967+748876995+752741413+754996826+747539440+731013993
2305+711737511+696935660+687828334+680291683+672016071+662391286+650359970
2291+636958178+624582223+613998578+604700735+596544589+589902691+584749065
2278+580408055+576405941+572779518+569665680+567205661+565304503+563587785
2264+561791669+559921028+558312089+557126754+556097378+555366898+555009037
2251+554296854+553149649+552251123+551662412+551246120+551124886+551271362
2237+551501611+551518673+551117607+550535273+550140684+549995176+550110735
2224+550413538+550695038+551138575+551742912+551867419+551492997+551458607
2210+551933796+552290989+552505813+552993222+553591349+553999627+554352980
2197+554780591+554980756+554854647+555063961+555924424+556834402+557249124
2183+557149392+557017706+557213665+557491193+557657435+557708921+557905414
2170+558514592+559074589+559328477+559536890+559630312+559533652+559417692
2156+559510313+559823266+560132747+560463062+560799087+560864529+560728703
2143+560761491+561143726+561852169+562525153+562743249+562886687+563271526
2129+563414965+563348120+563507785+563896364+564357931+564542704+564478464
2116+564804740+565595787+566329071+566832374+567351703+567779747+567634706
2102+567265293+567452003+567981750+568345754+568631696+568930058+569182010
2089+569459938+569666615+569737866+569997364+570462403+570866741+571364702
2075+572085031+572763091+573224323+573624054+574114001+574574633+574860508
2062+575249020+576154390+577103299+577422296+577695817+578458483+579257010
2048+579899610+580545683+581223342+581852521+582267944+582524770+582809977
2035+583239090+583863728+584526629+584933237+584966359+584952069+585216374
2021+585607691+585871729+585987522+586097237+586106185+585860577+585774368
2008+586082613+586292895+586335299+586629321+587057766+587265110+587144243
1994+586789988+586670322+587063442+587448081+587604340+587970482+588539493
1981+589026836+589344096+589291008+589252277+589793042+590318114+590209534
1967+589983826+590432571+591418542+592225482+592680905+592951288+593178331
1954+593723504+594570443+595162894+595245899+594972244+594703464+595115549
1940+596413371+597932427+599134758+599846406+600148708+600100628+599926740
1927+600044535+600128742+599980162+600082398+600285736+600791309+601951302
1913+602878576+602969126+602806589+603373264+604512089+605354020+605780328
1900+605990144+606023399+605958090+605878625+605792215+605780929+606213314
1886+607051907+607977845+608906053+609609622+609882208+609864645+609862642
1873+609723611+608720946+607252908+607718147+610027182+611897088+612612342
1859+612578286+612215283+612002596+612344898+612906898+612959385+612351976
1846+611364203+611223903+612674445+614001249+614679509+615486917+616144208
1832+615215332+612718852+611427174+612048606+613295944+614880109+616166579
1819+616839897+617149077+617206506+616709547+615781606+615751089+616859062
1805+617930976+618257785+617798422+617557956+618156283+618232143+616922167
1792+616420801+618667933+620969155+621585446+621031392+620365953+620549258
1778+621349454+621146650+619162221+617030013+618201692+621341240+623637654
1765+624571805+624140556+623819556+624790101+625739144+625989894+624876645
1751+621812489+619617844+620830458+622841131+623803797+623991174+624147568
1738+624312775+623077991+620908388+622164207+625557843+628352218+629820657
1724+629865064+628997890+626750891+622048214+618973574+622776156+628121501
1711+631103053+631356808+629256252+626530258+624905226+622686875+619793202
1697+619595407+622899361+627165580+628878024+627956026+625988692+622732885
1684+619922283+622557994+626389491+628053922+627138669+625509697+624116449
1670+622304373+623218491+626235769+627282107+626827418+627358434+627795827
1657+626090661+620972628+615314564+617061198+618691773+618444763+621026183
1643+624559251+626181479+625574871+621837598+618602491+622858426+628524637
1630+631776705+633684073+635316718+636864289+639221938+641708467+642794338
1616+644785378+649866550+654155474+656172357+657485538+659272306+661083380
1603+662616393+664412309+666317941+667162009+667483877+668997792+671222487
1589+673173928+675083766+676682689+677668927+678597402+679028652+677577041
1576+676297850+678679405+680961662+681199190+682189835+684546416+686378793
1562+686782129+683721045+680026442+685265410+691570015+695816802+698805833
1549+701594731+703063304+701392061+696961236+693768934+701160677+711192539
1535+715209143+716832439+720994752+725186715+727555115+729220147+728935140
1522+727755448+731188817+738270245+746459780+753512093+757151671+756444831
1508+751983354+755030682+768037552+776639705+780611769+782059641+784963263
1495+790722362+794401005+794796328+796339558+803228600+812110885+818914385
1481+823240170+826885624+829763337+830189846+828827917+831972139+840850418
1468+848685365+852590250+855976474+860863791+861875405+857735128+862305252
1454+874968685+883166901+887875521+890828826+893881029+898768413+903528185
1441+905877554+905204570+904036696+908869189+916610647+919716405+919372634
1427+920419907+920697301+918788798+915721103+909626647+905005973+905828072
1414+906039222+903834027+901461219+899323602+896285089+893108947+890676907
1400+886824977+881391085+877148372+875273458+876016826+876795919+874194866
1387+869500069+867859143+869224878+870223136+869733389+868618671+868152697
1373+869896995+872237148+872085095+870418394+869228417+868331194+868575600
1360+870206709+870915353+870402568+870319363+870632349+870722766+871213782
1346+872013643+872471203+871982792+870442968+869810718+870928107+872043159
1333+872889364+874181644+875231321+875500835+876962730+880440973+882696253
1319+882210446+882010714+883906663+887161869+891219943+895799415+900357519
1306+903927515+906422860+908818238+911001197+912389302+913707158+916594954
1292+921331354+925645453+928242767+930278347+932355397+934285069+936268697
1279+938535662+940248240+940702594+941390203+943127956+943711458+942509128
1265+942221383+943264182+943871658+944979965+947339150+949215867+949822875
1252+950139334+951487440+953251904+953143991+951861728+952129439+954161681
1238+956572886+957777220+956966807+955558001+954986384+954906919+955158203
1225+956103440+956427578+954715735+952376383+952149072+955001142+959050868
1211+961619535+961691521+959896606+957120395+954604083+954248225+955510255
1198+955431524+954114804+954011165+954746119+955001343+955266183+955423177
1184+955075800+955199071+956450216+957936217+958768867+958947831+958067769
1171+956695089+956347512+957579425+960934196+965619712+968949642+970029770
1157+970435844+970378549+968851012+967549116+968163403+969553178+970532538
1144+971406657+972799637+974214453+975230407+976326027+978205682+981749368
1130+985865538+987596746+986687636+986151813+987870868+990530285+992300893
1117+993483924+994016008+992939687+991216759+990430386+992271310+995909152
1103+997589009+997218994+996166713+996580935+1002263706+1010215914+1012478071
1090+1008839695+1006768255+1008686040+1010502791+1011757675+1015193581
1078+1019880366+1022986458+1023785518+1023100046+1024277869+1029588957
1067+1034387527+1036227116+1038524064+1041230425+1044498520+1049228910
1055+1051761516+1052626954+1055008643+1055044903+1049891945+1044388804
1043+1044349205+1048455359+1052017074+1054430883+1054743402+1053526514
1032+1054190617+1054766841+1052292999+1048929613+1046640210+1045992334
1020+1048327613+1051585557+1052699541+1053286115+1053740069+1051951699
1009+1048619631+1046711930+1047881071+1049706904+1048288682+1045491302
997+1046787856+1050311241+1049820159+1046367291+1044197620+1044463929
986+1047288621+1050131342+1049520261+1046878273+1044657517+1043696722
974+1044904728+1046941912+1047553461+1047444747+1049597923+1054084909
962+1056892972+1056215180+1055122899+1056692640+1059069654+1060119798
951+1061699956+1064884245+1068811100+1069763482+1065290987+1060271517
939+1057399347+1054707743+1054530782+1057990863+1059717464+1059442140
928+1061353114+1063075908+1062593040+1063742081+1067121093+1068548130
916+1067951406+1069352666+1072729675+1073741823+1070958467+1068392605
905+1067777984+1066003971+1062837178+1061534415+1062986493+1064439039
893+1063026159+1061035586+1064202045+1071101371+1071248415+1061869304
881+1054102137+1054908410+1059708248+1063100482+1062549768+1057652300
870+1055250845+1059547181+1062202391+1056882154+1049956652+1045592337
858+1041276035+1038934412+1040502016+1041109358+1036683540+1027111375
847+1016707229+1012882877+1016210203+1018556233+1014976621+1009793479
835+1006700676+1002063975+994022018+988137778+986971040+986125837+982906490
822+979947442+979546042+980159394+980361463+979440133+977300646+975641891
808+972073965+966681542+965106459+964068268+959157512+955475397+953984520
795+949738802+944096965+943343046+947368465+948082051+942950194+939194623
781+938051057+934575418+929735312+926277235+923554714+920622377+918586262
768+918718348+919958207+921207014+920547319+916558894+913033372+911639324
754+907582052+901086797+898140036+899351114+902065623+902862413+899059163
741+895264861+894540057+893136927+890170867+888907569+890425757+891536736
727+890001586+887935020+888021631+890459613+892944340+893858859+893989743
714+892614860+888822094+885320211+884496910+885978771+889235847+892584542
700+891278240+884042622+877810805+878033642+880436232+876981027+870195023
687+871066403+879882579+886844943+888364867+887984502+888348574+888272581
673+886598801+884542653+880287385+874846215+875195996+876264904+872470803
660+867495473+865690675+865710374+867433436+870579795+871873544+874587785
646+881912150+884817175+873752264+853477657+840247150+841008548+842636318
633+835178732+833518574+850008228+869144211+873868391+871253447+863901771
619+851237871+839358540+829459299+826845625+832602052+832926925+826905457
606+828109457+827384653+807296489+789354089
##END=
