##TITLE=Sample description
##JCAMP-DX=4.24
##DATA TYPE=INFRARED SPECTRUM
##DATE=25/8/2023
##SAMPLING PROCEDURE=Instrument type and / or accessory
##ORIGIN=Default
##XUNITS=1/CM
##YUNITS=ABSORBANCE
##RESOLUTION=4
##FIRSTX=4397.6552
##LASTX=599.8556
##DELTAX=-1.9287962
##MAXY=1.9704549
##MINY=0.92280203
##XFACTOR=1
##YFACTOR=1.8351292e-009
##NPOINTS=1970
##FIRSTY=0.98988974
##XYDATA=(X++(Y..Y))
4398+539411482+540732663+542877175+542323719+540087647+540920656+544141712
4384+545020161+542906115+541511724+542727216+544580319+544433575+542535358
4371+542195262+544229505+544669671+541905412+539831738+540250371+540918805
4357+541362382+541766398+541663242+542039781+543214186+544123620+543687644
4344+542917093+543730160+544849382+544612214+543549475+543101968+544380178
4330+545807731+545396017+543782193+542308129+542303387+543781933+544522148
4317+544152268+544260945+545035816+545538214+544687113+543292949+542402548
4303+540685243+539071808+540562404+543949106+545438630+544733007+543529630
4290+542203739+541826843+543033306+544210536+544827750+545592780+546276739
4276+546809863+546803107+545571538+544794458+546056591+548118604+549915063
4263+551364637+551624020+550542053+549218955+547999404+547480441+548635033
4249+549666527+547955036+545292861+545578099+548100416+549349264+549241107
4236+549400777+549659966+549462229+549506791+549864979+548918257+546661105
4222+545566926+547093931+550197832+552683187+552632713+551378148+551771674
4209+552129991+550904722+550079346+549415328+548666864+549560188+551306822
4195+552133109+552375733+552344098+552278099+552812781+552825448+551383345
4182+549274496+547874746+548767941+551425049+553654008+554431835+553785227
4168+552708001+552624333+553761452+555631509+557077705+556263956+554282623
4155+553799063+554224809+554578124+555419416+555822750+554639056+553009674
4141+552246009+551737310+551023728+551319944+553007011+554516542+554738769
4128+554546424+555101893+555483986+555079807+554935597+553907806+551583875
4114+550702828+551722564+553126017+554165306+554485167+554023304+553301992
4101+553587555+554409554+554311919+554015833+554154847+554354208+554892593
4087+556413103+557936471+557507413+556198801+555714203+555651841+556066284
4074+556726144+556660469+556105909+556745437+559196623+560898565+559651860
4060+557285771+556938367+557889570+557563993+557139741+557793300+557915554
4047+557542491+557582896+557414845+557690859+559309523+560383630+560397986
4033+560989443+561843532+561916482+560734022+558955233+558413665+559024545
4020+558905279+557994480+558089321+559030586+558843502+557584195+557475258
4006+559403779+561432533+561709261+560803594+560381291+560708428+560478536
3993+559902409+560387527+561284620+561549135+561295663+560198495+559041564
3979+559764175+561608119+562379059+561975465+561363611+561015947+560595983
3966+560144838+560935332+562576082+562984613+562200356+561371991+560508028
3952+559722731+559787171+561201472+563307852+564217677+563632520+563758347
3939+564657063+564548386+563191769+561913039+562679368+565007261+565959764
3925+565257160+565411959+565786321+564230214+562460389+562816043+564498237
3912+565837574+565995621+565502058+564801404+563115961+560162637+558051839
3898+559136665+562074529+563821423+563516048+564156420+567215173+568520472
3885+565710838+562972336+562286232+563516892+564905404+564551179+563599326
3871+562368796+561780262+563820513+565621779+565907211+565748645+565064295
3858+564393392+562696257+557361254+556349508+562025289+566908109+568265375
3844+567064986+565476984+564047287+562804610+563611668+565886099+567163205
3831+567759210+568642921+569200859+569555733+568064000+563922305+563947509
3817+567196140+569395283+571541679+573764012+574930037+573784734+571389283
3804+568909645+565752477+566139182+569507728+571894474+573202436+574248351
3790+575123877+575483818+575188706+575212352+575643229+574795051+573943625
3777+575814787+578110460+577745712+574598743+572317556+572983003+574248156
3763+574873912+574068803+572641965+573955188+576068844+574360731+568575817
3750+565984383+567191268+565847253+564378322+568353006+572659309+572002177
3736+567274091+565799118+569231325+573449802+576346287+576757871+575470176
3723+575288874+576364540+577525629+578594539+578333531+575296215+572543616
3709+574628170+578186138+580406523+581499468+582429495+584071934+585790181
3696+586734889+586634331+584838393+581380527+579487799+580128561+581024873
3682+581291727+580723591+577982360+571706676+569113163+573016002+574371579
3669+573129162+575490509+578437727+578746415+577511078+575699614+572158925
3655+568744777+567237194+564187470+559677259+560030769+562229133+563260432
3642+563920551+564264837+563522219+561686655+559392866+556681192+551805777
3628+546959270+547258669+548965353+549198103+546961739+543363950+541645768
3615+540810063+540159427+540216234+538597148+535378334+534266615+534721073
3601+534157321+532497050+530856755+529896782+529836532+529346671+526726947
3588+522764930+521894829+523444408+523310364+521167346+519549852+519279295
3574+519159639+519001268+518168550+514748231+511080774+510981710+511791465
3561+512003785+512681379+513869620+514552443+514215693+513297521+512399422
3547+511307873+509936120+509243424+509356258+509521093+509878241+510712388
3534+510644667+508600096+506410340+505640568+505106957+504562336+504754779
3520+505247368+505494442+505586684+505587204+505179940+504708268+504805188
3507+505187735+505270168+504661562+503967988+503940932+504067474+504094172
3493+504580037+505393040+505322071+503918034+502853995+503380168+504753610
3480+505820766+506119126+505604581+504600370+504140781+504663088+505258606
3466+505467548+505442311+504916463+504190182+504230295+504954302+505848504
3453+506801137+506717794+505398464+505082922+506719807+509273857+511181656
3439+510859132+510118430+511134301+511670315+511045826+511648846+512358822
3426+511563554+511157166+511627214+511500575+511493787+512928680+514993032
3412+515887623+515288338+515037009+516402331+518232373+519198290+519504152
3399+519732453+520325275+521468759+522729527+523798795+524687378+526088622
3385+528701070+530979724+531666867+532491367+535068509+538682830+541635894
3372+543386783+544693251+546392887+548894157+551907764+554922280+557746984
3358+560448719+563543136+567286889+571025899+574722037+578783767+582144842
3345+584611034+587870708+591392753+593547529+595636175+599034603+602362549
3331+604545842+605917464+606520549+607119282+608647522+609904361+610250206
3318+611236747+613200152+615153942+616596565+617090713+616445664+615625354
3304+616047007+617277992+617484239+616196544+614258604+611848082+608615757
3291+605779555+605263516+606962924+608341757+607163779+604598199+602769521
3277+601722112+600407914+598779636+598236119+598389164+597047683+594379402
3264+592522661+591814146+591032292+590270836+590011777+589850157+589234470
3250+587991922+587014020+586936913+587527526+588584159+589299624+588608584
3237+586539750+584601680+584411543+585638955+586492784+586819466+587822313
3223+588325165+586737747+584563873+583559468+583681397+583998530+583422468
3210+582408643+582594947+584118575+585180665+584272465+582668027+582643602
3196+583670874+584007624+583857892+584530614+586424837+588100860+588008747
3183+587385849+588300156+589722771+589307939+587413782+586791793+588674713
3169+590595569+590428688+589816378+590904062+593183300+594599225+594244675
3156+593076896+592515905+592855839+593795869+595547765+597604971+598952884
3142+599665166+600438055+601191392+601053158+600225962+599850950+600133784
3129+600567845+600890759+600812288+600468326+600956043+602020017+602309867
3115+602289080+602929257+604160631+605782283+607136366+606794809+605150876
3102+604587221+605432151+605991128+605495876+605089489+606145147+607278238
3088+607095182+607476950+608925289+609545589+609765932+610139774+609247944
3075+607788626+607746207+608695007+609143359+609563128+610820486+611848602
3061+611774223+611057913+610863814+611381867+611420648+611510487+612382765
3047+613212299+613750620+613942510+613821945+614070935+615097817+616151267
3034+616064676+615035131+614280755+614922491+616427411+616926625+616636840
3020+616680298+616630409+616487173+616854650+617754795+619075424+619960499
3007+619563011+619346956+620908520+622783060+623185874+623336580+624704955
2993+626108537+626024090+625221124+625679999+627616965+629174956+629815263
2980+630517217+630888201+630565742+631398719+634198024+636275302+635713401
2966+634432723+634268959+634650272+634939148+635289345+635902044+636567426
2953+637055792+637915143+638836985+638558763+637395141+636978555+638173227
2939+640065761+641461288+642411193+643624833+645106757+645345938+643852517
2926+642270425+641972650+642881111+643361032+642609255+641608227+640593298
2912+639840936+640551269+642042287+642579893+642707409+643093334+642979525
2899+642353769+641744123+641322015+640937909+640680084+641072505+642261461
2885+643937354+645382900+646171315+646653186+646978828+647194040+647353775
2872+647027678+646494619+646920365+648399885+649996462+650837170+650565574
2858+649752604+649029019+648626204+648940674+649847965+650310997+650311387
2845+650606109+650561156+650296381+650751488+651484492+652697873+654538569
2831+655806451+656237783+655923898+655253255+655581755+656442016+656325478
2818+655918506+656336976+657558801+659171749+660098463+660031489+660261706
2804+661191538+661862766+661899078+662034389+663010148+664600684+665811726
2791+665846739+665117697+664735605+664982711+665794447+667282931+668905168
2777+669702612+668973700+667562907+667288648+667987354+668897438+670242946
2764+671380844+671807499+672108327+672565448+672848866+672536151+672049993
2750+672617545+674704178+676710261+676800945+676073202+676412096+677169850
2737+677078192+676569104+676327064+676193312+676386632+676966137+677060653
2723+676773856+677191482+678301642+679510930+680502084+680648828+680336502
2710+680928414+682357395+683510818+683330491+681979395+681436333+682574361
2696+684231675+685287984+685452331+685320658+685645067+686096536+686028134
2683+686132134+687146738+688349790+689251040+689958385+689912199+689004973
2669+688558700+689294888+689944679+689360237+688478930+688983082+690620194
2656+691656365+692017735+692832913+693983543+694565971+694583315+694981713
2642+695930318+696669688+696567767+695468910+694337183+694351539+695399403
2629+696523984+697129083+697413996+697245295+696547954+696668194+698107375
2615+699282364+699382012+699363434+699772874+699959178+699456391+698864544
2602+699305425+700787478+702135131+703200014+704372080+704972372+704830695
2588+704950351+705396363+705532194+705719992+705968138+706056873+706568495
2575+707075310+706880431+706470406+706539003+707409982+708532744+709071129
2561+709477711+710522197+711315874+711102546+710657313+710349145+710480103
2548+711420329+712288384+712257788+711621444+711289890+711681141+711795535
2534+711311002+711519587+712403168+712882310+712830407+712576285+712726991
2521+713300390+713472078+713309224+713520798+714551057+716525505+718462926
2507+718696520+717550178+717156198+718141895+719278753+719494809+719040676
2494+718841770+719034635+719547946+720688377+722044539+722730383+722533685
2480+722110213+722279368+722814830+723011788+723184710+723660734+723802087
2467+723230507+722598060+722754613+723409536+723793187+724330598+725310904
2453+725923863+726003308+725965307+725837336+725640184+725447254+725423998
2440+725915743+726691101+727090018+726971531+726536107+726332004+726822644
2426+727533042+727930335+728026086+728119043+728287288+728405710+728803587
2413+729235309+729262202+729663133+730667019+731385148+731772567+732384226
2399+733000368+733404937+733727072+733457684+732877140+733417539+734762008
2386+735605574+735905103+735129420+732598009+729839044+728472553+727727661
2372+726366562+724511511+722576364+721666669+722447808+722142303+719480453
2359+717718813+718592715+720737487+723308978+726718059+730114537+731570153
2345+729978772+726881432+725280567+725337537+725690528+726972765+729388354
2332+730312794+728860167+728036609+729607398+732409171+734768634+736351895
2318+738482311+741131364+742302456+742150191+742797903+744237148+744742599
2305+744220454+744398248+745919277+747508515+748162203+747925945+747518973
2291+748002273+749192852+749992116+750658406+751637413+751690355+750512247
2278+749721364+749548376+749504594+750211419+751101171+751194518+751349902
2264+752066081+752643962+752873919+752965122+752903606+752876907+753135966
2251+753287907+753517019+754493038+755388246+755357260+754747809+754357792
2237+755076830+756323989+756943574+757399201+758437905+759304207+758838511
2224+757839237+757770770+758601084+759576193+759861171+759653300+759925026
2210+760456850+760791977+761010631+761173290+761538558+761918572+762043099
2197+762401546+762908491+763080699+763388608+764190274+765219040+766307243
2183+766959373+766706940+766047015+765724296+765907677+766298994+766670627
2170+766858231+766397018+765737807+766015315+766839587+767285275+767522183
2156+767922010+768458511+768966430+769668579+770610818+771026170+771086193
2143+771468480+771356165+770622056+770382550+770550146+770844153+771463998
2129+772112490+772553695+772562465+772314774+772602675+773155806+773264613
2116+773381930+773981248+774675211+774915822+774712758+774812666+775288495
2102+775103100+774517425+774748031+775407761+775548464+775319351+775050483
2089+774748876+774710809+775162603+775643500+775675849+775713201+776621337
2075+778060062+778934549+779137158+778957999+778537515+778426045+778865432
2062+779507817+780238873+781040864+781850131+782507068+782517137+781931980
2048+781454592+781456411+781473560+781090039+781400741+782836738+783732011
2035+783319908+782503625+782295754+782895656+783868297+784959488+785640720
2021+785353144+784601171+784295406+784854708+786211195+787823623+788891299
2008+789091505+788777880+788419497+788159789+788199609+788971005+789936045
1994+789817169+788877333+788532202+788861158+788982048+788632110+788618599
1981+789603711+791033083+792349879+793276073+793564494+793555530+793899166
1967+794580592+794618269+794382531+795064412+795790076+795599419+795068569
1954+794790282+795207907+795914473+795818788+795173349+794572927+794248389
1940+794989058+796354055+797275442+797799536+798116864+798354097+799042214
1927+799833552+799735853+799345965+799505571+799256516+798820312+799761772
1913+801091625+800973658+800242083+800656395+801720304+802467340+802856708
1900+802847743+802545161+802657866+803532028+804083405+803634989+803633819
1886+804655894+805692390+806790727+807438504+807116954+807180355+807926871
1873+808490330+808297335+806589222+805184276+806363098+808630124+810066186
1859+810142254+809665060+809805438+810537143+810964837+810648549+809907295
1846+808818377+807481508+807765641+809739244+811593776+812938700+814135256
1832+814024630+811830749+810275875+810983156+812392260+814050159+815523184
1819+816045849+816249367+816654066+816249952+814940041+814378790+815289394
1805+816638280+816829002+815608281+814882552+815297709+815462576+814668510
1792+814376256+816258916+818056284+818477027+818667684+818764279+818911932
1778+819891198+820226520+818419733+815811734+816331541+819318189+821725528
1765+822543694+821216569+819335014+819367234+820832203+822544799+822672769
1751+820606274+818767332+818839177+819231079+818969941+817732980+816979838
1738+819052894+819957067+815501942+814399187+819411406+824327355+826588989
1724+825973757+824133061+822132825+818824366+815762430+817156398+821000059
1711+824345674+825303828+823120990+821091912+822020834+820301743+813496119
1697+811684265+816038053+820742819+822397795+820927044+818447341+815326876
1684+813816824+818536855+822898244+823357573+820561971+817736293+816585143
1670+814893140+814672797+817882257+820695398+821180517+820908011+819893342
1657+816800549+810388515+803459923+806394213+809542287+806999702+805149717
1643+807547117+809111864+807665343+803628883+801710235+806474374+810773921
1630+811883756+812370044+813443566+814414193+817351732+821014740+821808481
1616+822309970+826953998+831548397+833514529+834692572+836490914+837912425
1603+838416577+838927095+840624489+843454390+846905240+850005828+851288520
1589+851816252+853305581+855039029+856437219+857855678+858629931+856543753
1576+853274920+855303284+857967928+856978918+856754028+859102513+860962112
1562+860257300+851572004+839551032+847311692+858628762+864838447+867496594
1549+869723280+871274971+868147880+859475836+851889137+857759797+869387504
1535+875584132+877031822+877730658+877890783+876411068+875262452+873356017
1522+869736662+870842275+876298168+882514998+888350386+891776291+891964934
1508+889185572+888856096+895548041+900655296+901054733+897530089+895783585
1495+899414178+902439542+901073636+898945364+900395653+903193139+905714936
1481+906930785+906969501+906016349+902259020+897150335+898522802+904957962
1468+908271617+906955665+905044098+906102745+907263573+902884841+897240629
1454+900859854+906348098+909603484+911374608+913914984+918105724+922741242
1441+926309604+925803503+920312272+918175620+921612049+924753951+927946066
1427+933037796+936431416+936548733+935642742+931734381+926327922+925762319
1414+926579251+924907450+921657715+918271760+914817273+913882829+914970188
1400+912425200+906550902+902236608+901610333+904050346+904423669+899315699
1387+892904575+891863467+894777036+897341447+898592374+899177335+898121871
1373+896581614+897220362+897995005+898215673+898822396+897691189+895428191
1360+895270924+896588630+898377358+899659595+899093797+897818900+897802725
1346+898386517+897931475+896304301+894887077+895661656+897649745+898807780
1333+900206945+902413039+904325580+906100991+907844312+909101151+910427367
1319+912158735+913615585+913785389+913235896+914523720+918583956+923920129
1306+927903063+928690309+928841859+931475712+936072969+941092399+944927810
1292+947404655+949751841+951608322+953116684+955395078+957223431+957573953
1279+959358199+963317033+964464610+961708698+959755232+960467774+961933848
1265+963137225+964997344+967260472+968767210+969612010+970206975+971277834
1252+972727018+972786521+971407104+971232817+972788340+974120532+975230497
1238+975903284+975750564+977007597+979366411+980408168+980399659+979647167
1225+978276843+978292823+979851270+980691457+981412444+983128093+984364339
1211+985389012+987221458+989456589+990747661+989485690+987641097+987584322
1198+988550272+989779568+990247927+990026349+990612285+991885039+993895539
1184+995727011+994558452+991349512+990409026+992929200+996856983+1000970811
1171+1003884639+1003770895+1002038097+1001477041+1002500545+1003469223
1159+1003618305+1003482215+1003062835+1003492283+1006334137+1009921791
1148+1011702659+1012421503+1012736752+1011820301+1011364610+1011342069
1136+1009097454+1006902598+1008652740+1012799892+1014917771+1013477616
1124+1010576260+1009536061+1011525255+1014545032+1016746254+1016738264
1113+1015040739+1014784733+1016454650+1017190448+1015257704+1013411422
1101+1013029914+1010650508+1009040744+1013583435+1018980540+1019872436
1090+1021454787+1025481049+1027964390+1029311068+1029994963+1027783478
1078+1024369850+1025563873+1030389593+1031402053+1030817352+1032975765
1067+1033869285+1033746706+1037699953+1043872351+1046388172+1044924047
1055+1041254219+1038788741+1042203863+1046131062+1044349999+1042819940
1043+1046080004+1050590800+1052497365+1051607678+1049378328+1046908889
1032+1045898831+1048557369+1053243231+1055083797+1053453765+1049764383
1020+1045866871+1046190045+1048505011+1046261111+1041770648+1040759876
1009+1044294849+1048534178+1048734968+1047119358+1046997429+1045064425
997+1040055519+1036956620+1038959780+1043206710+1044230928+1042297016
986+1043331238+1046639566+1046584480+1045062411+1046057593+1045894869
974+1041243111+1038462904+1042220298+1046535371+1046078445+1044000906
962+1045225785+1049231130+1053014508+1055773668+1056155436+1052643459
951+1047540361+1046797613+1050353892+1051449046+1051431572+1054125577
939+1055270815+1052231550+1049476612+1050446914+1052332627+1053347686
928+1056097297+1058939345+1056835173+1051537846+1049529165+1052721085
916+1058918753+1065455119+1068364336+1065708462+1060672338+1057253318
905+1058788184+1065325850+1071658633+1073741823+1071088937+1065438100
893+1059602713+1056705773+1058122867+1058868474+1056624379+1055944771
881+1057787871+1059825979+1059890289+1057437673+1053120847+1047135857
870+1042331379+1040239874+1038896315+1039164208+1041127353+1040685887
858+1038951465+1041333275+1045628275+1043939779+1036270712+1028887467
847+1022863826+1017166218+1013593959+1012629698+1013903361+1017217796
835+1017288862+1010697020+1003903997+999137975+994049169+993742884+999849478
822+1001669711+992920365+983836607+982061651+981639153+979347248+980583754
808+983967241+980644037+974751680+977724946+981782389+974223493+963983454
795+957435914+948694948+942990454+947752384+955106527+956737014+953309614
781+945534013+937221585+933980360+934209278+932936979+929774485+927451464
768+926196964+924370169+923426241+924782468+924949544+922469711+921027672
754+919927191+914927639+908338006+905114060+905698566+907443252+906150166
741+902059723+900141921+899030202+896565764+895200507+894882270+896660930
727+901109169+906897721+912441959+911961063+907535494+905191816+902227969
714+898035735+893712542+889677641+889642433+892246794+889758061+882692598
700+879538549+880147155+878986132+878433586+880187430+879732128+878006086
687+878143151+878746626+880438629+883288408+884699265+884374402+882548582
673+878661139+872763780+867571623+866582418+866350187+864216004+861715383
660+862581750+870254260+878598778+878811715+870859099+856817688+842857541
646+841238812+852150339+857006266+848612119+842204047+850546357+878351542
633+904278614+901701666+893356824+879612862+845868030+830597518+848287905
619+858816625+851995216+858876258+872051953+862554662+837639465+826121020
606+832604835+835718089+829715431+831904375
##END=
