##TITLE=Sample description
##JCAMP-DX=4.24
##DATA TYPE=INFRARED SPECTRUM
##DATE=25/8/2023
##SAMPLING PROCEDURE=Instrument type and / or accessory
##ORIGIN=Default
##XUNITS=1/CM
##YUNITS=ABSORBANCE
##RESOLUTION=4
##FIRSTX=4397.6552
##LASTX=599.8556
##DELTAX=-1.9287962
##MAXY=1.802214
##MINY=0.093122594
##XFACTOR=1
##YFACTOR=1.6784426e-009
##NPOINTS=1970
##FIRSTY=0.093215495
##XYDATA=(X++(Y..Y))
4398+55536898+55488695+55663320+55789165+55847875+56159305+56656760+56851960
4382+56525459+56155106+56233987+56531101+56679816+56820283+57120053+57463444
4367+57758853+58019844+58380817+58897302+59366276+59559905+59302808+58652204
4351+58032424+57918559+58246147+58280261+57851801+57618209+57574893+57314951
4336+57091998+57194166+57462693+57735469+58029414+58286715+58244873+57768668
4321+57128269+56731508+56685902+56777447+56882163+57116382+57470359+57860901
4305+58281846+58360371+57865416+57491968+57803203+58295891+58356159+58137130
4290+58110932+58388568+58735017+59156477+59836183+60432192+60451497+60030397
4274+59684596+59575299+59488140+59436226+59563398+59755091+59760609+59546450
4259+59474960+59823026+60339892+60587494+60570750+60681774+60956147+61053375
4243+60983496+61044217+61239142+61509964+61833162+61863738+61479859+61113505
4228+61092335+61361223+61784280+62196342+62450536+62662067+62812500+62820876
4212+63050478+63484193+63568632+63339811+63279734+63480647+63781255+64112203
4197+64326087+64317147+64266884+64327867+64509293+64803131+64995756+64927760
4182+64927640+65113256+65018817+64699974+64714072+64961239+64994447+64841155
4166+64804836+64895138+64900505+64943976+65230552+65537752+65624090+65568705
4151+65376311+65059842+64978507+65183028+65194397+64931169+64944846+65395354
4135+65638899+65354293+65073887+65241468+65563658+65704875+65788967+65827192
4120+65827391+65968613+66268879+66724994+67087455+66876132+66226145+65896062
4104+66193137+66646224+66832360+66852446+66982579+67148224+67209647+67302168
4089+67404172+67409916+67361029+67311450+67373077+67569564+67757306+67928158
4074+68171872+68390643+68514841+68655668+68822765+68880764+68799948+68835545
4058+69118188+69303547+69242630+69210608+69217763+69034233+68766390+68804578
4043+69167891+69410131+69397751+69373452+69347621+69164100+68914257+68763837
4027+68643803+68631214+68874084+69063682+69039511+69097800+69365142+69659407
4012+69697764+69380448+69046401+69107468+69416608+69539843+69387523+69244104
3996+69414548+69649694+69532723+69401218+69630238+69903666+69993458+70018463
3981+69924254+69664352+69471367+69535164+69743641+69888370+70033302+70330958
3966+70466640+69981451+69336249+69410477+70130077+70699399+70429442+69331508
3950+68104080+67828978+68438278+68596412+68692507+69764966+70820188+70630190
3935+68912969+66783824+66510635+67856962+68287006+67717791+67887595+68049724
3919+67105726+66966816+69106864+71504626+72506740+71996368+69377602+64556275
3904+60305077+59598777+61921982+65896897+68709464+68151479+66154123+66618334
3888+67543454+66206685+64657319+64117996+64826454+67699897+68975417+66824334
3873+63689390+61758001+62603774+64248698+63764777+64138997+67170295+68793170
3858+66725753+61008132+55481548+59708895+67196010+71184478+71174951+68220750
3842+64089955+60187249+59051277+62084160+65648283+68145438+70094525+70889489
3827+70542001+69224031+65667801+62438600+63820646+66555132+70403021+74811208
3811+76442481+74389371+71015885+69514745+67931869+66369480+68331991+71306954
3796+74445404+77927029+80016166+80453121+79739972+78594483+78289969+78235520
3780+77494654+78376644+81188856+82478674+80926379+78335078+77646183+78657268
3765+80075408+80975661+79644862+77649867+77846195+77449012+73228874+67664358
3750+68287650+71723162+73253683+75854689+79461150+80343301+77140041+72232650
3734+73225252+80540774+86680324+88570355+87637777+87242291+89178647+92520882
3719+95719792+97115196+95419122+91287626+90396074+96046386+101913578+104591857
3703+105193268+106894412+110317597+113192709+114745927+114195555+111231140
3690+110431883+117293363+125798919+131136309+133604234+133776377+132019552
3676+131372872+137298303+143801797+148808368+158317907+169086190+176974461
3663+182822574+187794414+191960739+196532111+202451639+205752077+204751140
3649+206726594+220215283+235563125+246997594+255826254+263569636+270675563
3636+277087178+282683957+286307233+288933905+297496599+310253406+319635856
3622+324619309+327607313+333516596+341904075+349446797+356803082+363948427
3609+370726649+379099746+387530549+393584152+398021219+402514288+407439465
3595+412897214+419570855+425502013+428170339+429748594+435595020+443836652
3582+450228754+454399446+457726696+461363112+465153436+467920770+468141263
3568+465233196+464213153+468931616+475090547+480116329+484499347+488093469
3555+489766291+490650181+492237243+493346705+493415740+494761569+498256399
3541+501609821+503413931+504360109+506093976+508147664+508775940+507843007
3528+506979074+507585156+508552037+508926865+510002023+512823228+515629803
3514+516349948+515372484+513880807+513714399+514890588+515204939+515459701
3501+517961868+520606508+520377314+518593056+517975717+518465710+518051997
3487+516547501+515737794+516169299+517448011+518528921+518945121+519286106
3474+519304465+518529312+517395737+516522536+516085420+516445866+517343393
3460+517537998+517018424+516767000+516890794+516739442+515948522+514921305
3447+514112807+512912186+511556875+511318271+511584752+511326935+510737190
3433+510485695+511086591+511686777+511473351+511039218+510775791+510931191
3420+512178652+513682971+513994872+513770046+513706835+513229307+512744321
3406+512840878+513387405+514686394+516270828+517071443+516891682+515879735
3393+514992542+515604767+517618077+519844885+520978744+520624193+520653348
3379+522487430+524700033+525976117+526420761+526353217+526738273+528332827
3366+530205226+531586780+532983746+534530075+536413412+538689901+541129354
3352+544332986+547852426+550178951+551352548+552613148+554405823+556168810
3339+557563823+559021089+561036423+563282265+565453745+567648344+569273367
3325+569720959+569752564+570384605+571201413+571648970+572186548+573038123
3312+573923754+574891062+575935146+576960481+578121399+578459828+577216237
3298+575810713+575253958+574759916+573905820+573724852+574704624+575480062
3285+574810201+573588877+573133188+572955700+572697103+572559956+572418050
3271+572814469+573156484+572327743+571461005+571359122+571172720+570481268
3258+569518470+568617498+568292458+568848645+569169424+567781691+565256122
3244+563690510+564709061+567177101+567941920+566406742+564732748+563652228
3231+561869887+559062709+557140948+557055187+556834551+555489007+554545598
3217+554605116+554744109+554027835+552963651+552850829+553065747+552361049
3204+550786098+548869131+547401319+546672864+546307056+546094056+545460204
3190+544192928+543249732+542815315+541907525+540113323+538091490+536954258
3177+536769880+536213871+535026247+533973533+532786797+531145261+529339660
3163+527762293+526800596+526380100+526117951+525043965+522655934+520078411
3150+518417450+518166949+518802008+518836490+517564206+515208987+512945709
3136+511560035+510045738+508589041+508045532+506978009+504997299+503566632
3123+502650461+501755029+500570175+498328559+496138897+495687470+495721029
3109+494822117+493760844+492796271+491482402+490022154+488501784+486834573
3096+485322157+484348173+483692943+482768782+481708043+480775536+479777227
3082+478966029+478309840+477256984+476121066+475322368+474601016+473738787
3069+472636925+471128877+468987121+466279553+463353481+460266043+457529392
3055+455902628+454729209+453193747+451927003+451349651+450621657+449122488
3042+447369799+446061861+445026229+443697587+442055838+440349599+438705079
3028+437294725+436211293+435212309+433992653+432727827+431736477+431078123
3015+430852516+431040658+431287146+431347622+431449364+431854377+432604530
3001+433894570+435803404+438103011+440968571+445025412+450309827+455816654
2988+460237527+462724033+462994279+461209239+458027659+454399446+450742682
2974+446754343+442673673+439481298+437494906+436064842+434359527+432460138
2961+431168962+430375307+429669047+429475862+429915073+430528683+431267117
2947+432118372+432437730+431696349+430118663+428287529+426579194+424766562
2934+422554314+420470228+418868430+417037082+414642161+411854550+408354109
2920+404236223+400173807+396394313+392678138+389089449+385989831+383234749
2907+380519227+377949907+375683965+373868243+372490311+371268525+370129162
2893+369242182+368632976+368315997+368394229+368783368+369222508+369539913
2880+369855863+370101463+370084062+370199085+370531263+370692061+370848952
2866+371050731+370761771+369778660+368266884+366066746+362941523+358842103
2853+353948567+348741744+343474446+338404024+333910671+329872580+326003064
2839+322236533+318625543+315320205+312405922+309709044+307198923+305107415
2826+303328377+301704809+300301345+299040496+297919208+296991336+296108173
2812+295154786+294191526+293314774+292534098+291743409+290867899+289985802
2799+289086517+287965371+286491202+284690875+282648551+280526912+278527380
2785+276716843+275029390+273371500+271747062+270174561+268537481+266952302
2772+265652408+264509281+263440728+262493218+261540328+260551003+259590673
2758+258731072+258043846+257427307+256785235+255992663+254958397+253969995
2745+253187722+252478585+251790258+251039413+250293291+249684724+249076974
2731+248395341+247697657+247011354+246419034+245999319+245679073+245259855
2718+244711161+244183473+243684318+243123070+242503441+241897609+241318002
2704+240722912+240115800+239445070+238698468+237968824+237141574+236051307
2691+234853811+233814005+233025624+232439696+231869144+231066149+230001841
2677+228871018+227893519+227140187+226445167+225644569+224773179+223993231
2664+223365701+222713881+221934359+221163379+220489843+219868687+219272301
2650+218724974+218246842+217791278+217354393+217046203+216819034+216534175
2637+216271689+216146794+216084595+215963393+215839119+215797126+215723563
2623+215578000+215525158+215618093+215749895+215862344+215986618+216154553
2610+216321281+216474853+216642167+216673009+216500013+216303437+216100007
2596+215821008+215576189+215415178+215237779+214902156+214276756+213470282
2583+212762974+212168274+211552552+210908402+210214127+209437233+208616980
2569+207808570+207008487+206203185+205511094+205022894+204609891+204099124
2556+203485301+202861375+202281005+201801381+201422132+201027631+200592344
2542+200263522+200140633+200100256+200005066+199913250+199949579+200119468
2529+200224103+200146226+200091857+200173091+200247239+200297258+200434156
2515+200641794+200776473+200788476+200839720+201012609+201169145+201235251
2502+201219324+201109166+200970368+200855398+200664042+200325703+199996046
2488+199795812+199525780+199017854+198420100+197910736+197475413+196951453
2475+196283652+195649393+195152528+194696858+194169595+193572782+193039252
2461+192601479+192111451+191583230+191149541+190696090+190091180+189477109
2448+188988590+188550764+188072810+187588144+187147335+186719097+186287131
2434+185903336+185532397+185132711+184793110+184549463+184387085+184274602
2421+184114212+183879745+183646503+183477538+183303831+183038557+182802581
2407+182741714+182761121+182707445+182613054+182573973+182609823+182598157
2394+182374716+182013720+181725186+181520301+181094584+180172927+178808756
2380+177099250+175097889+172912843+170582874+168180247+165896744+163854918
2367+162078667+160640632+159662599+159236155+159310392+159963722+161607514
2353+164285393+167027283+168323981+167459160+165300695+163780876+163550013
2340+163920029+164447824+164903957+165119993+165243610+165682111+166432725
2326+167163560+167927260+168899256+169952289+170921462+171728842+172274784
2313+172630293+173106241+173792313+174405940+174789025+175134750+175592854
2299+176019955+176300747+176525537+176763147+177007221+177240161+177404971
2286+177477345+177450071+177282562+177066632+176946957+176910646+176866594
2272+176736975+176540275+176374523+176231002+176050566+175889875+175797136
2259+175679538+175514514+175420053+175339743+175171292+175073581+175106661
2245+175085691+174965448+174865783+174843766+174837960+174781816+174699499
2232+174639644+174593869+174535274+174471921+174420500+174393653+174359349
2218+174273001+174201978+174204481+174224226+174249510+174320800+174367960
2205+174314817+174254464+174308247+174458959+174589217+174618745+174580250
2191+174554895+174537529+174437723+174291876+174191573+174084611+173938018
2178+173791301+173637534+173453370+173252000+173080033+172954055+172847129
2164+172748246+172623084+172439239+172286556+172251097+172290782+172372282
2151+172484606+172543236+172486399+172390517+172386185+172485707+172549912
2137+172492915+172432226+172485582+172575125+172604920+172644711+172741783
2124+172788871+172744286+172680418+172621131+172587910+172638674+172742457
2110+172828822+172926924+173078275+173235930+173360133+173509017+173747728
2097+174030189+174254447+174389694+174511481+174724979+175020100+175308812
2083+175632769+176013563+176287679+176413480+176531770+176697060+176857946
2070+176918228+176800470+176717799+176988985+177431144+177723247+177868046
2056+177897965+177872503+177901694+177962685+177980015+177967160+177899865
2043+177755740+177792459+178098110+178347954+178439468+178545595+178682547
2029+178756127+178814331+178901939+178964049+178879922+178523951+178281529
2016+178674734+179339996+179743269+179963637+180171258+180385448+180604520
2002+180801487+181019477+181295493+181337343+180846285+180446492+180938101
1989+181883463+182755226+183545862+184165545+184619227+185013710+185416344
1975+185876507+186356663+186479942+185971252+185698823+186537720+187672644
1962+188268924+188502983+188497887+188370009+188390677+188459108+188288207
1948+187761530+186766630+185438148+185070156+186256768+187350711+187551051
1935+187460265+187513498+187658155+187657481+187147352+185935581+185038640
1921+185047713+185117529+185771516+187208149+187790117+187151312+186680389
1908+187338690+188395932+189053310+189421000+189600548+189317661+188831929
1894+188776513+188519709+187934154+188539631+189946825+190833734+191329622
1881+191693867+192031372+192392599+192509823+191547984+188817902+186467158
1867+188019151+191428380+193470011+194155284+194473843+194899861+195415014
1854+195844939+195902539+195178079+193529032+191602264+191892183+195046064
1840+197538109+198411258+199104769+199536167+198113136+195894655+196112556
1827+197889961+199878076+202388907+204284300+205142374+205704687+205876902
1813+205079553+204385492+205336642+206974290+207542835+206520483+205195180
1800+205542983+206754613+206541435+204891820+205435294+209710213+213220917
1786+214381765+214551600+214592936+215286146+216679099+216587336+213981511
1773+211910298+214586047+219655864+223946800+225969503+226178100+227409208
1759+229641502+231755861+233902483+233994636+231520666+230841306+234638254
1746+239488057+243139867+246046337+249663399+252872749+253214604+254035781
1732+260302420+267832375+274597103+279558698+282674706+284801956+284510989
1719+281571227+283091739+292534844+301805912+307840125+310634448+311844586
1705+314510179+317747974+319830532+323562688+331046319+343497848+355955769
1692+363351756+368391708+371946837+373894628+381978836+397336017+409965780
1678+419366306+427451828+435929116+442882945+449469190+460370342+470020339
1665+474356268+477153503+481808719+485343109+484378926+478405332+474651052
1651+480033054+482326660+483857186+492626950+501507014+505387361+504816330
1638+501247032+502147684+512005390+520355830+524831143+528320469+532315235
1624+537773588+546531278+554537572+559364311+566237421+576409656+584200997
1611+589265559+593318280+596926145+599477744+600718671+600932524+599483497
1597+595564051+590189222+585328357+581134369+576858562+572386516+567343545
1584+561723613+555843202+549050064+540110021+532546737+530846890+528440570
1570+523292094+521165181+522306675+522870035+520855446+513779599+509784086
1557+519874395+528601794+533382544+535471673+536522647+536004209+532135509
1543+526600415+527281178+546747297+566605466+577822709+590288088+606394818
1530+618116791+625156168+630991764+634740326+635898724+637788666+639510068
1516+640857105+641770115+638353091+628915171+615679114+612908193+624918949
1503+632890797+635543179+636319894+640592399+648669078+653735415+655358521
1489+660834239+673885564+687660336+698335632+706255561+711640511+713776621
1476+713283290+714567116+724144526+737247911+745898533+749806402+753725422
1462+758935085+760689939+758552906+763669031+776240874+786146556+792601905
1449+796923558+801628456+807257301+812783304+817660860+819806061+819907909
1435+824177431+830755651+834475946+836156084+837503760+837971096+837872870
1422+836541672+833126637+833332393+839568775+845275533+847467539+847234368
1408+845221129+841394228+837624642+835156922+831124122+824971974+820983209
1395+820998905+823318399+824409750+822525419+820194277+820379933+821314322
1381+821191593+820072898+817231734+813005395+811166306+812915053+814946190
1368+815104573+812510075+808319745+807392246+809967993+811542235+811644438
1354+811046134+810017497+809105126+808173933+807139259+806079159+803613001
1341+799844268+799008531+802181375+805858843+808050210+807887850+806396919
1327+805511040+804823814+803901003+803850079+805184615+807193451+808628272
1314+809694268+811344363+812780037+813544323+814776869+817076761+819863235
1300+822708447+825417790+826707723+826054802+824955851+824019687+822090327
1287+818647167+815472973+814006688+812626270+810235540+808254545+807295938
1273+806956231+806878886+806619792+805485258+802709934+799053845+796121061
1260+794862023+794910035+794878713+794847037+795678086+797135138+798468254
1246+799391207+800526522+802327258+804553924+806929526+809100580+810982284
1233+813650504+817783305+821361837+823093254+825095413+828382463+831270928
1219+832865482+834107049+835895001+838357678+841171000+843650439+845757927
1205+847613635+848776081+849653793+850879805+852517683+854735187+856900133
1192+857786509+857911582+859274528+862202624+865121558+867313351+869173463
1178+871555529+874870278+877733103+879788247+882582747+885939543+888789300
1165+891451199+894770565+898961250+903145117+905895867+907453844+910065388
1151+913801379+916363632+917748666+919679447+922418478+925375267+928141571
1138+930614689+934663895+940774566+945307302+947495401+949472561+951789071
1124+955790762+961043679+963757568+963757710+964087970+964862058+965486783
1111+966554483+968044348+969608149+970355319+971005257+974149550+978630083
1097+980159366+980335434+984369086+989440892+990876353+991601932+993815671
1084+996147594+998562331+1002059114+1006245751+1008048902+1006478496+1005689990
1070+1008110550+1012629153+1018167727+1021135738+1019058151+1017917084
1059+1022041575+1026308327+1026368555+1024693744+1025393470+1027954871
1047+1028348342+1027657565+1028818874+1030784812+1033358215+1036457124
1036+1037186751+1034484794+1033036052+1035948168+1038792598+1039201339
1024+1039434866+1039336640+1038899346+1038785069+1040258102+1044828267
1013+1048551332+1048099479+1045799091+1042949050+1040068113+1038304523
1001+1038090031+1037960341+1036511741+1036901306+1039759373+1040220956
989+1038579171+1038099193+1037239237+1034998438+1034003537+1035417052
978+1037691090+1039049491+1039990129+1041536032+1041728507+1040527495
966+1040121594+1039894531+1040756973+1043507509+1044212420+1042990528
955+1045039918+1049236285+1049989634+1048204736+1049600424+1055236514
943+1060379130+1061477726+1060278064+1059802773+1059760869+1058921155
932+1058070077+1058121712+1059030247+1059686081+1059878697+1060691777
920+1060947178+1060703141+1062077450+1063550625+1064165975+1065496037
908+1066026939+1064258164+1061764094+1061887320+1066428649+1069711012
897+1067744506+1065235095+1063840757+1061400878+1059096157+1060494828
885+1065677715+1070799096+1073741823+1073283791+1067732717+1059464771
874+1054261002+1053138259+1053429456+1054638352+1053553748+1047630012
862+1040330262+1033197773+1025999729+1021350514+1020005253+1017882140
851+1013593229+1010426138+1008088817+1003722561+997235536+988731507+979550622
837+973724188+972816150+973174749+968147190+958127941+950940550+948886188
824+949548556+949354732+945527404+941551921+940337202+938691226+934773059
810+931578482+931180891+931832747+930165109+926872590+926545384+927682971
797+925331872+919728382+914358134+911860513+910186838+907019179+904276455
783+902377848+899942941+896889843+893396752+890215599+888305202+886059502
770+881482873+876656241+874138947+872767620+871127397+868955704+865105152
756+859682772+854483266+850518578+848571817+849227366+850851324+851078529
743+850104864+847910230+844196399+842154750+842944037+843646249+843465848
729+843532540+843940997+844393063+844760966+844945983+845250391+845609274
716+844666079+841400194+837614201+835412465+833089562+830536969+831324622
702+833680977+832281596+828488786+827526059+828666203+827559724+823662438
689+819337873+817334648+817978975+819797396+822991050+826644867+827935369
675+825756715+821364251+815312886+807743601+806596993+814284888+819668417
662+820381638+818500006+813584807+807924498+804341776+801076175+797074910
648+794099370+793650500+793190692+788461149+781893867+779777786+783178048
635+787991682+789075079+784714291+778913356+775313020+774118826+774896820
621+773739346+766681006+758146863+754995184+758369736+763524497+766532140
608+768524711+767875128+765698605+767056295+766057488
##END=
