##TITLE=Sample description
##JCAMP-DX=4.24
##DATA TYPE=INFRARED SPECTRUM
##DATE=25/8/2023
##SAMPLING PROCEDURE=Instrument type and / or accessory
##ORIGIN=Default
##XUNITS=1/CM
##YUNITS=ABSORBANCE
##RESOLUTION=4
##FIRSTX=4397.6552
##LASTX=599.8556
##DELTAX=-1.9287962
##MAXY=1.9584757
##MINY=1.0949295
##XFACTOR=1
##YFACTOR=1.8239726e-009
##NPOINTS=1970
##FIRSTY=1.1599346
##XYDATA=(X++(Y..Y))
4398+635938618+635996001+634364691+631961190+629777222+629600889+632333071
4384+636655257+639813893+639581418+636844138+634643308+634385998+635906789
4371+638400222+639343257+637605220+635730129+635381580+636107957+637551170
4357+639066667+639843957+639736575+639614227+640155383+639589130+636913809
4344+634720756+634047187+634035488+635776990+638232908+639015361+639406327
4330+639052876+636363765+634306851+635642681+638292383+638495643+636583364
4317+635918161+636874268+638120625+639524884+640035518+639154833+638935168
4303+639777489+640230543+639841800+637672015+634388024+633381461+635425631
4290+638505969+641526245+643471921+642876846+641013258+640767320+641787346
4276+642718094+643427413+642379480+640044080+639273456+639411228+639279599
4263+639904151+640933849+642207918+643648581+642966712+640435960+639097254
4249+639408810+639951077+641253968+644575800+647149165+645642491+642239812
4236+640287469+640226818+641067177+641201551+639968004+639629978+641610947
4222+642817371+641276189+640154794+641846036+644756708+646363313+645105714
4209+641875055+640297861+642644502+646572586+647849595+646708070+646118878
4195+645926205+645286557+645225906+645811635+645361129+644602792+645413219
4182+646292139+646844536+648141152+648773089+647767441+645371521+642437843
4168+640836663+641770810+644260257+646811204+649503191+650982023+649176799
4155+645577265+642456274+640677323+640486154+641349389+643063571+645175123
4141+645784250+645340280+647140864+650840198+653174356+653355003+651712910
4128+649325943+648380293+648885503+648946219+647787767+646558664+646824144
4114+649025628+651159467+650878040+649295618+647847046+647055377+647972531
4101+649568548+650097482+649732725+650148591+651653043+651462723+648607082
4087+645912350+645412369+646574808+648973996+652125181+653278339+651396974
4074+649304049+648956415+649807036+650696348+650650075+649712203+648609304
4060+647622284+647459675+648776945+651674480+654753576+654980561+652719799
4047+650818696+650234209+650696936+651246849+651597816+652700453+654697958
4033+656459262+657491052+658011098+656966432+654258171+652774568+654070596
4020+656150124+657449485+658271480+658398599+657331189+654933569+652250536
4006+651547361+652800384+654691291+657254656+658784336+657899206+656692848
3993+655346037+653091353+651800749+652406412+653894851+655285909+656426061
3979+657201325+657539547+658053449+659003477+659735867+659051188+658003843
3966+658662445+659717829+659599468+659036156+658769500+659167785+659660576
3952+658436179+655527207+654350389+656713697+659501694+659198372+657753003
3939+659058769+661300513+660505250+657635883+657165640+659234776+659981021
3925+658473302+657288250+657044076+655748113+653844723+654328822+656911009
3912+658925311+659814557+660344602+660196895+658982433+658145798+658509640
3898+659694627+662377073+664999716+663756104+661644879+664178441+667023625
3885+665925759+663734732+660962748+658716364+659178830+660043372+660124676
3871+659658550+658118675+656206658+653296835+651957083+655461000+659262552
3858+660565378+659467773+654396597+653307881+658871522+664020669+666612660
3844+666223394+663271221+660106507+657558305+654901937+654523324+658261676
3831+663363309+666238034+667466614+668615720+665882689+657556082+655967190
3817+660702627+663428862+665290816+667122379+666633313+663801201+662799932
3804+664775346+666539984+667703141+668687482+669288766+670762565+672165256
3790+672327080+672185321+671873503+671455218+671692137+671349732+670374737
3777+671037391+672974833+673842904+671608742+668350959+667956399+669903121
3763+672235580+672298062+669467387+668680032+670289512+668236585+660133238
3750+656284890+659980499+661964866+662896268+668271877+673357628+674117207
3736+670795440+667082773+667372174+671070789+674419025+675246836+674420594
3723+673080972+671847883+672330348+674397065+675864460+673707419+668410826
3709+667316882+670532247+674174198+676032296+675303958+675126318+677637855
3696+680852175+681580252+677242250+669604310+668298543+673542066+678148097
3682+679695423+678906237+676763314+671524170+666375349+665456692+663652056
3669+662875485+667134601+671963565+673145480+671071508+668683691+665882166
3655+663419647+663097633+661529524+655176697+651922771+655636680+660037882
3642+661585731+660647728+659294643+657717122+654939125+651505271+646373639
3628+641616829+642994554+645451910+644887095+641579118+639516257+640308971
3615+638190099+632848802+629899374+630132110+632002430+633353619+632104125
3601+628682558+625374124+624327955+625564770+627988860+630788424+630642744
3588+623701836+616402053+615679728+618379100+619479254+617500049+614910803
3574+613593664+612893495+610499666+605752334+603483206+606686677+610441433
3561+611495772+610738807+609994000+608907636+607365866+607172802+607852841
3547+607497233+606682036+606522434+606512173+605778280+604488592+604116514
3534+604395262+603439612+602053130+602780030+605041315+605874224+604768254
3520+604292325+605422085+605712858+604314611+603720386+603895673+602434161
3507+600552469+600718149+602328740+603493401+603777835+603170211+601644715
3493+600328164+600677301+602420632+603360008+603529936+605191113+606766412
3480+605446463+603575163+603730516+604149716+603377262+603042765+603212040
3466+601953918+600299276+601232704+604469834+607231296+608458111+608232368
3453+606420608+604078803+602401679+601465637+602130186+604685185+606945948
3439+607608732+607716375+607904603+608084335+608519155+609064885+609365135
3426+609394023+609289321+610111642+611894057+612490831+612109343+613313806
3412+615697570+616953208+617270908+617266268+616956345+617538610+619274098
3399+621108799+622935983+624917540+625565097+624621604+625472029+628868891
3385+630929269+631038546+632946446+636735515+639032289+639526453+640585366
3372+643884127+648210169+650653735+652042701+654710179+657795093+660382967
3358+662941887+665714329+669227069+673312663+676018506+677065132+679274197
3345+683706705+688528545+693316007+698655931+702667410+703059356+701891493
3331+703812595+708903444+711984828+711351781+711770653+715575996+719104422
3318+719506629+717626505+716022450+716822745+718111911+717696829+717670752
3304+719756227+723036558+725631032+725780896+723052897+718839726+715309601
3291+713499933+713573198+714996411+716304400+716197998+714111478+711607261
3277+709860073+707054038+703263531+700961398+701382035+703922656+705862320
3264+705709384+704772623+702957203+700171036+698993958+699380021+698609986
3250+698715080+701431707+701251844+695946821+691366409+690128483+690615719
3237+692045599+693063599+693085755+694613343+698241372+699810005+698096018
3223+697184420+697160826+695045614+691513070+688987939+688635600+689251785
3210+690040055+691886585+693841346+694660661+694025980+691622347+689993521
3196+691878677+694690464+695172733+693445741+690506312+688817292+689768367
3183+691189488+691839071+692508653+693310321+693850039+694602559+695506968
3169+695786435+696073156+696819728+697131677+696634310+696288311+697162002
3156+698441103+698210132+696740189+696395953+697875112+700046531+701952013
3142+702694272+702255008+701768164+702077825+702975634+704085591+705067187
3129+704313556+701977633+701581897+704373292+707709568+709879288+711421778
3115+711802090+709462442+706193679+706361777+709992552+712022016+710137448
3102+707665975+708036615+710511878+712485920+713738812+714656424+714244022
3088+713482875+714303170+715264309+714749819+714736029+715138366+713432746
3075+711857709+713427125+716700855+718797310+717352921+713120993+710086993
3061+710139082+711747190+713129228+714348527+715568938+715982124+716269499
3047+717363770+717574154+716165059+715460315+716611773+717848457+716902938
3034+714919094+715444563+718039365+719862367+720837884+721182316+721235843
3020+722527688+723545296+722005813+719990793+719409378+719977983+721435508
3007+722891530+724252393+724925831+723854631+723445104+725293660+727816634
2993+729769761+730832465+731721516+732344041+731347021+730508295+732882909
2980+736300424+736833018+736395322+737860298+739116982+738214206+737119739
2966+737896963+739789309+740630453+740386344+740673784+740683392+739874077
2953+739957211+740964884+742103206+742331955+741209319+740833582+741748187
2939+742714228+743319826+743593737+744462853+745834042+746771261+747103144
2926+745669931+743238979+742590900+743276233+743966925+744116527+742476133
2912+740636988+741337549+743305055+743861896+743199765+742750828+742315093
2899+742340125+744469781+747378427+747927556+746563687+746212001+746580941
2885+745801952+745421575+746683879+747538878+747482214+748267412+749029147
2872+748043565+747637698+749920355+752141707+751490425+749350834+748946471
2858+751910278+755953782+757187590+755668368+753412181+751044102+749995123
2845+750962275+751522907+749959308+747929582+747606327+748930328+750263871
2831+751107368+751856816+751636955+750612354+750612354+752301831+755458899
2818+759099216+760846272+759801345+758675833+759135162+759263981+758375714
2804+758245850+759722852+761411414+761767871+761420041+761633889+762709141
2791+764535476+766377104+766567228+765179700+764449662+764850889+765849543
2777+767124526+767059039+765333288+763967655+764430709+765995158+766826303
2764+767221255+768383105+769185362+769025172+769480056+770803077+771409459
2750+771054505+771224237+772003357+771930027+771291882+771856631+773610877
2737+775070559+775984772+776660236+776288028+774710442+773284288+772959072
2723+773899101+775799028+778236384+780849028+781958201+781099084+780639821
2710+780830598+780295455+779772730+779658813+778978513+778258932+778860609
2696+780531590+782518506+784256544+784773125+784165436+783643496+783619575
2683+783698853+783782510+784012958+784675155+785964582+786496392+785539239
2669+785500809+786659261+786200717+785040566+785717991+787124930+788216979
2656+789143152+788911789+788299459+788819243+789388960+789246089+789376019
2642+790615056+792341329+793026728+792353878+790901516+789706006+789984754
2629+791442671+792910131+793297567+792181139+791305291+792469167+794491115
2615+795085014+794346807+794200342+794862081+795281281+795874265+796606328
2602+796212487+794846853+794096033+794793653+796266210+797837653+798920487
2588+798845065+798507627+799086559+799812217+799938225+800553234+801736914
2575+802229640+802521001+803078888+802598710+801458951+802015923+804406484
2561+806576923+806684762+804741046+803542792+804372890+805627221+806696787
2548+807462705+807314999+806395034+805808586+806411308+807252060+807293562
2534+807179514+807236309+807007298+806536990+806305103+806925929+807843802
2521+808029350+808259995+809174208+809644843+808940295+808368618+809174600
2507+810500366+811187267+811065246+810896298+811394449+812068279+812591331
2494+813036150+813353785+813785925+813929057+813610050+814058921+814698504
2480+813251044+811166288+811652740+814030295+816287985+818396400+819875690
2467+819996861+819672626+818906119+817118280+816067340+816795743+817676755
2453+818244968+819283686+819871441+819129379+818380780+818585936+818445091
2440+817754726+818028898+818562276+818290391+817941581+817542839+817600157
2426+819378389+821409487+820855390+818239021+816876851+817868578+818940040
2413+819000037+819446425+820294954+820617949+820904343+821712285+823112427
2399+824754063+825773501+825745071+824582763+823522411+824569364+826170610
2386+825625925+824146440+822971844+821240147+819029709+816613790+813319669
2372+809555566+807155920+806055244+804472037+802447082+799287989+795302718
2359+795355592+799509418+802422900+804680460+809963458+815521283+815972311
2345+811762343+808994150+809395833+811105637+812830341+812346504+810920023
2332+811540130+812708712+812192849+812380685+814894314+816980834+817019852
2318+817062334+819297411+822824791+825232934+826558961+828266346+830512729
2305+832050578+832176783+831996267+832158287+832355469+833360005+835361758
2291+836289761+835663837+835932585+837746437+839064098+838881883+838267724
2278+838432423+838898091+837926953+836345837+837065744+839430358+840911020
2264+841268850+840701617+839661984+839012401+838412228+838014531+839100110
2251+841138528+841817456+840756451+840252876+841503481+843315045+844922434
2237+845931872+845680705+844901127+844262590+843149823+842020062+842633699
2224+844629635+845575415+845107198+844721657+845061644+845717501+846444989
2210+847498282+848382365+848442559+847922579+847074965+845976968+845515810
2197+846488125+847503510+847255089+847066207+848023425+848983715+848757972
2183+848230018+848524190+849216908+849839106+850073803+849726496+849350759
2170+849030314+849032732+850271573+851890726+852272803+851635311+850644827
2156+849593560+849119657+849197759+849474349+850161251+851246699+852454299
2143+853524323+854661142+855639340+855254845+854244296+854187108+854645064
2129+855140601+855674567+855369742+854277562+854148482+855195631+855811098
2116+855394839+855025703+856011351+857222089+856617341+855298438+855545291
2102+857037390+857880168+857904285+858010490+857962256+857393520+856795700
2089+857042749+857980622+858280283+857778211+857790368+858361195+858286558
2075+857963302+858074409+858529163+859668204+860225568+859490694+859783951
2062+861155270+860935083+859144629+858431977+859426906+860402554+860693523
2048+860449677+860097795+860695157+862001251+862771417+862992716+863180551
2035+863211400+863564131+864466972+865062636+865345631+865560917+865776922
2021+866103184+865840318+864706506+863560929+863276234+863524460+863816671
2008+864697682+865793130+866027304+865895741+866169913+866347488+866595191
1994+867565219+868325451+868589362+869192476+869722194+869533901+868748049
1981+868302641+868941701+870140152+871050770+871347295+871446049+871798257
1967+871977270+871243573+869930683+869633897+870748429+871716823+871856491
1954+871666694+872055502+873527864+874445083+873391464+871993805+872559797
1940+874068300+874294109+874151434+874468939+874238359+873947652+874790429
1927+875975351+875857316+874849185+874622070+874308683+873510217+874496781
1913+876492847+876676892+875414196+875270934+876553302+877997756+879913173
1900+882491439+883116709+880278910+877691363+878132261+878652372+877529735
1886+876872310+877370003+878983993+881029142+881995249+882262886+882718293
1873+882674830+881211619+878691194+878062787+880556546+883227097+883972493
1859+883547150+883339445+883512249+883660021+884037784+884548680+884060463
1846+881799243+879259146+879891539+882200862+882739403+882308766+883306309
1832+883951644+882057730+880728762+881793492+883427220+885889085+888347356
1819+889015174+889060531+889653842+888671331+885611580+883990662+885241006
1805+887491507+888616627+887582092+886283645+886891073+888064099+887054923
1792+884855923+886518734+890041604+891169012+890352638+890079577+890763995
1778+891056598+889913505+887354650+883902038+882887241+885667591+889342416
1765+891707488+891616707+890830136+892649347+895026575+895588580+894919847
1751+891484163+886015682+884768736+886636050+887442293+887151520+887945999
1738+890178266+889948928+885196890+883689693+887168709+891369854+894650119
1724+895787918+895051345+892731827+888044884+884812199+887451574+891632197
1711+894113800+893715776+890751969+888451078+889055041+888067171+882874888
1697+880143425+882043025+886126266+888761719+889493521+889566263+884549856
1684+874144572+875336029+883140891+887587778+887391249+886273188+885788240
1670+882908808+881447623+884594168+886101822+883860013+882769010+883413625
1657+882388763+875783136+864444097+865794895+869797747+868034351+868349567
1643+872607377+875049570+874693636+870626865+864870159+866532840+871122009
1630+872820963+873302513+874720040+874920686+875034211+877671364+880708632
1616+883017432+886237830+889861546+892233415+893046979+893912239+896529654
1603+900122064+902570401+904447518+907281788+910014166+910949489+910862041
1589+911825076+914103681+915315725+914566931+914801758+916526267+916215364
1576+913908525+914446478+915478987+913970941+913015553+914261256+915915114
1562+917730273+915263897+905921187+908059209+916357515+922318788+924360539
1549+924524912+923913236+919894045+910305266+898227170+900654135+914077734
1535+922196571+923752654+924229498+925145672+923425739+920073908+917628708
1522+916869914+918197836+919549157+922659625+927511398+929664190+926874102
1508+919542490+918464427+930069796+939298458+941643597+937122464+932699432
1495+934959999+937595975+934522369+929511647+931879203+938755081+943428822
1481+943845211+942198542+939513287+935786372+933247124+933552733+935809051
1468+937530291+936586799+934045590+933095496+931335890+924517134+921820311
1454+928512013+931806853+930493701+929434134+931574835+935908589+939159967
1441+940102806+939531195+936497194+934752425+937830149+942153969+947031427
1427+952942441+956271724+953801427+948206807+943051777+941475433+943843446
1414+945013989+943805866+943355426+943596397+941567652+937557415+933986311
1400+929860457+924458771+920520622+920255077+922174937+922107358+918374169
1387+913712193+913030650+915624341+916761813+915195077+912781967+910638782
1373+911509141+914877638+915808386+914702024+914559676+915038873+915639177
1360+916354770+916871352+917247938+917941768+919365961+919697844+917763343
1346+916766258+918722522+920135801+917362117+913284497+913431223+917289179
1333+920400758+920430430+920542190+923390642+925845972+925363964+923344696
1319+921412353+921872988+926298700+932339316+936359552+937159325+936273804
1306+936408113+939348587+944723216+950079153+953810054+957031498+959730479
1292+961256433+962808595+964475590+966490806+969719701+972780040+974776368
1279+976166380+976643747+976578455+977610115+979615462+980503663+980141912
1265+979550105+978254534+976633616+976575906+977455938+977556130+978242051
1252+981299384+985940446+989280709+989661087+988217744+986184097+985608302
1238+988105330+991801854+993056838+990355177+987281179+987654105+990294722
1225+992388955+993736877+995517069+996849828+996812902+996716958+997050932
1211+996890480+996571408+997035703+998134942+999836314+1001074959+1000454133
1198+1000221528+1002421508+1005095849+1006259987+1005918955+1004354440
1186+1002950965+1002748554+1002148120+1001289983+1002526079+1005714845
1175+1008545977+1009720050+1010234932+1010235520+1009412807+1010947584
1163+1015831055+1018943941+1017440274+1014870570+1015777985+1020420747
1151+1024214914+1024226417+1022130485+1020073048+1019919917+1021809582
1140+1022416422+1020422250+1019295431+1021124445+1023537816+1023164236
1128+1020476039+1019342227+1020043768+1020322712+1021078499+1021811674
1117+1019979522+1016644749+1014871419+1016461815+1020392709+1023982505
1105+1026415875+1027856996+1027861571+1025444082+1021009875+1018433046
1094+1019526991+1021781871+1024499478+1029343605+1036509079+1042637993
1082+1043423453+1041444248+1042987979+1047701523+1050223647+1048683968
1070+1046686594+1047830145+1051915150+1056441185+1059046313+1058546267
1059+1056036298+1054122189+1053190526+1052396112+1052074295+1051801625
1047+1054207284+1061284396+1065157253+1062474808+1061606606+1064223564
1036+1065365807+1064044289+1061544190+1060022876+1061103031+1062181355
1024+1062510231+1064320423+1065332213+1063719204+1060813107+1057416310
1013+1056731043+1060507629+1064051413+1063365361+1061245117+1059695895
1001+1056485235+1053844880+1054526291+1053529859+1049115782+1048146865
989+1052416308+1054976405+1052678128+1049508054+1047666622+1046952205
978+1047675380+1049064084+1049631383+1049042582+1047254416+1044617524
966+1044311327+1047442970+1050212537+1051201126+1051242170+1050801860
955+1051533074+1052834788+1053076543+1053843377+1055948459+1056902409
943+1055665006+1054194409+1055285347+1060367177+1066031141+1066007547
932+1060580110+1057701593+1060188295+1061412561+1059207418+1058589141
920+1058828543+1055917479+1053549205+1057246709+1064964188+1071286362
908+1073741823+1071095651+1063022826+1055908395+1055618275+1057647020
897+1058586004+1060265285+1061156754+1060152675+1057920997+1056589676
885+1057994197+1059036117+1057594473+1054920132+1054829744+1059545117
874+1061440011+1054618968+1044748238+1040592516+1044807059+1046536927
862+1040369388+1036853249+1039322173+1043006671+1043349665+1039454194
851+1037920724+1039849800+1038351949+1031246538+1023232011+1019971091
839+1019630386+1017020421+1014373465+1014062496+1012642943+1006975450
827+1001539712+1002770776+1004761549+998449505+989535601+988267154+992813841
814+993572047+990920188+989899378+988499432+986423434+985657843+982520382
800+974751205+968199106+965000014+961576682+960605870+964277035+966430874
787+963721893+959986744+957032544+953162171+947970215+942243965+937885833
773+937886944+941552946+942229326+936838619+934082712+938798870+940802060
760+932580287+921511564+917881705+921722079+922681519+917829550+914318640
746+913218029+912400805+912243230+909150474+902277602+901010854+906756841
733+908746829+906597566+906158302+904787897+902840783+903823882+903718265
719+899686003+895333034+892009829+890828764+894216410+898258019+896475343
706+890809679+886676898+884643120+884545020+885552824+885203099+883731718
692+881472328+879919578+880729285+879810758+876538924+876693755+881559318
679+886780358+887729864+884472212+880534848+875367727+868823993+869294367
665+873804912+871167759+865575949+863346101+863534721+868952616+881103323
652+887837768+882732998+873278985+865590850+862646389+859779964+854187696
638+856066709+865872604+867940041+857252741+845375423+843241257+855326280
625+869960289+863575373+844386180+836182118+832347168+821249362+815239333
611+823033215+837014896+847188621+854110445+867073081+880751441+888182265
##END=
