##TITLE=Sample description
##JCAMP-DX=4.24
##DATA TYPE=INFRARED SPECTRUM
##DATE=25/8/2023
##SAMPLING PROCEDURE=Instrument type and / or accessory
##ORIGIN=Default
##XUNITS=1/CM
##YUNITS=ABSORBANCE
##RESOLUTION=4
##FIRSTX=4397.6552
##LASTX=599.8556
##DELTAX=-1.9287962
##MAXY=1.7991719
##MINY=0.090193868
##XFACTOR=1
##YFACTOR=1.6756094e-009
##NPOINTS=1970
##FIRSTY=0.090193868
##XYDATA=(X++(Y..Y))
4398+53827501+54031532+54260669+54491233+54538917+54674628+54972801+54840135
4382+54271185+54002399+54348909+55010062+55474512+55546376+55512307+55642807
4367+55826812+55988144+56357522+56808908+57021228+57140803+57230373+57055110
4351+56791713+56748040+56687181+56364010+55970255+55770501+55696085+55449216
4336+55140598+55130700+55362171+55644034+56034494+56386669+56290558+55798278
4321+55437277+55513303+55819857+56002968+56000051+55939566+55873913+55884247
4305+56116451+56469294+56729058+56936424+57137855+57192920+57097761+57048276
4290+57156766+57406769+57663772+57794721+57972763+58400538+58870078+59126107
4274+59200137+59116774+58900403+58671738+58565089+58662632+58831305+59039098
4259+59263410+59305607+59364479+59555887+59553846+59428651+59537985+59807812
4243+59902237+59785997+59782436+60086700+60404602+60492420+60528752+60619287
4228+60738711+60960515+61373203+61809004+61973479+61995280+62057709+62046246
4212+62077474+62315574+62600185+62931684+63396947+63751119+63895346+63997739
4197+64051400+63962328+63730990+63509332+63574278+63966458+64366678+64433860
4182+64142224+63956552+64194541+64448480+64424491+64268646+64093214+64061684
4166+64107479+64012733+64062178+64374304+64597215+64829309+65204832+65354106
4151+65168002+64972864+64990667+65103350+65078308+64908856+64856508+65050130
4135+65205290+65170426+65196015+65333234+65301272+65170723+65372016+65873153
4120+66259891+66354806+66330421+66426817+66569803+66568326+66421530+66341653
4104+66560616+66909181+67093817+67169416+67280525+67351011+67303598+67374310
4089+67702808+67945733+67835038+67631024+67711835+67984529+68097977+68037127
4074+68034396+68247392+68644015+69014265+69162804+69130972+69119713+69153605
4058+69179670+69303914+69507474+69575114+69501698+69396334+69238626+69246012
4043+69563740+69813668+69821174+69779715+69729976+69656636+69634426+69599081
4027+69471987+69444739+69586408+69696739+69767318+69835492+69838689+69862615
4012+69856306+69607889+69377134+69596755+70012915+70205853+70305303+70401690
3996+70381498+70362245+70320115+70117132+70041858+70269705+70511354+70698044
3981+70895637+70861155+70603294+70556499+70802052+70969084+71008943+71186318
3966+71207056+70694411+70361698+70828949+71556697+71916560+71522921+70292720
3950+68849638+68415545+68929297+69106543+69511151+70909141+72023765+71815082
3935+70114500+68022707+67877293+69355106+69667370+68659942+68469521+68724358
3919+68047994+67930993+70029794+72606829+73828453+73333670+70381623+64966727
3904+60356455+59815984+62539611+66801189+69650473+69027129+66985990+67469292
3888+68500909+67337231+65844611+65028151+65428562+68325441+69663244+67437006
3873+64134344+61895732+62629670+64514813+64291021+64881390+67955351+69328236
3858+66928399+61024549+55747953+60575858+68424033+72555850+72449259+69169781
3842+64662338+60414744+59271956+62706087+66503919+69132764+71261659+72017913
3827+71566208+70233501+66373446+62746586+64326202+67507776+71589828+75987482
3811+77617289+75585074+72091698+70344250+68542764+67070482+69425694+72779161
3796+76383113+80197579+82325749+82854499+82317576+81107295+80643695+80624531
3780+79953929+80749495+83436980+84814511+83542300+81121639+80309977+81124298
3765+82476058+83364111+81964925+79732751+79658735+79317761+75306938+69686934
3750+69983284+73114876+74788441+78200046+82241452+82902352+79299254+74215800
3734+75522112+83336240+89752267+91839983+91356259+91457852+93434450+96489269
3719+99536715+101092267+99649834+95563056+94634647+100563828+106873122
3705+109776137+110207029+111794123+115564115+118671883+119985616+119019287
3692+115905864+115578309+123097074+131820670+137186738+139633562+139607461
3678+137450966+136607494+143011284+150028095+155457935+165778789+177485580
3665+186180175+192641761+197889064+202027963+206618680+212961491+216815406
3651+216116649+218365115+232857150+249519145+261984026+271695018+280283751
3638+287934275+294719032+301136829+306055536+310033722+319408879+332175712
3624+341923983+348107237+351850755+357213648+365456481+373837332+382425958
3611+390884605+398432184+406832600+415455482+422390584+428140642+433972587
3597+439924054+446016386+453207427+459361618+461453710+462410594+468950634
3584+478221246+485228701+489784041+493326328+497467433+501565959+503680745
3570+503297102+501027222+501937223+508381432+514644971+518282662+521574452
3557+526006785+529557147+530884513+531216079+531731125+532478384+534559448
3543+538605790+542827430+545729102+547333894+548498198+549479272+549994175
3530+549661969+550061051+552855652+555810006+557864854+560027911+562118864
3516+563620711+564199786+563462487+562143338+562438727+563684527+563552484
3503+562679762+562842184+563513533+563811554+564470951+565612774+566517403
3489+566117646+564621456+564076921+564054973+563824325+564546434+565863734
3476+566943733+567336056+566533944+565858540+566148238+566004634+565235676
3462+564689078+564692422+565295793+565809095+565473830+564938473+565342498
3449+565910120+565658946+565258940+564687193+563758730+564117153+566354982
3435+568308414+568424770+567578194+567465466+567844521+567395176+566727491
3422+566951701+567853378+568378740+568746127+569528531+569609670+568531165
3408+567544827+568146633+569326660+568692733+567485209+568012954+569405096
3395+569950449+569485204+568635818+568928788+571273547+573679774+574439412
3381+575118445+577348413+579766236+580543483+580137678+580128465+582276511
3368+586091493+588485554+589163804+590409782+592512936+594522643+596093001
3354+597551698+599521529+602410467+605477335+607262904+608730316+611459750
3341+614016517+615273558+616376145+618311115+620973318+623542535+624980637
3327+624794809+623575973+622602654+623700972+627401092+630513849+630781990
3314+630405070+630463621+630260648+631034195+633345729+635463895+636372331
3300+635906267+634260283+632898164+632017759+631071759+630734110+630412896
3287+629952524+630238664+629670937+627381243+626476649+628695057+631202023
3273+631272029+629671150+629028223+630067066+630468459+629109754+627637005
3260+627619148+628560737+628514992+627528298+626960925+626373206+625712778
3246+625324475+624897754+625168528+625382101+624179984+622779446+621941941
3233+621101590+620298020+619958664+619398406+617765940+615436904+612968426
3219+611808568+612309705+612287722+611882629+612479241+612362352+610619755
3206+609559000+610193390+610339234+608741699+607551250+607697521+607427317
3192+606284533+604862724+603630939+602744416+601240364+598778645+596224937
3179+594128328+593090766+593551529+594720956+594510157+591413052+587561680
3165+585927613+585844730+585167975+583582178+582007445+580783664+579740055
3152+578604564+577433963+576580771+575399890+573740175+572426077+571291404
3138+570077512+569107822+568038957+566047498+563386470+560965160+559498815
3125+559365811+559411414+557842622+554697637+552044932+551450881+551441348
3111+549949284+547770575+546020934+544311917+542811209+541478898+540289266
3098+540221288+540402954+539506577+538303250+537088185+535409866+533597583
3084+531939576+530168557+528546833+527842260+527880891+527641777+526618871
3071+525218653+523552856+521175727+518554290+516559594+514771998+512322409
3057+509606707+507436215+505711083+504070613+502327589+500692846+499559916
3044+498320483+496263039+493882139+491881254+490282581+488539699+486434944
3030+484531242+482908558+481270080+480047508+479427596+478622888+477249919
3017+475936426+475033575+474384281+474059580+473905198+473484596+473230612
3003+474031941+475445427+476676962+478237502+480792420+484450814+488882826
2990+493129011+496194101+497577066+497241445+495369970+492264826+488537885
2976+484883724+481595314+478502691+475439913+472875960+471117854+469552974
2963+467813364+465862067+463829096+462650314+462781538+463374558+463705590
2949+463818922+463474657+462343186+460939909+459828180+458832877+457421668
2936+455505836+453337443+451078519+449104064+447320275+445056869+442183903
2922+438732359+434589120+430302739+426146054+421547992+417267694+414551849
2909+412487824+409937175+407306702+405092741+403426659+402389453+401503535
2895+400233048+399022607+398366412+397970816+397714592+397685529+397639499
2882+397352683+396876446+396650636+396840127+396843400+396483376+396314765
2868+396507672+396550394+395924826+394476017+392218445+389524904+386707750
2855+383162617+378432299+373076270+367635830+362500703+357962188+353686479
2841+349608479+346036204+342820574+339927830+337367896+334763249+332220568
2828+330179274+328427712+326670637+325097185+323753206+322588902+321709528
2814+320970913+320187442+319338269+318262218+316912370+315542176+314330632
2801+313279908+312250599+311026320+309483211+307540913+305269788+303002256
2787+301007133+299179021+297245118+295237866+293389478+291725850+290059324
2774+288306179+286707542+285482391+284469783+283339503+282064819+280940604
2760+279998322+279035265+278145238+277427788+276568993+275412461+274352596
2747+273632673+272999333+272185003+271154965+270020203+269012219+268322942
2733+267760923+267043580+266371715+265991060+265663976+265136142+264487702
2720+263789461+262988505+262182624+261581209+261139246+260524563+259621001
2706+258689906+257893806+257130949+256290313+255410566+254539410+253591151
2693+252534309+251399779+250292585+249415648+248618641+247587909+246432711
2679+245419463+244571944+243740344+242784295+241723149+240797692+240035351
2666+239156066+238274736+237612796+236932714+236120430+235389533+234775882
2652+234126944+233471780+232949353+232535207+232116401+231649911+231169672
2639+230799511+230680024+230665031+230532116+230365000+230233526+230131043
2625+230100184+230132857+230263406+230447402+230515647+230454730+230391678
2612+230381594+230428869+230529555+230596911+230623554+230659606+230588676
2598+230348565+230018084+229651142+229248859+228739932+228130674+227457315
2585+226635248+225746982+224949744+224167233+223343031+222557212+221839549
2571+221129302+220373843+219582564+218799057+218067200+217350532+216676409
2558+216157255+215652115+214986672+214330850+213878144+213574164+213327757
2544+213112601+212876029+212610307+212389850+212248772+212172417+212166992
2531+212217238+212261222+212316252+212439189+212546616+212585869+212679139
2517+212872010+213065112+213199200+213313617+213413966+213409679+213337237
2504+213371689+213526462+213623378+213531282+213263728+212882913+212442052
2490+211982196+211541140+211065010+210473840+209867908+209299771+208745311
2477+208259097+207760165+207167590+206581329+206089103+205673961+205254781
2463+204776463+204236677+203667064+203144851+202710553+202275473+201771419
2450+201292923+200890640+200440477+199889842+199354734+198885398+198485231
2436+198218424+198028168+197736318+197296845+196879924+196615251+196411477
2423+196150326+195885884+195773424+195775772+195680457+195475438+195332830
2409+195261704+195131849+194969961+194901787+194921298+194905789+194800478
2396+194664843+194533333+194413011+194248331+193955699+193531148+192856473
2382+191741560+190172020+188290835+186321075+184438289+182675718+180969262
2369+179276715+177729799+176548900+175748727+175200706+175098295+175859729
2355+177459594+179614452+181779537+182836361+182142904+180386203+179147909
2342+178977839+179257701+179623416+179999998+180289056+180488597+180805204
2328+181401372+182106141+182703073+183328036+184169952+185064586+185720123
2315+186053308+186233657+186538526+187084520+187710603+188185720+188464177
2301+188653117+188838304+189047343+189276622+189506416+189682835+189758194
2288+189800703+189895377+189946014+189802713+189561659+189422591+189347428
2274+189204357+189010846+188817442+188626065+188468623+188339479+188177538
2261+187997936+187826372+187629891+187438460+187303803+187187465+187092630
2247+187075680+187064991+186968360+186815116+186658795+186529580+186411499
2234+186281146+186221545+186279990+186349746+186352663+186284169+186142860
2220+186002600+185947552+185917405+185846332+185802561+185840872+185926850
2207+186007544+186051280+186050249+186038954+186046691+186037496+186027376
2193+186024139+185940616+185827106+185778906+185681261+185441133+185187220
2180+185041696+184932294+184736008+184485778+184273200+184086163+183906436
2166+183733165+183591162+183521601+183460542+183388491+183311869+183184397
2153+183116970+183156259+183153698+183121506+183164779+183221338+183175522
2139+183022189+182895037+182897616+182957412+182977333+182937421+182922587
2126+183013065+183064946+182969240+182855303+182806498+182807014+182880452
2112+182988004+183032611+183069339+183187812+183312971+183411008+183549365
2099+183693520+183855052+184119938+184350942+184461856+184640818+184908835
2085+185141084+185371661+185583936+185696379+185793384+185948708+186110525
2072+186279492+186404047+186300639+186112980+186219322+186481558+186604744
2058+186650489+186672188+186679694+186717453+186775738+186791318+186682860
2045+186456533+186244240+186286677+186575005+186761242+186753683+186773248
2031+186914024+187104920+187253326+187272820+187233709+187146646+186783493
2018+186458756+186796779+187451320+187779720+187876600+188036389+188281551
2004+188530305+188681415+188747863+188947101+189084320+188595900+188032298
1991+188464959+189480698+190346838+191023897+191557867+192033001+192468028
1977+192809482+193118656+193489386+193632332+193169879+192827268+193531023
1964+194558981+195043275+195172312+195130853+194988334+194944509+194898461
1950+194607038+194004628+192938484+191490209+191035369+192245472+193465322
1937+193844287+193820294+193737163+193755464+193851793+193484051+192152594
1923+190979058+190888047+191000259+191669758+193127851+193784793+193234069
1910+192794098+193441489+194482661+195113280+195497101+195702582+195343484
1896+194723092+194608799+194365327+193815350+194535699+196053482+196940005
1883+197458288+197933369+198371508+198801964+198934487+197841771+194859528
1869+192326789+193995824+197730680+199991151+200701967+201004417+201465144
1856+202059053+202549199+202557700+201693249+199921252+197934756+198284499
1842+201629202+204250888+205120355+205771268+206164995+204635314+202303681
1828+202614384+204570466+206691211+209363836+211388394+212331370+213014315
1815+213233634+212305545+211511295+212615376+214510933+215200405+214123270
1801+212740714+213178160+214518581+214324998+212579751+213138764+217706412
1788+221481784+222747059+223023524+223189290+223968724+225468774+225419791
1774+222737170+220642465+223524911+228991977+233733625+236035021+236315310
1761+237610662+239974772+242336356+244821517+245060667+242551317+241980067
1747+246089674+251305922+255348244+258683129+262750369+266355352+267053167
1734+268425033+275462351+283774423+291406432+297236030+301122849+303757483
1720+303581616+300682540+302684634+313106175+323489618+330439056+333793381
1707+335278473+338251894+342000143+344526141+348609441+356810441+370622484
1693+384263106+392066660+397330166+401386361+403720377+411816297+427661595
1680+440970153+450662363+458866102+467260114+473420282+478788191+489371762
1666+499727068+504634535+507539409+512081943+515487456+514223800+507796701
1653+504574561+511341976+513886435+514427591+522282867+531393939+535934943
1639+535878419+532130455+532027688+541310999+549393864+553001603+555337505
1626+558610833+563428516+571293076+578248454+581372593+586026467+594772784
1612+601302686+604520237+606750597+609188554+610834396+610915997+609939619
1599+607780475+604092876+600058025+596897886+593920481+590159106+585708774
1585+580758764+575412873+569532657+562430368+553088043+545100333+543358163
1572+541231317+536277892+534308310+535650652+536262881+534271920+527221779
1558+522643388+531977140+540446530+544839128+545806115+545170089+542817185
1545+537044076+530078560+530194774+549338941+568739581+579134088+590189840
1531+605100487+616523413+623224593+627386793+628670299+628490162+630150446
1518+630451171+629251899+628373842+624203390+614239767+600464185+598257445
1504+611894581+620615891+622709654+622096465+625035631+632330934+637091524
1491+638558794+644577634+658988104+673131641+683294041+691428414+697613944
1477+700142681+699827585+701334269+711556643+725473232+734876598+740934780
1464+748255908+754891565+755905863+752626915+757725865+770988286+780845194
1450+786397046+789918239+794743712+800951155+806371319+810133975+811458175
1437+812756764+819666182+828217316+832900502+835030193+836635055+836286806
1423+835134063+833920775+830684869+831119771+837619757+843163001+846043188
1410+847442303+846500074+842867683+839270223+836814053+832838962+828197752
1396+825442777+824105131+824985892+825862242+823281428+820065299+821003686
1383+823079308+822701605+821093683+818752340+815074488+813004558+813523410
1369+814415127+815657938+815835869+813002210+809850253+808939612+809098974
1356+809984786+811409442+812074708+811412714+810035583+808734220+808148706
1342+806682503+802430662+798965103+800335974+803943678+805802667+805287158
1329+803950295+802748106+802189982+801979895+801190696+800482886+801280266
1315+802872394+803934501+804942324+806748880+809548532+813183982+816874996
1302+819355426+820716408+822095816+822495786+820936669+818674864+816021056
1288+812621519+809400126+806739773+803934358+801300329+800056521+800114503
1275+799520879+797357537+795653856+795699601+795831715+794351781+791518904
1261+788767559+787040044+786608912+787339773+788330238+789177988+790372848
1248+791802128+792869286+793586771+794832144+797143892+799927893+803189696
1234+807080623+810112774+811787642+813580752+816445216+820487182+824884654
1221+828162393+830041871+831569970+833543215+836067754+838840585+841369536
1207+843766229+845845621+846667617+847021345+848413985+849905160+850464066
1194+851578961+853961782+856442781+858803262+861539241+864631864+867304382
1180+869015534+871034098+873790566+876120598+878809835+882797661+886658210
1167+889461847+891954656+895266686+899632499+904002936+907889311+911210092
1153+913587577+915706525+918600656+922411049+926469805+929904416+932539513
1140+934875592+937485931+940227388+942140445+943041696+944981219+949862611
1126+955534767+959107042+961711333+965088887+969326356+973329122+974829546
1113+974019644+973503496+973700209+973650123+973968421+975251429+976598893
1099+978342558+981118377+982741026+982960504+984594892+987395042+990321402
1086+993647590+995704287+996660745+1000107593+1006619958+1012364680+1014687029
1072+1014437456+1014393205+1017651664+1022600856+1024576876+1024727915
1061+1026868704+1031267456+1034889887+1033639534+1029732243+1030060359
1049+1034961671+1038775124+1038450992+1036407883+1035213165+1034784239
1038+1036814044+1041275972+1042723749+1039894430+1037581686+1038714509
1026+1042226311+1044315948+1043741035+1043295461+1042831532+1041349677
1015+1041315243+1042802719+1043387806+1043950696+1045726090+1046450975
1003+1045102941+1043333950+1042116394+1041342562+1039490404+1036635971
991+1035444952+1036440396+1037388459+1036810344+1036660800+1038762175
980+1042432557+1046847459+1049873349+1049987820+1048298723+1045598814
968+1042483567+1040866041+1042694295+1046096252+1047530440+1047399678
957+1047657717+1049532286+1054803902+1063465380+1068681362+1064170060
945+1056947395+1054435804+1054801127+1057414098+1061538805+1062638190
934+1061125815+1061342377+1063054240+1063656401+1063911523+1064536379
922+1063702360+1061860944+1061711186+1064136409+1066753862+1066303308
910+1063218440+1060360520+1058472505+1058649226+1064160099+1071794830
899+1073272985+1069254354+1065427740+1064271368+1065591656+1067138963
887+1067959679+1067692676+1065272291+1062028488+1061689701+1066265388
876+1072462443+1073741823+1066270795+1055886355+1052063726+1052746707
864+1048458298+1040213225+1036205195+1036764741+1036414073+1032252443
853+1025601632+1019474582+1015791395+1013777810+1007537357+994858387+984049290
839+980789408+980641642+976111060+966944959+960167370+959000255+959029922
826+957213406+955375192+953819703+951763575+948767210+944392575+940569376
812+939276764+939178798+937808853+934746964+931088748+928920782+928408048
799+925588831+920137932+918145549+921357267+921438371+913981500+906949999
785+904072230+901849554+900094151+899000172+896871691+894406913+892683524
772+890979274+888775380+886331020+883713282+880670673+877145852+872773565
758+867694322+863193762+860090112+857734611+854639640+851531010+849631043
745+847961012+846381904+844883045+843759186+843416913+842102317+840951637
731+842989837+846780025+849113827+848026038+843169830+838459468+837937272
718+840030964+842539923+844660507+844597189+842102317+837463383+832358741
704+829970443+829115578+827916876+828013347+828469948+825478919+820029870
691+817199341+818018562+819469327+820465128+820909777+819286488+816732708
677+816212362+815866603+812321008+805815544+799779629+802720502+810920185
664+812967492+810145002+806614276+803831342+802465878+803316972+806405468
650+808177804+804891243+800681733+800350132+800200658+796215821+790642768
637+787859834+789605633+792174353+791397604+787031862+782640082+783134105
623+787181976+789956941+790171156+788723948+786276955+782873790+779945651
609+775700854+768588676+764480261+768010063+778622376+788687095
##END=
