##TITLE=Sample description
##JCAMP-DX=4.24
##DATA TYPE=INFRARED SPECTRUM
##DATE=25/8/2023
##SAMPLING PROCEDURE=Instrument type and / or accessory
##ORIGIN=Default
##XUNITS=1/CM
##YUNITS=ABSORBANCE
##RESOLUTION=4
##FIRSTX=4397.6552
##LASTX=599.8556
##DELTAX=-1.9287962
##MAXY=1.8751084
##MINY=0.66562748
##XFACTOR=1
##YFACTOR=1.7463307e-009
##NPOINTS=1970
##FIRSTY=0.7589165
##XYDATA=(X++(Y..Y))
4398+434577756+436594441+437957170+438003316+437048013+436122131+436333780
4384+437203003+437579882+436997089+435693715+434660695+435045492+436663864
4371+437426052+436759125+436595056+436582666+435252396+434223643+434935521
4357+436267463+436737076+435887069+435092764+435804710+437184777+437618894
4344+437042586+436468394+436074484+435971168+436673216+437596470+437710127
4330+437025964+436775064+437522507+438371900+438847043+438983500+438675396
4317+437923039+437158564+437375230+438647784+439447686+439171291+438595358
4303+437736374+437091326+438060486+440041128+440634605+439383144+438497265
4290+438781681+438641094+437698830+437352601+437981471+438675089+439347613
4276+439930270+439561651+438831684+438905134+439377171+439784461+440448828
4263+441116915+440941309+439690292+438327393+438460642+440127447+441230333
4249+441277366+441833810+442544937+442100615+441082783+440403296+439973924
4236+439328466+438027378+436798615+437250071+439110093+440471525+440766761
4222+440842669+440766420+440245575+440295168+441261768+441863743+441758277
4209+441438227+441128963+441395836+442287006+442899289+442975299+442649925
4195+441925248+441501132+441496387+441414370+441804764+442698050+443227223
4182+443216881+442491248+441145346+440028670+439610595+439911498+440316637
4168+440251002+440050446+439777737+439559398+439856580+440586548+441520586
4155+442089044+442053684+442148774+442300181+442129797+442177206+442250315
4141+441695373+441289517+442010098+442996973+443014311+442713000+442802902
4128+442490327+442023649+442727505+444119655+444827472+444582750+443612736
4114+442576474+442474660+443371735+444005964+443267634+442104199+442275640
4101+443608060+444558824+444653026+444264270+443105783+441661720+441388771
4087+442144986+442752217+442866454+442768224+442977757+443521537+443713868
4074+443262105+442549954+442213487+442520772+443059433+443537511+444010025
4060+444292736+444284169+444293862+444203755+443816705+443398323+442620743
4047+441778415+442235707+443785339+445309236+446356659+446265016+445020553
4033+444051290+444123205+444193106+443302926+442166693+442026447+443000898
4020+444412434+445631879+446134020+445509519+444242528+443739159+444364377
4006+445244659+445687787+445244966+444326696+444070540+444703609+445251451
3993+444739413+443768785+443534200+443883569+444648453+445842402+446424171
3979+446143645+445766937+445677479+446180780+446802312+446767191+446615306
3966+447006315+447295579+446869517+446508987+446904126+447432787+447211138
3952+446120197+444800269+444500766+445306812+445473681+445190834+446126340
3939+447424629+447717306+446859619+445531875+445365075+446473866+446553529
3925+445106632+444763236+445565596+444935668+443642089+444491278+447028432
3912+448975968+449273081+448003463+445243942+442169833+441233269+442782184
3898+445438286+447101610+446319524+444362602+444743508+446348467+445862266
3885+444279766+443488669+443268624+444768288+446283413+445382584+443337535
3871+442063514+442124131+442821094+442532923+442502307+444447316+446452841
3858+446375056+443280672+439457994+441993579+446892931+449656240+449901201
3844+448224566+445872608+443134283+440962914+441658716+443703014+445498289
3831+447177894+447968785+447866255+447371214+444602648+441009776+442288644
3817+445375860+448531680+452297086+454100553+452362447+448502190+446427174
3804+445725604+445158989+447135127+449859697+451694599+453317579+454625868
3790+455275900+454869669+453795043+453566636+453811221+453001591+452543958
3777+453853544+455153710+454875574+452987461+451476909+451433358+451908295
3763+452490406+452536142+452491532+453758727+454692288+452525595+448263817
3750+449335371+454582283+458328677+461747616+466931316+471336412+472317655
3736+470487463+471917430+478189682+483186650+483585168+480667175+477577707
3723+475157623+472728664+470743994+469134905+467360450+466030692+468489584
3709+475209127+482048847+487825989+492664314+497573599+504078695+511656027
3696+518535067+522533009+521666517+516872494+515121794+517355453+517737246
3682+513979622+507312436+498889840+488033542+480904900+479593607+477149426
3669+476223374+478787868+480107899+479229255+477400531+474719410+471272006
3655+469310750+468468422+464527479+457849200+458593980+464513826+468529517
3642+470091505+470486644+470254209+469300681+467479227+464629463+460017156
3628+456542788+456934036+456253149+451942768+444819314+438642664+435244785
3615+431935237+429274527+429076565+430215597+431934725+433590472+433574055
3601+431829157+429899336+428480905+427538470+426626821+424639284+420414640
3588+414995741+412902908+413752233+414146348+413000899+411129204+409458542
3574+407831193+405880005+403108812+399205481+396836253+397745102+398644327
3561+398307417+397785207+397173402+395935185+394323741+393004393+391869901
3547+390626393+389966326+390318255+390860875+390820566+390028411+388894602
3534+387972577+386978365+385678096+385092778+385669529+386158768+385897493
3520+385600550+385827660+386389530+386464585+385428494+383872547+383095888
3507+383242278+383186166+382793211+382672011+382461250+382189974+382410496
3493+382693616+382313871+381487823+381157739+381697458+382263663+382252810
3480+382232945+382512856+382553131+382150381+382143111+383085615+383856847
3466+383478125+382897210+382997829+383196849+382942843+382604124+382710170
3453+383107049+383182787+382796898+382763039+383649397+384479505+384922428
3439+385816158+386928635+387578189+387720892+387669081+387602969+387628943
3426+388042273+388492978+388829513+389668394+390834935+392012706+393313009
3412+394173324+394178614+394131752+394745809+395691794+396444356+396996260
3399+397794456+399279102+401147863+402470316+403230285+404440242+406433821
3385+408725537+410754748+412401518+414175871+416470147+419204649+421874302
3372+424073659+426529581+429896128+433472241+436823019+440411829+444278127
3358+448214702+452475729+457142647+461655973+465411071+468361250+471097936
3345+474417143+478530450+482986811+487391224+491319948+494412079+497270068
3331+500189290+502131398+503086223+504584214+507299091+510333847+512044647
3318+511715041+510779432+511173273+513141117+515076331+515541542+515579803
3304+516582992+517365726+516930449+516032794+514773176+512788369+510204591
3291+507632520+505692596+504273414+503136055+501468943+498571736+495649204
3277+493550399+491925200+491183082+491143045+490155011+487934527+485679229
3264+483659608+482233224+482080589+482051134+480797113+479062558+477756862
3250+476748929+476079169+475617509+474951879+474362806+474285191+474610838
3237+475016797+475189843+474372294+472716514+471544306+470749762+470172533
3223+470363839+470347524+469377920+468408760+467985395+467854160+468367939
3210+469281533+468984864+467538957+466893055+467305703+467225460+466633418
3196+466666150+467150883+467438440+467415299+467545647+467897507+467754053
3183+467356320+467285907+467371338+467580768+467999901+468594162+469304265
3169+470135534+470924378+470847207+469941088+469842858+471157837+472597088
3156+472768939+471760870+471214188+471898009+472742624+472925534+472871299
3142+473447130+474623194+475245238+474862898+474350279+474523087+475370227
3129+476048349+476236344+476803676+477699692+478288765+479019518+479842186
3115+479972363+479725969+479993866+480895616+482027242+482693588+482384153
3102+481666746+481439022+482024955+483116305+484003413+484278137+484198815
3088+484414252+484741265+484508353+484214413+484778775+486033581+486422712
3075+485411059+484724131+485381194+486612585+487036224+486585792+486441621
3061+486263831+485644552+485552260+486247755+486870857+486910347+487022093
3047+487799606+488518822+488134707+487373134+487809674+488851637+488949047
3034+488376118+488344274+488910650+489381116+489624302+489878649+490458200
3020+491416506+492664860+493928574+494247600+493432133+492858180+493356567
3007+493973013+493984686+494126741+494916472+495928638+496813459+497759000
2993+498696247+499418023+500114303+500638185+500955743+501737113+503400300
2980+505293054+506304401+506527040+506834461+507117785+506919755+506628683
2966+506596292+506598238+506713090+507126079+507570947+507997555+508382318
2953+508476009+508726226+509281611+509465613+509483839+509937001+510705606
2939+511285293+511313178+511136446+511369734+512203460+513319556+513987507
2926+513735481+512960187+512474054+512450879+512312408+511590359+510489759
2912+509733237+509905532+510774346+511506669+511793133+512061167+512677340
2899+513604450+514406674+514615592+514270831+514109560+514877516+516014909
2885+516403358+516157578+515961699+516057676+516612038+517603861+518464654
2872+518703607+518406289+517942990+517926402+518849655+520106406+520493661
2858+520149821+519982305+519745399+519085025+518544862+518635003+519119464
2845+519435315+519835779+520708176+521798537+522797391+523229733+522985796
2831+522826676+523341889+524357331+525283963+525685211+525618075+525462607
2818+525925496+527235355+528099561+527902419+527928768+528708124+529627418
2804+530279873+530580160+530863894+531343440+531750764+532230992+533133971
2791+534056303+534608446+534828388+534815931+535129427+535837960+536330032
2777+536788621+537418515+537764778+537657912+537447936+537745562+538517989
2764+539112796+539518174+539918705+540288962+540794755+541369732+541906209
2750+542368279+542528321+542536171+542826561+543407067+543807803+543838214
2737+544050750+544608764+545073565+545504030+545956987+546279016+546783341
2723+547770796+549029321+549879499+549875813+549497843+549387257+549646553
2710+550267027+551156729+551851848+552271357+552757387+553240107+553543433
2696+553642960+553646339+553630434+553596234+553979324+554881246+555594181
2683+555902388+556327255+556828644+556911311+556868885+557228835+557998633
2669+558925778+559467203+559211457+558630234+558749319+559661479+560518859
2656+560999906+561252478+561503788+562025349+562814056+563596211+564022170
2642+564257335+564607113+564727768+564522672+564484104+564948256+565712253
2629+566143502+566263918+566720698+567309293+567399332+567191574+567240587
2615+567773719+568741104+569731835+570276230+570326881+570300702+570865132
2602+571910781+572643547+573109304+573682233+574021771+573995422+574268268
2588+575001341+575353236+575281423+575647653+576253621+576406052+576445576
2575+576880819+577518256+577961691+578039988+577962783+578155147+578837365
2561+579784442+580380717+580295730+580213200+580722850+581105530+580955694
2548+580793502+580607964+580465021+580844903+581620368+582534201+583441959
2534+583863208+583842388+584031271+584671370+585668484+586519037+586678840
2521+586602318+586833865+587232246+587650151+587845109+587680801+587722646
2507+588116317+588434353+588900792+589522392+589801177+589803908+589898656
2494+590565856+591955617+593077105+592855320+591821276+591503308+592185389
2480+592790197+593095400+593709355+594296004+594441677+594570421+594898696
2467+595405683+595993698+596303543+596266681+596283747+596678578+597193416
2453+597462644+597534729+597490563+597720745+598651712+599606981+599978671
2440+600141410+600197726+600309609+600909433+601517791+601565438+601388569
2426+601444204+602007166+603014383+603707249+603660558+603420682+603526899
2413+604064878+604896864+605757588+606322735+606482265+606398098+606111531
2399+605972957+606655516+608311229+611241884+616764543+626965587+643536772
2386+666227301+693413271+723242101+753554367+783199843+812593498+841994867
2372+871315822+898979972+920753869+935149385+944555305+950881348+956766619
2359+959445589+950648367+931572213+908482553+886893033+876142064+881778517
2345+897618950+906803221+903346738+895517482+889230759+886573291+886720807
2332+887745840+888814766+889548044+889682590+887447600+879816715+868350626
2318+855800456+843176699+835716403+835729509+834903872+826098254+810684736
2305+793194530+778783177+768550117+759515819+750089556+739523852+726791353
2291+712930403+700421122+689630015+679509520+671214371+666244230+663350096
2278+660563065+657674392+655120001+652745482+650653776+649265585+648423359
2264+647535603+646372201+645223408+644434632+643983279+643430283+642473581
2251+641228742+640240229+640106776+640547002+640644481+639877140+638764253
2237+638187228+638130092+638231872+638374472+638451405+638600763+639018804
2224+639458484+639646343+640014826+640817868+641323081+641165257+640851385
2210+640705030+640898896+641598316+642227425+642334120+642618025+643212320
2197+643337582+643136753+643328435+644098165+645159036+646076146+646586683
2183+646610643+646307420+646147822+646462922+647089779+647688511+648133038
2170+648571490+649027143+649127421+648915943+648732043+648654292+649141483
2156+650247203+651260426+651892812+652136510+652106202+652036847+652043332
2143+652248871+652611073+653003378+653267419+653375274+653622521+654025203
2129+654417987+654773021+655155839+655871164+656712092+657031562+656869233
2116+656664786+656877424+657683334+658465079+658722566+658704681+658724341
2102+658738198+658674236+658723931+658979848+659529772+660438964+661222893
2089+661577654+661791863+662081228+662358375+662431006+662561593+663032606
2075+663444162+663718032+664285295+665041578+665723249+666271877+666493457
2062+666724663+667515419+668383038+668691449+668662642+668550418+668550077
2048+669032148+669752866+670289957+670680147+671044806+671561896+671968879
2035+672219403+673124430+674364491+674768401+674467158+674154651+674111714
2021+674507296+674946089+674917214+675117292+676048464+676847752+677144968
2008+677540755+678111431+678465032+678690982+678933041+679102743+679152097
1994+678832627+678333285+678462507+679157285+679741682+680275428+681275545
1981+682529873+683396604+683997862+684581236+684868963+684560074+683717576
1967+683250863+684131657+685841570+687311744+688026660+687871294+687350791
1954+687343145+688163936+689197502+689519497+689106849+688615153+688678774
1940+689713295+690950079+691587380+692262908+693482217+694452844+694927953
1927+695065912+694287102+693404670+693661201+694030776+694221434+695196021
1913+696345223+696654522+696789887+697721059+698721654+699612892+700967565
1900+702179502+702183734+700927905+700046360+700155444+700100697+700285211
1886+701088254+701844127+702919947+704184514+704769662+704935336+705387508
1873+705530860+703871052+701194948+701528753+704655118+706919051+707344669
1859+707119197+707369653+708172491+709027072+709620207+709630583+708911640
1846+707524541+706472271+707660452+709878171+711310596+712279244+713072321
1832+712264978+709788611+709030007+710680668+712586222+714536556+716099841
1819+716394736+715973418+715711289+715291951+714565158+714655470+715841193
1805+716780079+716435215+715221504+714621270+715010777+715276251+714502630
1792+714320641+717254982+720625181+722003269+721832681+720900144+720129253
1778+720409539+720564427+718692527+715428340+715489777+718859088+722166349
1765+724099276+724058250+723275550+722984546+722907204+723948415+724495405
1751+721548025+717410348+717168835+719376042+721237907+722156724+722817712
1738+723850868+722995946+719224225+719383960+723737757+727677130+729489574
1724+729070850+727875297+725804410+720964515+717196618+720631461+726212690
1711+729618385+729616679+726558372+724070810+723706970+720344895+714628028
1697+714667621+719326005+724531379+727282230+726972659+724788320+720274720
1684+716212679+719794560+724357855+725571976+723900563+722043612+721620042
1670+721749059+723883771+726479392+725774648+722862970+722827337+724765793
1657+724186652+717847844+709163529+710986348+712740905+710457722+712709368
1643+718467533+721016736+719585745+715823308+714167323+718866461+724051014
1630+726209277+726172824+726356519+727789490+731283313+735122408+736356872
1616+737254117+741914959+746494227+748258477+748851544+750769453+753701269
1603+756389659+758774759+760629389+761361233+761591279+762619042+764684331
1589+766772488+768114396+769485180+771680646+773720677+773824300+771096590
1576+768895117+771710203+774502831+774368832+774872883+777124120+778900452
1562+779127699+774059738+766345846+772232891+780992432+786454132+788773699
1549+789614901+789513599+787431654+782792042+776579110+780025149+790526276
1535+796374753+798931534+803324308+807645406+808681908+807341023+805658552
1522+805751594+808908062+811669903+814913475+820010243+823567618+823080359
1508+818498838+819303451+830700390+838678254+840863958+840282633+842485061
1495+848111138+851365768+849918189+847935293+851695204+858064526+862843121
1481+865608102+867271187+867537412+865280783+862331560+865032716+872359832
1468+878045434+880445619+881715238+883631918+883521538+879449461+879973378
1454+889433567+897709739+901184380+902169753+905962771+912284308+916471885
1441+917760958+917488931+916471885+918613696+923106202+925712610+927244493
1427+928727842+929157351+930014185+930390927+925974807+919240416+916476049
1414+916639402+917128914+916134189+913487302+909328328+905530463+903641497
1400+900355466+894697647+890202137+888370170+888418705+887917793+884167439
1387+878318212+876826193+881064353+885566484+885426682+881221562+877349086
1373+878178956+882039076+883583930+882358341+879831596+876183568+874965693
1360+877749378+881178283+883591575+883347536+880950354+879868048+880971174
1346+882550637+883069707+882105632+880979229+881639398+883948589+886214229
1333+887705428+888867464+889920553+890724893+892124074+893664286+893607833
1319+893632339+896095667+899026186+901206634+904678954+908933018+911982655
1306+914874333+918165620+920896811+924134375+928937614+933753003+937261365
1292+939554856+940342198+940780581+942869899+945396711+946539361+947389915
1279+949142424+951102315+952594469+953693021+953653224+951575580+949546198
1265+949888399+951190169+952700072+955326412+957549865+958582134+959563206
1252+959873050+958514554+957204729+958313042+961631293+964651236+965955805
1238+966622936+967184807+966975036+966183325+965658862+965212356+964140085
1225+963869491+965580974+966715159+965604593+964875479+966183939+968202331
1211+969963578+971148414+971801142+972431889+973020587+973035059+972258434
1198+971230602+969966308+968549788+968149154+969501029+972120202+974191566
1184+974999250+975858951+976813127+977041876+976771965+976622743+976879342
1171+976858385+976324298+977354587+980694546+984014708+985723392+985467680
1157+984771741+985946816+987711202+988220852+988070196+988043505+989201992
1144+992096809+994492490+994171996+993170718+994753594+998655355+1002712550
1130+1004970135+1003229981+998550913+996523852+1000064161+1004811833+1005335818
1117+1003055365+1001640279+1001636047+1003727548+1007943454+1010224112
1105+1006636223+999258798+994288111+995933857+1002399087+1008741923+1014158843
1092+1019091985+1020660116+1020879581+1025710875+1033308106+1036762678
1080+1034738484+1032812519+1034922725+1037177374+1037650298+1040439513
1069+1044119420+1043464780+1039555442+1038136192+1040512554+1042811984
1057+1043871626+1044948948+1045858003+1045858344+1045325690+1046632512
1045+1050242313+1052134555+1050595026+1050638783+1055092106+1058961579
1034+1057741451+1053129485+1049675732+1050513111+1053601931+1055366932
1022+1055914331+1055223034+1052786464+1050054044+1048474445+1049390872
1011+1051918026+1053844468+1055529738+1057162105+1058216764+1059011547
999+1057333376+1050959481+1045169164+1046042858+1050156302+1051548861
988+1050497888+1048582300+1045613008+1043440479+1044208844+1045916095
976+1047095265+1049505417+1052572393+1053966590+1053956692+1054575562
964+1055490829+1054787723+1053245190+1052891521+1053988639+1054270291
953+1054359852+1058664840+1063656689+1063173388+1061906432+1063213390
941+1062285495+1058733991+1056395515+1055573495+1056265542+1059532323
930+1064384369+1068502864+1070000889+1068270975+1064646498+1062579571
918+1065023513+1069912694+1070653617+1066916438+1066571916+1070750960
907+1073741823+1073159610+1069363111+1065258473+1064209070+1065961306
895+1067487456+1066241388+1062542846+1058642792+1057282247+1058496232
883+1060541656+1062831938+1062612542+1057591546+1051082422+1048706470
872+1051640129+1052918075+1046982222+1039978467+1038646047+1040982065
860+1043212345+1042243151+1035710408+1027549054+1023448239+1023934201
849+1023938502+1017086358+1006609873+1002780676+1005680067+1005945131
837+1001471329+995951537+989670616+984215400+982701879+983848556+983955934
824+981752550+978946133+977789557+977697061+976390718+974269590+973002429
810+970828739+965621659+960553220+959099634+959927729+958726714+952746286
797+946191290+943599832+942962121+941898657+940372643+938550848+936673623
783+934707588+931886973+927034449+921205563+917406197+916371061+916411472
770+916259247+914392398+909902690+905380695+901631023+896729350+893171770
756+893660804+894998139+893145626+889111094+886116340+883914185+881629227
743+880418929+880023483+879655820+879363314+879698347+880746658+880510605
729+879955971+882071910+884325741+884660160+885467913+887044713+888153436
716+887202059+883070116+878756800+876427607+875343800+875831537+876362212
702+874672504+872596703+872728450+875722112+879355327+880656483+880124580
689+878194861+875649958+875050066+875179696+874325866+874028582+874462460
675+875030747+878424155+885513990+887673618+876165410+865363722+863235085
662+864886497+865297439+861871265+856115761+851162823+850365446+855318589
648+861788257+860915586+851144870+841859775+837469936+834969882+841382891
635+861796039+870255360+849888768+827626997+818872235+819363590+827278243
621+841509314+852073175+849423626+843836936+840438750+826928328+807761590
608+803935669+823220229+849618652+851613221+825299170
##END=
