##TITLE=Sample description
##JCAMP-DX=4.24
##DATA TYPE=INFRARED SPECTRUM
##DATE=25/8/2023
##SAMPLING PROCEDURE=Instrument type and / or accessory
##ORIGIN=Default
##XUNITS=1/CM
##YUNITS=ABSORBANCE
##RESOLUTION=4
##FIRSTX=4397.6552
##LASTX=599.8556
##DELTAX=-1.9287962
##MAXY=1.9570078
##MINY=0.90604264
##XFACTOR=1
##YFACTOR=1.8226055e-009
##NPOINTS=1970
##FIRSTY=0.98610443
##XYDATA=(X++(Y..Y))
4398+541041066+540726888+539918503+538699368+537294448+536342889+537252032
4384+538362756+537388207+535847766+535195799+535397348+536967189+538781943
4371+538961712+538043771+537825217+539184779+540547283+539769770+537815734
4357+536622402+536244813+537034950+539502684+541365185+541200722+540920130
4344+540373598+538867363+538837080+540824506+541905438+540476547+538704797
4330+538841070+539221897+538077292+537018991+537247323+537715303+538034484
4317+538908962+540077374+540766230+540369706+539535649+540449959+542517409
4303+542927701+542268867+542672094+543510108+543096743+541208145+539834914
4290+540956692+542457563+541761709+540383834+540199618+540918299+541219493
4276+540822937+540892561+541948639+542680434+541683091+540789056+541795752
4263+542593476+542177821+542419300+543061195+542319000+541103398+541151111
4249+541626809+541161445+541101076+542993172+545192056+545752650+544877388
4236+543900680+543627512+543435415+543669470+544970657+546215234+547266145
4222+548416309+548615404+548298807+548116095+546437909+543646742+542650707
4209+543550529+544437696+545015329+545116741+544142780+543187788+543557037
4195+545029555+546833680+548225062+549004734+549708894+550116831+549395338
4182+548586397+548800274+548531685+547411869+547383875+548424386+548948354
4168+548898318+548565631+547903133+547490520+547146779+546788190+547456214
4155+548722245+549267077+549151897+549467088+551080327+552386811+550807453
4141+547593927+546178509+547715059+549971434+549947234+548764170+548904401
4128+548874837+547637291+547518775+549533345+551772780+551950880+550518555
4114+550201925+551075225+551071562+549844415+548308879+548054352+549074064
4101+549365317+549359430+550022254+550368121+550698094+551468773+551650798
4087+551407357+551365431+551079476+551063910+552483350+554578107+555179123
4074+553708470+551665122+550464006+550882866+552654322+554064998+554198295
4060+554071734+554650970+555216470+554752938+554216347+554980616+556069298
4047+555906699+555187887+555174348+555485288+555266178+554697081+554354027
4033+554047207+554166573+554860596+554684588+554132693+554673993+555540753
4020+555684188+555038762+554711143+555405558+555945485+556034829+556829316
4006+557833167+557406327+555907484+554770924+554430748+554857456+556069887
3993+557994785+559639287+559940940+559277265+558260464+557675080+558066666
3979+558543148+558153002+556915128+555953530+556627342+558439676+558970511
3966+557167268+555470376+556121427+557818123+558878681+559589186+559880112
3952+559233836+557869401+556774440+556803807+556925201+556615569+557253081
3939+558831589+560261690+560545552+559432670+558456813+558529806+558704636
3925+558331756+557952532+557862730+557601368+557850107+559314219+560916797
3912+562312495+563727815+563216863+559033628+554595898+554701398+556800210
3898+557856059+558895490+559713130+559173662+559029049+559478846+557693721
3885+555707538+556837099+559278900+561900633+562943074+560856100+557799090
3871+556045687+556460688+558818311+560582114+561169983+561603821+561818549
3858+561027071+557520591+551520247+552890502+559815164+564691048+565633810
3844+563040398+559379952+556785886+555467498+556438188+559094390+561182149
3831+562329631+563279849+563899178+564136144+562840256+559986266+560129767
3817+561847262+563748483+566929045+568666162+567367526+565073216+565104937
3804+565157524+562193914+560976185+563087817+565948478+568970954+570736196
3790+570722853+570159380+569685645+569656147+569798405+569261225+569324277
3777+570026345+569674918+568978148+568910715+569784735+571121306+571710483
3763+571225628+569334022+566956646+566615881+567302251+565934024+560512261
3750+556274215+557932976+560851718+562423162+564030383+565189180+564004940
3736+561143036+561252133+564957709+567868405+568233698+567252085+567004065
3723+568574921+571356048+573310182+574065883+574372114+572569002+569374966
3709+570710753+575014008+577859364+577464704+575616986+575988622+577349721
3696+577473338+576932104+576041732+574506000+575148417+578735477+581663964
3682+581609023+579460764+576659426+572312937+570387124+571758687+569781792
3669+567623591+570428984+573634400+574035077+572148965+569608531+567183081
3655+565689994+564465136+560222316+552946752+552070181+556147393+557974640
3642+556963071+555929068+555733896+554334078+551904704+550548838+547592357
3628+542043707+541301970+543383286+543880731+541094633+537011044+535162344
3615+533740516+531726306+530387839+530009923+531467626+533006040+531382140
3601+527912157+526439542+526572479+525593352+523886125+523083659+521975878
3588+518813205+516182511+516228361+516773062+516272510+515573255+515176502
3574+514297413+512811847+511023157+508319340+505440103+505504201+506987412
3561+506990356+506416941+507088039+507889066+507125877+505570850+504384974
3547+503056284+501805820+502112934+503137061+502961315+502105707+501557376
3534+501249379+501104537+500213119+498384466+497175175+497231326+498553050
3520+500670798+501921360+502060184+502167613+501858014+500710630+499634342
3507+499182223+498996176+499051378+499219145+498818958+498302905+498481856
3493+499369055+500368066+500507544+499887823+498931162+497591811+497113955
3480+498345583+499595687+499768718+499726237+499852634+500501167+501929765
3466+502128108+500046694+498292015+498697205+500069848+500946909+501088120
3453+501457370+502585525+503153183+502458932+501631546+501180997+501216709
3439+502415306+504157688+504912898+504924115+505084883+505220666+505318939
3426+505349647+504982032+504914730+506384729+509259191+511623682+511866404
3412+510908729+510825697+512021743+513515713+514978845+515874122+514860199
3399+512768189+512116745+513560124+515720876+517640214+519701385+521492659
3385+522102798+522775433+524905837+527942015+531073130+533581972+535515340
3372+538113036+541011829+543001119+544681431+547085591+550315927+553497928
3358+555965630+558755783+562817167+566786917+569789248+573478930+577775383
3345+580584046+582254711+584662305+588317518+592429330+595829001+598153072
3331+600751978+603957983+606163865+607703194+609624037+611424794+612668881
3318+612231839+610130083+609668513+611763074+612937962+611908341+611167945
3304+611922730+612431196+611614864+610608201+609643594+608560667+607864943
3291+606957893+605549441+603682624+600933480+598659380+598037565+597446557
3277+595771052+594076906+592838509+591974758+592033100+592044808+590465057
3264+588099585+586741888+587290448+588400845+588141576+587092529+586044726
3250+585167435+584770421+584205902+583347187+582769194+582564474+583188577
3237+584143635+583114865+580535580+579687265+580668812+581420523+581633354
3223+582181979+583217748+583138869+581115862+578417669+576600691+576742753
3210+578519049+580166233+580511903+580844100+582358903+583229325+582292843
3196+581313911+581481678+582307167+583417891+584573549+584940019+584631760
3183+584782259+584747660+583295516+582151239+583713984+586603096+587649461
3169+586820179+585993578+585574718+585768843+587254671+589213449+590032920
3156+589956134+590082890+590131291+590053719+590571538+591450529+592384134
3142+593488187+594203532+593988870+593276860+592961669+593626717+594516565
3129+594044530+592552685+592001313+593328858+595979501+598291079+599120165
3115+599496053+600445486+601376867+602298895+602866161+601188890+598438831
3102+598115006+600226965+601982461+602530236+603146753+603591775+603212813
3088+603207253+604086767+604828864+604932990+605242818+606192251+607000865
3075+607435422+607683442+607290352+605681365+603731351+603616760+605570306
3061+607165819+606960183+606029259+605570633+606051759+607570813+608987048
3047+609204916+608922362+608939891+608569562+607697962+607902486+609092221
3034+609723847+610035375+610025564+609385175+609466997+610664777+612102727
3020+612854700+612702827+613101477+614346283+615244569+615572514+615538699
3007+615305135+615076802+615090538+615589324+616855583+618834376+620820232
2993+622157784+622558069+623024936+624439733+625370591+625006214+624748711
2980+625409050+626069454+626476737+627805525+630206447+632638045+634013336
2966+634169657+634314989+634893178+635070493+634472683+633289946+631684230
2953+630778946+631971296+633908883+634561569+634550319+634597935+634406099
2939+634132179+634348477+635591255+637339034+638354658+638842456+639695611
2926+640319192+639924532+638724660+636959614+635378751+634775054+634653138
2912+634448548+634644177+635794603+637101283+637302276+637145236+637967520
2899+639002308+639117619+638612292+638169428+637872158+637440740+637868037
2885+640359089+643093844+643780476+643644824+644438852+645627017+646238498
2872+646187416+646366694+647242610+647591878+647153200+647208665+647477287
2858+647191790+647333001+648057700+647967309+646471212+644216145+643209351
2845+644620092+646722764+647853698+647904911+647482716+647926953+649536332
2831+650391973+649685720+649191185+649808879+650765572+651819328+653266828
2818+654315547+654155106+653775228+654103239+654908256+655871359+656847347
2804+657445877+657262544+657011189+657652102+659058069+660351864+660578627
2791+659886697+659349125+659698066+660851828+662016643+662996163+664146784
2777+664726608+664302909+664135077+664762778+665004715+664608878+664947615
2764+666192749+667422970+668340419+668589812+668647958+669572079+670484754
2750+670167077+669831741+670713806+671409987+670980466+670793340+671734924
2737+673228012+674429323+675384774+676545795+677488491+677667377+677140335
2723+676229950+675728417+676179129+677111295+677964974+678294293+678174535
2710+678417387+678636366+678183822+678028221+678766524+679855207+680740149
2696+681095827+681281972+681694750+682110797+682674466+683558885+684498050
2683+685402810+686212406+686712892+686994530+687485533+688052864+688295193
2669+688216118+687983926+688143452+688880577+689414159+688946114+688107086
2656+688429145+689448955+689660020+689425605+689856957+690794552+691238593
2642+691248077+691143427+690488452+690088560+690803251+691968001+693499416
2629+695156934+695458979+694591434+694301947+694455848+694110242+694271599
2615+695522227+696576440+696914197+697111919+697487807+697749365+697575843
2602+697468839+698087580+699339973+700560187+701381228+701845415+701965762
2588+702181143+702812115+703322739+703330850+703069553+702961437+703415616
2575+704225538+704744273+705025780+705572116+706464581+707139178+706948912
2561+706514224+707058598+708048452+708229888+708448933+709428518+709503473
2548+708420808+708000509+708276588+708237737+707912996+707877023+708721545
2534+710031823+710719305+710870654+711190293+711604182+711601893+711274405
2521+711172895+711473370+711974838+712309913+712238359+712102445+712642960
2507+714064428+715738755+716762359+716947392+717153814+717360039+717060283
2494+717168530+717718987+717278870+716386994+716902982+718196974+718626037
2480+718690789+719376178+720381206+720916881+721040171+720908902+720090934
2467+719410778+719840626+720574939+720968029+721599589+722484924+722772056
2453+722320362+721876256+722285370+723378697+724181032+724436573+724332577
2440+724224069+724406159+724703560+725040074+725080495+724599107+724315441
2426+724794736+725833056+726698900+726812379+726777583+727328760+727986351
2413+728065362+727881702+727984781+728260991+728653492+729042658+729273345
2399+729551058+729441765+729028857+729452622+730769833+732092407+732837839
2386+732797745+732022358+730912811+729835313+728419077+726274546+724331531
2372+723199484+721989866+720908705+719262829+715234148+711749645+711536552
2359+712437454+713529015+716146365+720064903+724228713+727280555+727619424
2345+725769743+723946944+722426059+721632488+722640786+724005220+724135574
2332+723918623+724842090+727183885+729570746+730082613+729214283+729012440
2318+730128593+732400797+735292787+737851861+739685452+740556856+740433108
2305+740354556+741134653+742635327+744183029+744850955+744853048+745345293
2291+746413700+747160047+747341941+747389622+747533777+748103855+749157022
2278+749387186+748149836+747760932+749290320+750128497+749613752+749908210
2264+751195596+751776990+751103700+750614987+751506470+752952139+753758987
2251+753976462+753709147+752980656+752588481+752836632+753238224+753463548
2237+753689853+754337306+755154946+755778527+756408714+757030594+757289863
2224+757397914+757648418+757464104+757034191+757123274+757484184+758014299
2210+758817092+759551601+759839061+759780653+759974517+760357403+760476246
2197+760556891+760554668+760137508+760393049+762021200+763148799+762614825
2183+761971557+762688603+764134729+765005740+765415770+765611923+765259712
2170+764877872+764986773+765260431+765620099+766375472+767354142+768041689
2156+768558658+769283029+769647144+769261184+768995570+769286496+769449488
2143+769168046+768877578+768521246+768101667+768447206+769464531+770309642
2129+770683306+770465308+770029050+770136120+770828376+771608800+772327808
2116+772950735+773309683+773388432+773217003+773087695+773422377+774142693
2102+774814478+774934171+774287110+773545864+773353701+773565878+774189982
2089+774958110+775554220+776574618+777884373+778600830+778478521+777613788
2075+776678941+776779666+777817986+778590430+778814380+779045460+779239323
2062+779198052+779399175+779973767+780138655+779705014+779507880+780111381
2048+780900242+781170238+781400075+781713369+781703101+781778906+782071009
2035+782171473+782317067+782771769+783229611+783645462+783915392+783915523
2021+784257793+785022781+785665525+785992686+785807914+785440267+785480230
2008+785670300+785942193+786699725+787587284+787865325+787444306+787035519
1994+787025446+786785603+786280734+786634123+788032568+789432517+790050996
1981+789894152+789894480+790588568+790873280+790555734+790842474+791807539
1967+792595681+792779275+792882682+793518625+794246920+794316904+794005245
1954+793927935+794133572+794605018+795220226+795431684+794771280+794166602
1940+794997323+796266003+797048847+798021106+798565677+797862759+797622588
1927+798487320+798618263+798142369+798367300+798576207+798810295+800057848
1913+801257786+800978830+799885765+799634345+800284284+801021606+801453743
1900+801421890+801318156+801939251+803302639+804198308+803796650+803284587
1886+803715612+804500222+805363189+806192994+806911675+807573060+807723559
1873+806779163+804376016+802239530+804171557+808380039+810472965+810373156
1859+810274065+810682787+810772001+810942253+812200271+813114582+811807116
1846+809209910+807840440+809187607+810792081+810785933+810766180+811570477
1832+811142003+809295657+808946913+810054694+811034802+812454374+814176905
1819+815323668+815535714+815030977+814088673+813234078+814041188+816101869
1805+816548591+814722195+813247879+813985070+814807484+813599894+811056125
1792+810237831+813525789+817854487+820000980+819843287+819004717+818810657
1778+820169401+821555550+819713783+814764578+813193788+815689680+818250259
1765+819827982+819727518+819190600+819991169+820625738+820647126+819986002
1751+817680638+815517401+816236605+818579774+820741180+821650127+821090448
1738+820405451+818744924+815224186+815808392+820388969+824182188+825801705
1724+825928985+825784111+824660698+819633137+813295167+814507794+819406571
1711+822626834+823102466+821350567+820094249+820440509+817892161+812345473
1697+811433583+815231380+819868860+821766418+820457187+818391012+814972242
1684+809449754+809357466+813388371+817459435+819380801+819084839+818060385
1670+815899503+815686541+818024150+818210296+816160145+815948492+816730943
1657+815037910+809061308+802307945+804324149+806026536+803770030+804630903
1643+809439812+812348874+810852123+804601863+799856529+805467838+812241804
1630+813909395+812663084+812482694+812932491+814806765+818323579+819613385
1616+819888809+824448325+829880095+833225872+835561977+837748041+839490587
1603+841635445+844646802+846664053+846941309+847678369+849465587+850737929
1589+851990781+853704025+855060806+856767379+859358960+860450324+857126916
1576+852774214+854836137+858076872+857785619+857644604+860440186+863933650
1562+865777248+859936168+846483729+848891192+857732248+864660768+868970172
1549+870736918+870491842+868371380+865457806+862474901+864299073+870502961
1535+873134570+872809306+875044359+877324215+876565179+875857813+874550413
1522+871023200+872186968+877613375+884493626+891675202+894354296+890435104
1508+881593002+880425636+893650920+903290322+904844826+900689846+898377287
1495+901447835+903815663+901584730+898316001+901766951+908126505+911372342
1481+912228506+912099918+908800579+902132505+895816185+895835087+901330105
1468+904719442+903756339+903163434+905320000+905493718+900977632+899550539
1454+906086231+911854580+914619421+916950621+920271479+923012381+924606390
1441+925170713+923457796+919367895+918569027+921366440+923778285+926832090
1427+930563174+933117212+934707885+933685263+928150348+924968543+927447037
1414+928879494+928082064+927020132+925857868+924352681+922309267+919211444
1400+914508427+909137223+905569066+905810937+909264896+911400793+908335150
1387+901535741+898519414+900395192+902627628+903694988+903928161+903242510
1373+902970944+903518065+903284435+902520820+901249132+898459960+897580903
1360+900485256+902160106+901037478+900084252+900124346+900155675+901241676
1346+903527353+904449577+902759748+900207346+900150704+902378562+903939672
1333+904834099+905592023+906247260+907450861+909142914+910807692+912463248
1319+914338503+916385383+919139759+922587308+924700379+925352803+927683414
1306+932772196+937524659+940829427+944509559+947107812+947737082+949252146
1292+952217130+955213443+958288178+961875696+964838325+966229052+968317923
1279+972247121+973905751+971418820+969207444+969252836+968893691+967747386
1265+967426047+967360837+966743666+967068145+969222291+971844089+973616199
1252+974701088+976605056+979532823+981155415+980471268+980487620+984231262
1238+988777042+988947883+985761500+983093132+982006347+983034398+985522376
1225+986033327+985222816+986818984+989107015+989111463+987801185+987085382
1211+987697974+989186222+991215639+993507202+995126916+995837486+996005841
1198+995451199+994884848+995662722+997718170+1001365468+1006388516+1009003513
1184+1007252660+1004889346+1003921338+1002545000+1001564760+1002401041
1173+1003419347+1003842393+1004790714+1006085491+1006393684+1006317093
1161+1006953690+1007634566+1007768452+1007725611+1008458027+1010573649
1150+1014294137+1017938885+1018335376+1016621608+1015599574+1016202683
1138+1018162835+1018633300+1017843588+1018520671+1019281408+1018401566
1126+1016258801+1015368822+1017369853+1019852140+1022158878+1023787618
1115+1021806078+1017705254+1015596108+1017245843+1020026185+1019998715
1103+1020031287+1022605666+1021937413+1017829918+1019135945+1024877674
1092+1025310465+1020685739+1018704331+1023011837+1031159263+1036823355
1080+1037334830+1035658148+1034273111+1034283445+1036131883+1038800382
1069+1042439636+1048407211+1055555430+1060536357+1060421569+1055840927
1057+1051635650+1052472454+1057803957+1063417490+1064676947+1057781130
1045+1048299684+1045934735+1049300788+1051715576+1052312667+1052961691
1034+1053210888+1051654618+1049808338+1052025143+1058537289+1062493173
1022+1060753766+1058322103+1059437275+1063154427+1063817055+1059305809
1011+1054591084+1052295923+1050795707+1049911091+1051892630+1055780231
999+1057467443+1056968722+1054511420+1050014628+1047979718+1049203856
988+1050414651+1051935602+1053592335+1052824469+1051241906+1052234115
976+1053777369+1053760298+1055366472+1058807938+1059010435+1055591796
964+1053627327+1055273400+1058305490+1059346295+1058040399+1056672891
953+1056941579+1061703396+1068123908+1068030246+1063978019+1063312186
941+1065872830+1066882371+1064373464+1061225605+1058256304+1055402119
930+1054541572+1055782258+1057991803+1060212924+1060642576+1058468612
918+1058030850+1063716134+1071108644+1071767740+1067057659+1064929349
907+1065244540+1065120858+1066911346+1070807842+1073741823+1073344809
895+1070280277+1068987267+1069909949+1067643501+1062384337+1060459963
883+1063679048+1067836775+1066166503+1058106263+1051929127+1051931351
872+1054190408+1053287413+1049609569+1048195296+1048289153+1045747935
860+1042684385+1041946671+1041828809+1040407799+1036267078+1028022851
849+1019194352+1016041130+1017901014+1020090610+1022200803+1025287638
837+1027370295+1023015369+1012004666+1002678755+999058665+999651570+1003928402
824+1007502969+1003588683+995904985+993096649+994762997+994893940+992525655
810+991541099+991425396+988092896+984503285+984730898+983735419+980102379
797+979709092+983200267+990422853+996663825+990076070+973357911+958544439
783+950429519+947896804+947043583+945432372+944949022+946386318+944521659
770+939106699+937374487+938596140+936736779+931774297+926009087+922392791
756+922883205+921365328+914966923+910689373+909275099+908257709+909406696
743+908984304+902996518+897737420+897070933+895343038+891192113+890231299
729+891839240+891748195+892163327+895156762+897543164+897722769+898338174
716+900857939+902538415+900962785+896725262+893845045+897322877+903160752
702+901085617+892544382+887926197+888421516+887706433+885600687+887463907
689+893215839+895173309+891016564+886900173+885541233+882536417+876475900
675+873585937+874001265+870993375+864167542+864427269+873445249+878021378
662+876771927+874072492+871840513+871274817+872272389+871372860+866591618
648+866168768+874953903+878925157+867685991+854207193+850176550+864085457
635+913615897+962251453+921828141+853278167+826649432+824141309+816942008
621+815898718+827946760+825768741+811171043+817846900+839768563+847008939
608+845791341+848126857+845515197+838524476+835789198
##END=
