##TITLE=Sample description
##JCAMP-DX=4.24
##DATA TYPE=INFRARED SPECTRUM
##DATE=25/8/2023
##SAMPLING PROCEDURE=Instrument type and / or accessory
##ORIGIN=Default
##XUNITS=1/CM
##YUNITS=ABSORBANCE
##RESOLUTION=4
##FIRSTX=4397.6552
##LASTX=599.8556
##DELTAX=-1.9287962
##MAXY=2.0611172
##MINY=1.2795038
##XFACTOR=1
##YFACTOR=1.919565e-009
##NPOINTS=1970
##FIRSTY=1.3634335
##XYDATA=(X++(Y..Y))
4398+710282545+710673603+711848391+715292271+716522827+713123536+708677450
4384+706036180+705020995+707460122+713078885+713420944+706719615+702522497
4371+705973767+713778404+718100224+713827341+707541600+707171285+710328687
4357+713288728+714514813+711951977+708123498+706522937+707095147+709456523
4344+713514594+716697334+715325309+711184145+709526699+710603676+711174023
4330+710810352+711829698+715802379+719357856+717841444+712629637+707719089
4317+706378798+709382062+713781385+716322982+715762199+713383993+710758559
4303+708300179+706570818+706563180+708751414+710870715+711747475+713603276
4290+715190734+713738100+712342042+714649637+718078426+718669018+717225762
4276+716087863+715611601+715617376+714932016+712012092+709789081+711528378
4263+712834016+710967036+711846031+716234113+718290878+717953849+717433556
4249+715813060+713988931+713726984+715412439+719658245+723724389+724235491
4236+723141063+721217694+716848429+710741232+705601588+704423695+707281827
4222+711637368+716001106+719920689+722249958+722344539+720806640+719297058
4209+718810984+716743724+713525400+713646499+715881373+716404833+715129998
4195+714226845+715180611+716284106+716421538+717067215+717726679+716806820
4182+714155862+712095993+713809083+716606416+717209553+718969283+722168418
4168+723524296+722480978+718716651+714837310+715627437+719757981+722201829
4155+721998009+720656663+720067437+721710289+724280950+727661858+730948122
4141+727892257+718882588+713074227+712890715+713593278+714190577+716429549
4128+717896342+717187818+718407568+721716313+721794314+718929351+717154531
4114+716851534+717984652+720570775+721457844+718845637+716686839+718289698
4101+720840920+721106718+720195305+720398131+722010864+723395185+722859243
4087+720425891+719336617+722056820+724812172+723763265+721313829+720616669
4074+720490167+719601918+719879453+721697496+723317868+723262597+721300166
4060+719928514+720135128+720811235+722725785+726185750+728271329+726626862
4047+722743546+720054147+720977918+724264741+727859529+730827520+730683753
4033+727296883+724008259+722124014+720859054+721300414+724702313+728397707
4020+728585753+724676292+720858247+721257688+724399503+726741503+726855460
4006+726307656+727896728+730925144+731234662+727712844+724267535+723672161
3993+725196088+726826458+727594725+728409879+728807520+727068595+724077378
3979+722783851+724400683+726201772+724766465+721644150+720375091+721053682
3966+723337058+727468471+729727689+727312346+725156094+726388886+727011585
3952+725668810+725061513+725851639+727288561+727599818+726266482+726465582
3939+728811929+729543928+727128648+725011955+725654216+726630650+726091044
3925+724888930+724944698+726904272+728635373+729101636+729987587+729994480
3912+728668908+729082819+730003920+727796868+724843099+725470704+727486729
3898+728999354+731724959+735474320+736422373+733201564+730032984+725885920
3885+721335937+721455670+723786491+725824563+727169760+726298279+726427141
3871+728787585+729382835+729433759+728431367+727336690+730500179+734535769
3858+736405481+734981352+726007702+719654891+723089270+728190410+731359177
3844+731189886+728904586+727673160+726798637+724404285+723422634+726056142
3831+730473785+732921980+731845624+728918745+725021022+722937740+727824566
3817+734014917+737757323+740329846+740348601+737731302+735234357+735414950
3804+736338162+734688789+733697202+735820105+738397721+740326058+740652840
3790+739695596+739911028+740016664+738040074+736895281+737110279+737095934
3777+736764618+736730648+737660070+736862864+734859756+736488822+738035416
3763+735741173+731411281+728473286+730237735+734110306+736053361+733450532
3750+731842519+736224577+738284384+736353191+740026911+747471045+750998887
3736+743730316+732265497+731952936+739467122+744861260+744553978+742245700
3723+741333791+740493423+739580023+739843585+740229240+736542354+730540483
3709+732428205+738694073+742271907+742184529+741182261+742798224+745594874
3696+746287314+746087842+746842632+743549971+737527420+738506835+742839646
3682+744121933+741454580+737235477+733164179+734237740+738304505+736424298
3669+732133281+733084564+735445442+737437434+739517114+739352667+735393587
3655+732893972+735355518+736563966+728665554+720942395+723033253+727484556
3642+728570786+727312036+725826550+723290232+720875200+719646259+714809861
3628+707092042+707371006+710849911+710792404+707634567+706074311+706447421
3615+704942746+703870240+704540385+701265237+697270572+698317492+699636730
3601+698379719+696039892+693548909+691839731+690906459+690718103+690436531
3588+688558746+687623237+688635752+689383339+687942319+684812987+683720111
3574+685077480+685647765+683378549+678170034+674007880+674734041+676991954
3561+677327058+676819000+677048840+676271817+675428220+677472005+679845366
3547+679017357+676816888+675981365+675643156+675366366+675866103+676587420
3534+675917275+673831137+671563411+670124502+671074604+673776673+675401951
3520+674966614+672421229+669525029+669279849+670634113+669594708+666729559
3507+666559274+668224236+668731611+669914410+671198436+670822159+671997195
3493+673961365+672688145+670737265+671760399+673972295+674093456+672582881
3480+671786793+670821972+668679631+667867831+669326550+669939127+668949279
3466+668079227+667264570+668044822+670961951+671938819+670317205+669749839
3453+670718075+670982569+670735402+671339160+671823433+672276469+674057127
3439+675918766+676767827+676953637+675604777+672672309+671086714+672713358
3426+675176333+676482840+677044555+676361679+676019371+679081695+683518279
3412+684703687+683103747+682484587+682676607+682320824+683655152+686772312
3399+688311827+688617681+690269228+691409611+689828550+688301829+688603583
3385+689797437+693103698+698610677+701765222+701209283+701524700+703850740
3372+705920918+708285337+711015289+713262707+716529037+720769627+723285078
3358+722705850+720928298+721997015+726650833+731391222+735330740+740197817
3345+745130598+748734329+751225995+752896856+754455746+756381537+757225258
3331+756446993+757275188+761288421+763975089+763692399+765251166+769266386
3318+772108868+773089028+772497504+771813882+775125174+781569151+784855912
3304+783182133+779638144+777144553+776499310+775454626+773680862+774725856
3291+776508501+774038571+771889274+773637515+774355168+771938770+768501411
3277+766353915+766013843+765428468+764288581+762943508+761192039+759330214
3264+756841218+755371382+757220600+759917018+760283235+759088263+757484286
3250+754871645+751523713+749533460+750095672+752353399+754568462+755614202
3237+754833701+752640622+752963740+755562408+753560170+749340695+750362277
3223+752237392+749812300+748661483+750367183+750682538+751026274+752548959
3210+753374484+754212554+755238421+754516110+751155882+747420742+746460020
3196+747355597+747298277+747504829+749170597+750562681+751632578+751501170
3183+750063131+751492600+755311143+756765080+754918656+752104121+751779140
3169+754426683+756238205+756096363+756327570+757268854+757819142+758038176
3156+758900218+758910651+755188925+751025156+751349392+754086797+755127382
3142+754746385+754839476+755614885+757150052+757915649+755893041+754978647
3129+758066495+761284509+761729720+760822034+761304071+763261410+763829707
3115+762784465+762685536+763877588+765109759+766291440+765834927+762471656
3102+759824237+760137543+761093420+761682522+762541769+763468707+764911404
3088+766802728+766835891+764477620+762677773+763075600+763744068+763679109
3075+764017380+764322054+763807040+763504416+764272745+764738636+763846351
3061+763571486+765415178+767943795+768152582+766002851+766531652+771488342
3047+775124553+773816059+770629779+769311534+771179570+773451022+772472414
3034+770117684+770110356+771867414+773083935+774126135+774744177+773206339
3020+771359294+772182770+774657730+775243913+773568954+772362866+771842636
3007+771421086+772425403+774535886+776098813+777171070+777383149+776846089
2993+777631124+779163124+779226158+778159303+777655530+778564210+780379334
2980+782035290+783370116+785271935+787475323+788572732+787736587+786216013
2966+787206482+790630303+792316814+790579503+788087899+786959812+787435081
2953+788859085+789272872+789679704+791959912+793097874+791834093+790849276
2939+790226017+789146246+789195555+791014343+792869213+793456638+792599068
2926+791207481+791224249+792339295+791901598+790211672+789486939+789496378
2912+789157797+788855669+789465575+790700727+791576555+790948204+788850950
2899+787853029+789450981+792006302+792870641+791453841+790352706+791097063
2885+791972891+792099456+792312218+792541189+793585066+796229007+798193673
2872+798315207+797816713+796092816+792884677+791310260+793168360+795988236
2858+796872386+797073038+799311389+800629696+798494745+796462014+795043040
2845+792692967+791024652+791248593+792646452+793785221+794052261+794149202
2831+794778360+795396837+795294678+794952184+795654996+798140638+800417120
2818+800674223+801048575+803171665+804771977+804026626+803122790+804450723
2804+807142110+809244395+809502305+807812317+805913355+805348845+805728725
2791+806066747+805792255+804829733+803969244+804305465+805122048+805401943
2777+806641441+809070074+810331432+809634894+808282928+808032159+809019088
2764+809780027+809924973+810061660+810808315+812154754+813097901+813292902
2750+813183540+813068216+812721934+811420582+809906280+810145436+812092217
2737+813622044+813919079+813787546+813888090+815261171+817461950+818464528
2723+818228788+817626024+817154047+817431209+818293561+818649655+818282817
2710+818738399+819786437+819777246+819633106+819880956+818852419+817063937
2696+816560598+817441456+818979294+819976656+819438788+819136909+820479622
2683+821819664+822304869+822926326+823299126+822782808+822406468+822256864
2669+822049691+823143436+825215166+826173156+825778123+824606502+823371537
2656+823605042+825120088+826074165+826553470+827518725+827973872+827641004
2642+827724221+827947789+828020511+828464418+828687303+828380766+828096462
2629+827238271+826097888+826585825+827835695+828576450+829964311+831176547
2615+830730653+829226847+828302331+829994804+832838403+833073336+831318327
2602+830204833+830050758+830395549+830889262+831662249+833186486+834743017
2588+835362176+835030861+834276008+834252844+835577298+837305107+838547524
2575+839033909+837790374+835516438+835271507+836774443+837665176+838519268
2561+839168795+838451328+838022202+838832263+839243194+838762026+838442510
2548+838653719+839169975+839953519+840559016+840053007+838754511+838237696
2534+839276729+841026522+841603700+840068470+837710883+836725072+837496133
2521+838346624+838831829+839828756+841539362+843342501+844276705+844480586
2507+843880368+841788703+839707656+839282132+839863781+841129612+843382308
2494+845187310+845399700+844900025+843715052+841341939+839639592+839907315
2480+840554048+841561471+843646243+844533187+843543650+842967838+843758834
2467+844883009+844843636+843847889+843332378+843251831+843750388+845586752
2453+846967222+846541387+845995881+846413953+847313629+847529186+846652302
2440+846206780+847109995+848519406+848751917+846445998+843962592+845356104
2426+849269228+851170054+850575114+849949869+850184926+849784429+848132695
2413+847341450+848456496+849564835+849836657+849960613+848541017+845740455
2399+844821900+846708070+849898697+852356393+852748382+852002100+851367477
2386+850944436+850345150+849427900+847640100+843998673+839854777+837917870
2372+837652072+835798134+831203251+825757071+820772248+816101103+812954507
2359+813297994+817007051+821780540+825771168+830465042+836087096+839173826
2345+837888123+835239648+834559815+834739974+833649645+833330439+835736342
2332+837270454+835443592+834432940+836852257+839261762+840646518+844103067
2318+848100340+848855565+847304562+846234726+846974675+848696149+850278700
2305+852405888+854819057+857462191+860778078+862108805+860429995+858881165
2291+859574040+861282162+861485547+860187051+858942584+858053901+857232226
2278+857150748+858861541+861065984+861997331+862483716+862958364+862592147
2264+862001803+861997331+861898899+861774260+862269215+862554016+862253131
2251+862184197+862270892+862007516+861637822+861788171+862789942+864083532
2237+864694680+864503157+864597615+865834256+866873413+865929335+863908155
2224+862859559+863633105+865214600+865540078+864624008+863612362+862848194
2210+863429285+865237702+866668228+867648574+868094033+868089251+869222927
2197+871327386+872054293+870257489+867182558+865559827+866863353+868665249
2183+867770170+865459780+865310362+867392836+868742008+868509124+868491487
2170+869540891+870182966+869259319+868575139+869075497+868990230+868802744
2156+870093911+871323971+870646932+869368247+869817619+871182129+870972472
2143+869629076+869336512+870872674+872714316+872552415+871124250+870996568
2129+871841158+871756388+871044386+871097359+871978777+872858828+873222560
2116+873137667+872640352+871719872+870972844+870791506+871182377+872392936
2102+873366948+872521550+870842802+870219482+870784613+872223708+874433492
2089+876227936+876239922+874685751+873311304+873564620+874897706+876289666
2075+876794806+875632997+874321646+874207999+874503357+874639796+874753567
2062+874939625+875064140+875294912+875843275+876483798+877205985+877888861
2048+878380897+878371209+877140715+875180458+874232715+874996325+876001946
2035+876099136+876247685+876914787+877341243+877219088+876545527+876016168
2021+876350899+876764997+877052406+878104977+879113207+878940811+878185461
2008+877525811+877137920+877323792+878260481+879849739+881274861+882007482
1994+882405557+881479240+878475168+876125468+877258088+880753451+883499177
1981+885196680+886587149+886354514+884551065+883208415+882970687+883142152
1967+883190219+883627667+884930137+885730573+885286853+884855242+885014658
1954+885537187+885893964+885621273+885756656+886487537+885797830+884494117
1940+885492411+887035838+887316975+887822984+888645963+888721790+887990101
1927+886943492+886097846+885967058+886779107+887243197+887651023+889644194
1913+891153341+890323903+888850528+888392648+888280305+887441304+886871826
1900+888157343+889633761+889277481+888939023+889473289+888706264+887161906
1886+887440124+889297478+891135456+892150144+891920987+891149242+891560483
1873+892278199+890454567+886392273+885333119+888806000+892232119+892847614
1859+891933097+890794763+890249567+891851308+894107421+894407064+894159027
1846+894251684+893316859+893460626+895164898+895110558+893015663+891768650
1832+890531139+888099898+888502755+892285589+895981107+897837095+897220544
1819+894963252+892864879+892884503+894451777+894828117+894930834+896621319
1805+898127485+898177353+896935122+895168624+894104626+893703011+892910462
1792+892377997+894803897+898124069+898553506+897158628+897329533+898431041
1778+898594183+897099693+893178681+889195506+890367189+893566013+895590174
1765+897657557+898679263+898279449+898279387+898520344+899613405+900774221
1751+898905129+895055660+894036438+895468081+896769868+896056872+894308818
1738+895171977+896245539+892345890+889636370+893016595+897535713+899997694
1724+900786455+901530750+900910162+894844636+887097506+889245001+895493170
1711+899064235+899356302+897070070+894866434+894384334+892514250+889279033
1697+887806154+888411962+892092079+895273639+895628304+895138318+892021220
1684+885173578+886607271+891728470+892673852+889691268+887041055+887214630
1670+887729706+888849037+891671708+892451154+890456554+890993490+893690031
1657+893678791+887367650+876385428+876229054+878533109+875470475+874532980
1643+879599094+884262538+885044778+879651322+870765050+871711054+877992758
1630+880694081+880399592+880644524+880758109+882000961+884750538+885471669
1616+886694586+892783401+897900812+898636599+898213869+900210891+903841761
1603+907254031+908958861+909245401+909492320+909722036+909710299+910397025
1589+913211561+917060099+918733692+918998310+921032842+923023343+921152947
1576+917872024+918207997+918080749+916141359+916934590+919293668+920661408
1562+920889137+912795352+897499445+903689238+915406068+921404462+924379594
1549+927128363+927686849+923465821+915814390+908480115+911067295+920552916
1535+925206858+924979439+926672595+929639157+928997392+925482654+920913357
1522+915580078+915264413+920710034+928131935+933936073+934904309+931810810
1508+926651045+924899141+932890892+940083202+941136207+937672641+935857020
1495+938023643+939389768+936173182+931541224+933107505+938048546+941213400
1481+942090222+942824829+942449173+936864070+927155688+923238527+926538081
1468+928595715+926090200+923071224+923320129+921325530+912245436+909161253
1454+919796324+929140352+932357620+931885395+932888098+936245159+938927727
1441+940551577+940955924+938022960+936290431+939190047+942173253+944476066
1427+946530905+946461971+945853245+945449208+941173344+936483010+937410569
1414+938807311+937358217+935154705+934069407+933355728+932422828+930448225
1400+926583478+923552143+923007693+922613654+922787665+922687991+919104567
1387+913744709+912744490+915425754+916844729+916182532+916002312+916852988
1373+917736517+918044233+917606599+916706675+914946511+912704682+912928561
1360+916232525+919534439+920404181+918863921+918066528+919412346+920120746
1346+918264448+915105866+912708098+912588241+914306548+915914437+917151638
1333+917699814+916433301+915036746+916286740+919519534+922153787+922637626
1319+921882525+921951396+923700381+927388323+930901199+931966438+932462884
1306+934627644+938727696+943443243+947580371+951385251+953742901+954110111
1292+955266206+958782311+962549061+965008806+967342671+969721746+971507558
1279+973371743+974542743+973870300+973239962+974235088+975616615+975738770
1265+974962119+975548116+977604942+978856302+978843261+978627145+979929926
1252+982653234+983418582+981809513+981180727+982276149+983025226+982581630
1238+982712355+985141422+988762045+991462747+992640827+992904451+992803659
1225+991884173+990326028+989944410+992109170+995626144+996928676+994951341
1211+993237754+994443779+997069959+999330480+1001689807+1003535237+1004539617
1198+1006253204+1008020261+1008488015+1007547166+1005799423+1004963651
1186+1005966540+1008585640+1011737950+1013946989+1014560000+1014253587
1175+1014177140+1013293859+1011981949+1012333821+1013231633+1014007787
1163+1014662531+1014407787+1014605335+1015127118+1014100940+1013466504
1151+1015969410+1018501319+1017524575+1016543670+1018972985+1022991497
1140+1025111109+1023012115+1018706567+1016268495+1015869674+1016073121
1128+1017420491+1019391182+1021254746+1023905953+1024112443+1018881384
1117+1015570528+1019646608+1024456489+1026416560+1029662893+1031264385
1105+1027626809+1024859781+1024404758+1020577707+1016966897+1020502812
1094+1027731513+1032797566+1035572170+1037768229+1040296474+1042315976
1082+1040834590+1035138199+1032563316+1036765216+1039669800+1039239804
1070+1042050924+1048529927+1052416658+1050419450+1050411501+1055927049
1059+1058120004+1056345494+1056192723+1056389587+1055562137+1053308322
1047+1049537722+1047232984+1049025254+1053669260+1057561953+1059049674
1036+1058993161+1060369099+1066849716+1073741823+1071178242+1061708396
1024+1054645259+1051544246+1048792495+1045609631+1045336878+1047784700
1013+1049365326+1050198863+1049741293+1046316727+1043784570+1045153676
1001+1047349984+1049452269+1053657958+1056462246+1053027247+1045884247
989+1040828131+1040873093+1043854870+1045518217+1045215158+1044429067
978+1042891167+1040526252+1040522774+1044381000+1048954334+1052535273
966+1055189150+1056097085+1056615763+1058014554+1057616479+1053763656
955+1050011190+1050577189+1055741488+1060952611+1061605803+1059671194
943+1058866597+1059104448+1059508237+1058522799+1056064171+1055285782
932+1056020451+1055782972+1055792412+1056472059+1055667835+1054420946
920+1056260787+1060316312+1061193444+1058804743+1060242783+1067338709
908+1071722755+1068783953+1064153982+1060912493+1057873830+1055238460
897+1055445384+1059814526+1061784533+1057995178+1058183596+1064494675
885+1066430153+1061164504+1056798095+1058072061+1061267470+1061218285
874+1058225453+1054432373+1048812120+1041335444+1037254768+1039452690
862+1042387767+1040923955+1037926279+1037715132+1039999004+1040734729
851+1036330065+1028607030+1024270307+1025462421+1023983146+1014586518
839+1005381723+1003451958+1007459167+1013592074+1016285324+1012479326
827+1007345955+1004363867+1001812645+999935605+998004411+992352548+985388278
814+985308850+992295352+999033321+1003902572+1006528938+1002069748+991765620
800+982481583+976485860+973487688+975631830+980513625+980026619+973316844
787+966480692+962894784+962044790+960692142+956642020+953910763+956004540
773+958392185+956424724+952108742+947107586+940784522+937219978+940235352
760+942073392+937259847+933883473+935522227+938036374+938510276+935557687
746+929239777+922270167+918048394+914314248+910408638+911742781+916875531
733+920386792+921998594+922077774+919567042+915099655+910792182+908599289
719+911242609+917097050+919321801+917317451+915617091+912745359+907277878
706+906395219+912017707+913756384+906060488+897910376+899025856+906424655
692+912673445+915105990+909988641+899637377+893045658+889828328+885700950
679+884883871+890531822+898029860+901118702+896319440+888289186+887718528
665+890557035+889259223+889702571+890478041+883915635+881280699+891627678
652+897254327+887422238+880532305+881870049+876582726+870736421+885004908
638+908987242+904634434+882172115+881226111+908737219+945408221+962249666
625+969502152+1008441625+1028284099+936698257+841898686+821897354+857108643
611+901356864+938734279+945801452+924757113+921537733+926916781+923590150
##END=
