##TITLE=Sample description
##JCAMP-DX=4.24
##DATA TYPE=INFRARED SPECTRUM
##DATE=13/9/2023
##SAMPLING PROCEDURE=Instrument type and / or accessory
##ORIGIN=Default
##XUNITS=1/CM
##YUNITS=ABSORBANCE
##RESOLUTION=4
##FIRSTX=4397.6552
##LASTX=599.8556
##DELTAX=-1.9287962
##MAXY=1.6854963
##MINY=0.29925537
##XFACTOR=1
##YFACTOR=1.5697408e-009
##NPOINTS=1970
##FIRSTY=0.32992777
##XYDATA=(X++(Y..Y))
4398+210179780+210241843+209282316+207502558+205617411+204688393+205035885
4384+205830827+206444135+206434281+205798362+205071844+204549647+204461972
4371+204846182+205390022+205741007+205644200+205153956+204863003+205567593
4357+207098527+208033487+207471725+206074848+204806084+204056480+203822350
4344+203859277+203708912+203169002+202598754+202148930+201885316+202169188
4330+202907230+203329259+202774464+201627588+201027266+201513542+202266697
4317+201915256+200141517+198133590+197129238+197194226+197773511+198171201
4303+198179630+197993667+197388675+196804093+197244784+198406488+198664729
4290+197702183+197428317+198326274+198781680+198434625+197803736+196743263
4276+195654843+195337310+195750036+196375457+196500856+195836971+195037017
4263+194514232+194012217+193796371+194322611+194798008+194219045+192807264
4249+192026504+192996834+194198901+193887046+193105583+193319113+193977170
4236+194023893+193866294+193551135+192401923+191632289+192306939+193135219
4222+193125575+192555782+191894839+191928918+192507312+192585247+192734986
4209+193426115+193260638+192158624+191738228+192206714+192575261+192859303
4195+193343415+193513278+193457100+193412522+192563224+191127312+190639992
4182+191136350+191587692+191937500+192250495+192059311+191351968+190910213
4168+191563068+192675751+192807720+192601746+193223255+193308899+192080461
4155+191119604+190927053+191093309+191855824+192521741+192374110+192277587
4141+192643875+192683839+192042300+191418265+191479475+191826188+191961042
4128+191967972+191818480+191389749+190941330+190828557+191124351+191720856
4114+192086897+192056425+192126254+192099902+191935772+192268854+192769900
4101+192337278+191251971+191373478+193092388+194772605+195483594+195472107
4087+195117876+194691366+194254928+194090532+194605476+195193552+195201564
4074+195194767+195446971+195475392+195401823+195867784+196739010+197197073
4060+197274515+197479844+197455447+197060833+196831489+196783000+196725606
4047+196953205+197864832+198903889+199063558+198754227+198714566+198996634
4033+199710451+200262094+199707109+198226430+197223577+197956778+199853430
4020+201276945+201327256+200540972+200096787+200171950+200296495+200650784
4006+201565278+202502535+202738620+202438972+202077905+201933027+202248889
3993+202827453+203213485+203548921+203981658+204245917+204550388+204869971
3979+204763861+204549381+204655890+205128781+206051249+207099002+207587024
3966+207479358+207216029+207084573+207045102+206919190+206808239+206375066
3952+205356265+204892620+205899991+206575571+205797071+206439388+209212013
3939+211310044+211706784+210306394+208636904+209392850+211115082+210621800
3925+209240529+209791507+210122026+208652984+209145336+213503819+217902438
3912+219468913+218450758+213878992+205489297+198812113+198545652+203700255
3898+211794402+216762662+214270985+209811252+211340117+213509876+211677698
3885+210710710+210621497+211764139+217060203+219108644+215184739+210421465
3871+207064562+208312157+211387277+211600579+214282775+220459520+222930787
3858+217630490+203997169+194784490+206568072+221549383+227650622+225391859
3844+219156412+212888898+208161241+208142578+213352562+218033799+221271036
3831+225009548+227342601+227437434+224491699+216466526+212012641+215851662
3817+219469179+225364178+233529806+236344465+231573293+225169615+222924978
3804+220130729+219247846+225017636+230064990+235004524+241743335+245753453
3790+246591018+246191392+245441294+245881473+245961155+244815892+247085723
3777+252423574+254974656+252460994+248793090+249965976+254586896+259493643
3763+262380864+260997049+260531562+264779474+266974578+263092232+261686526
3750+274295522+290734843+308761923+339353951+367984283+380769427+380839787
3736+378849954+386851130+402167800+415312985+422813664+427862973+434942365
3723+445706577+460345009+476591096+490305428+497965813+501932987+513694811
3709+536493138+559841703+577083389+590446565+606418464+624135244+638615603
3696+648299502+649351527+642122605+637385342+642062459+650207469+655018852
3682+653145970+645617457+635731249+628001110+629688124+632019848+628485583
3669+631239658+638915574+641345263+639446560+635966707+630205252+622131324
3655+614614924+604471424+588112867+578645137+586621707+596814038+599730326
3642+597221733+592784896+588895184+585428544+579748916+570326486+559222623
3628+557263433+563619856+565513698+559315386+549931572+546047366+545714322
3615+542979954+540035416+536931703+533423144+534652189+537963527+536847825
3601+533046243+529651863+525298183+521664433+521599464+520706424+514928527
3588+510762272+514245809+519332253+521424950+521264332+519982773+518099373
3574+516371616+513615869+507334895+499822026+498668999+503292349+506425831
3561+507083830+508092151+509393797+508196305+505216682+503919174+502763375
3547+500429790+500178574+502338441+503987180+503863547+502839051+502163319
3534+501653938+500243239+498073347+496279483+495292730+495176615+495125772
3520+494212265+493485234+493467843+492700184+490892611+490032568+490741753
3507+490140102+487040756+484947262+485449011+485949166+485191910+483737506
3493+482186086+480510198+478720700+478021616+477965760+476786837+475295449
3480+474803269+474175038+472392375+471155318+471570493+471445265+469846419
3466+468200148+466291004+464194852+463323835+462850033+461655654+460888298
3453+461282893+461303056+459222852+455992620+453739914+453237975+453867079
3439+453971195+452811295+450718674+448070994+445889217+444994544+444989266
3426+444582407+442751369+439983244+438229515+438616212+439323915+438635729
3412+437630940+437107661+436391642+435469326+435145509+435525903+435602604
3399+434864752+433687119+432243119+431102926+430823763+430703015+430391425
3385+430581318+431053525+430557244+428851245+427000804+425429449+423985374
3372+423222688+423073993+422508491+421191239+419780957+419291815+419803930
3358+420245761+420059247+419777388+419833016+419626150+418539989+416920221
3345+415703137+415413760+415120699+413811649+412030353+410748565+409877890
3331+408633466+406737346+404314112+401820062+399879591+398338424+396482856
3318+393439973+389511834+386709802+385324847+383409855+380754124+378710221
3304+377347251+376041770+374634299+373161821+371823836+371134738+371373538
3291+371824899+371789890+371514980+371438354+371523144+371030660+369670462
3277+368187201+367317209+367461309+368096298+368291051+367765608+366352669
3264+364302386+361908466+359346486+357584783+356722879+355765212+354817114
3250+354186757+353236153+351904510+350690424+349642652+348977666+348901230
3237+349051747+348852020+347749380+345669745+343455086+342480256+342994460
3223+343360576+342607421+341782995+341388210+340909775+340330300+339680236
3210+339260315+339550603+339989928+339797263+339092749+338659272+338902818
3196+339312145+339231229+338449140+337396204+336619393+336169740+336215913
3183+336721801+336894151+336589851+336598775+336837422+336295196+335424977
3169+335803700+336642176+336283653+335597403+335572266+335659638+335345466
3156+334919203+334958579+335069530+334736942+334518495+334602525+334357953
3142+333697220+333153893+332794459+332222843+331297186+330516654+330411550
3129+330504655+330270602+329816203+329341072+329271888+329431670+329030886
3115+328086851+327265272+327035358+327037332+326430897+325245480+324063215
3102+323047035+322521592+322867774+323405443+323477854+323874005+325079053
3088+326216019+326615664+326511510+326730451+327793069+329209274+330608696
3075+331955679+332778967+332943837+332952722+332874730+332366260+331546542
3061+330838458+330637630+330731912+330228036+329239195+328702703+328693704
3047+328767102+328973246+329810773+331365116+332925953+334014809+334878612
3034+335469289+335706950+335968114+335953837+335385867+334995145+335261360
3020+336019071+336907289+337546493+338229212+339663035+341709521+343753045
3007+346038368+349255196+353290907+357739591+362961402+369218569+376296518
2993+384525177+394052788+404404217+415313934+425857534+434560300+440974895
2980+445662264+449607832+452938991+455010538+456354521+457906776+459986563
2966+462757231+465892460+469010335+472219645+475618544+479512016+484252431
2953+489041069+492907619+496138003+499196530+501860044+503051651+501727298
2939+498259671+493795685+489453700+485640499+481803453+477664005+473644470
2926+470109179+466782348+463510956+460419508+456677579+451798873+446661434
2912+441868922+437606525+433772478+429798470+425886278+422891315+420818781
2899+419102947+417991915+418309961+419976888+422024475+424138739+427086960
2885+431373317+436345128+441016777+444910325+447824410+449646639+450475508
2872+450603280+450179334+448959971+446746109+443651510+439942501+435711847
2858+430414663+423594196+415631068+406985942+397941854+388854214+379937938
2845+371638386+364518404+358197673+352059735+346420736+341601152+337413063
2831+333607532+329979782+326665140+323828668+321314266+318994199+316862430
2818+315141774+313848253+312605026+311664920+311378201+311279439+311133592
2804+311090343+311054024+310853480+310331910+309671063+309152379+308561986
2791+307667826+306535929+305306485+304031266+302648438+301131667+299613928
2777+298362403+297353551+296161774+294623853+293062846+291807828+291049224
2764+290675817+290074376+289069264+288205974+287693631+287354588+287067660
2750+286746824+286250638+285465207+284679454+284247629+283932014+283429544
2737+283008255+282854435+282586929+282099115+281769318+281559054+281163699
2723+280641389+280120826+279660940+279321099+279046948+278916803+278938237
2710+278822179+278609655+278484598+278285592+277989380+277651457+277074335
2696+276310814+275666351+275059100+274244508+273324034+272564651+272030399
2683+271498634+270903192+270354701+269717984+269003882+268322606+267519443
2669+266720191+266165644+265658028+265000826+264265916+263571654+263001405
2656+262585376+262272172+261949988+261646106+261454865+261221267+260792670
2642+260318715+260056659+259996930+259832705+259548189+259466475+259684201
2629+260049064+260312279+260294091+260166812+260254374+260594195+260994030
2615+261382758+261751552+262051769+262447693+263112509+263832914+264373165
2602+264828608+265227874+265471628+265768125+266252844+266634908+266764807
2588+266739898+266660121+266676335+266756871+266759339+266741911+266619758
2575+266233536+265763075+265404875+265218400+265170139+265005743+264561824
2561+264047146+263689174+263395203+263113059+262963776+262883278+262756359
2548+262602406+262523521+262564321+262652509+262813544+263054166+263274569
2534+263404695+263429623+263489257+263612777+263649874+263720918+264056563
2521+264559660+264954330+265221798+265513624+265787225+266069121+266561529
2507+267145751+267497819+267587772+267595442+267704191+268044487+268556393
2494+269029835+269310991+269421753+269564600+269882284+270203405+270319084
2480+270299718+270288688+270324343+270346081+270255938+270051901+269903738
2467+270034016+270331652+270506547+270563028+270605746+270668607+270724064
2453+270682030+270644248+270803936+271039204+271097983+271063372+271074327
2440+271029825+271033394+271260119+271484566+271488838+271386829+271299780
2426+271193936+271108577+271210833+271489179+271746775+271926814+272067497
2413+272172809+272436822+272964429+273374478+273483227+273613752+273884789
2399+274149125+274439413+274805530+275112316+275321916+275423982+275250835
2386+274620877+273218284+270679220+266903610+262061623+256726373+251564518
2372+246494628+241150323+235875902+231379318+228065854+225754957+224634034
2359+225824121+229665497+235421180+242864315+250620217+254806027+253151212
2345+248024632+244461072+243983985+245207791+247107101+248732583+249679086
2332+250705519+252887447+256006538+258922483+261252176+263861487+267495066
2318+271467954+274752275+277261627+279584732+282189714+284898091+287292524
2305+289402479+291538576+293635961+295339113+296728643+298117376+299562135
2291+301046669+302463215+303657556+304665344+305509421+306138069+306632375
2278+307065245+307506164+307991548+308298809+308451377+308781117+309328070
2264+309930841+310427730+310799922+311187777+311638549+312112257+312563428
2251+313004120+313410296+313621073+313617428+313678656+314021420+314397865
2237+314534997+314670725+314964316+315167347+315228253+315334249+315500619
2224+315693759+315980611+316277050+316406626+316477784+316679334+316962066
2210+317307621+317781746+318348426+318973543+319597368+320135873+320673201
2197+321302077+321897462+322353912+322793996+323366675+324018409+324623363
2183+325265453+326004711+326701517+327388830+328129872+328806364+329464553
2170+330250287+331130531+332024901+332935028+333867292+334802784+335719480
2156+336626569+337589590+338624186+339705563+340861932+342090560+343323593
2143+344554271+345837539+347135920+348392571+349665283+350974030+352302825
2129+353753888+355335570+356849740+358250832+359683631+361148780+362617689
2116+364189840+365870247+367655986+369577851+371432735+373183540+375174930
2102+377414270+379614804+381868384+384460361+387388761+390341463+393071996
2089+395798467+398983817+402677599+406485522+410240323+414202484+418640498
2075+423463614+428315929+433131869+438104325+443180062+448331589+453897114
2062+460014054+466341771+472677196+479098626+485660320+492469699+499505386
2048+506412807+512992272+519477872+526222739+533364782+540726412+547993836
2035+555001917+561865292+568528900+574805888+581190562+588047785+594680599
2021+600394363+605320456+610152381+615435212+621067604+626498370+631221584
2008+635413394+639515668+643624966+647613441+651044578+654075348+656949602
1994+658623364+659335320+660960556+663550179+666153699+668491878+670501532
1981+672181977+673270302+673770836+674260965+674887943+675066558+674549925
1967+674381865+675203710+675977483+676007176+675373440+674458870+674146673
1954+674579770+675138476+675406323+675053724+673849132+672045357+671339628
1940+672944511+675379667+677332137+678740330+680056405+682032189+684657580
1927+686957181+688473363+690644242+694106818+697790766+702896955+710084716
1913+716883577+722306066+727804572+734726915+742403210+749345071+755769082
1900+762348168+768634724+774904725+781456927+786616580+790615155+796389179
1886+803624327+809981662+814903768+818359966+820876608+823378594+825739252
1873+826251633+823257163+820112859+822431141+827522750+830051771+829184514
1859+826178880+822798017+820519909+818788203+815426553+809610381+802102297
1846+793280872+786903869+786632224+787107849+784258200+780061037+775652223
1832+768604347+759566791+753948069+751422237+749590515+749424658+749216653
1819+747471125+745059207+741912093+737574361+733773691+732679062+732821833
1805+731417438+727644790+723319664+721620765+721863475+719663587+714246339
1792+712635381+718508053+723859384+724628449+723692539+722780627+722453773
1778+723368570+722596848+717216811+711478860+713318631+720242341+726253988
1765+728427448+726700679+725874050+727663016+729671986+731215508+729220966
1751+723266352+720840385+725106048+730291901+733043812+734050272+735379181
1738+736201405+732141545+728269033+734854725+744550699+751988613+757331134
1724+760496853+761463215+757467602+748993307+747426699+757589261+769245678
1711+776522138+778041890+775806765+775130577+774714718+770654858+770335142
1697+777452808+789281537+803229733+811802828+814744290+813823037+807918393
1684+807533443+821798165+836241654+842968142+844406181+847271169+851041995
1670+854535024+865185816+878507566+884715371+888855730+898537958+907919532
1657+909101113+900027940+895542653+909412400+918901735+922049532+933113525
1643+948921009+958022964+956692460+947615718+944974302+959229607+973359759
1630+978271689+978788931+978732506+978994430+983614970+989274246+989697394
1616+991243878+999231232+1005490753+1007594423+1009121997+1012192788+1015549274
1603+1018600776+1023005110+1028147372+1030940975+1030960872+1031277854
1591+1033503563+1036147940+1038306592+1040324371+1040662921+1038045655
1580+1033098184+1025581291+1021698907+1026781858+1030146546+1028691572
1568+1030682241+1036369539+1040367051+1037365594+1022474199+1015892760
1557+1036513525+1056816776+1068292755+1072854137+1072161697+1065532946
1545+1052188414+1036655840+1027157392+1036670345+1053065316+1056910185
1533+1054165033+1057644544+1061851201+1059330305+1054548464+1049323577
1522+1043920074+1045728254+1052788204+1060694528+1066134103+1064110324
1510+1054076029+1037996293+1033054518+1050905449+1066108738+1069035012
1499+1064679586+1062584193+1066890182+1068940541+1063967249+1060277834
1487+1064341795+1070228138+1073451117+1073741823+1070904173+1065289020
1476+1058617438+1052348044+1051970536+1056991291+1056836218+1050430204
1464+1046366623+1043868358+1033629854+1016605096+1011919169+1021153871
1452+1024991677+1019892094+1012541742+1008371234+1005283583+1000268828
1441+992957585+980618146+965195612+958325138+956923248+951339155+945143577
1427+942259679+939393323+937335598+937683792+940136568+948075774+959244568
1414+968362167+974017038+976849523+977794166+977952353+980526712+984072369
1400+985070551+986759425+992869417+1004220319+1016126965+1019498335+1014705102
1387+1011294926+1014216643+1019880247+1024729373+1025920828+1023879734
1375+1024692617+1031080101+1036788587+1037587725+1036373260+1035431731
1364+1034920261+1037027880+1040943906+1041523572+1038380711+1035823364
1352+1035413353+1034978964+1033300190+1031548284+1029210636+1023687221
1341+1016485867+1012746558+1013215500+1013617689+1010782697+1005750627
1329+1001694715+1000204733+1001370746+1005056820+1010409746+1014549193
1317+1015725156+1017801031+1022984985+1027031176+1028961319+1032771178
1306+1037803932+1039896514+1039096085+1038458096+1039259816+1040521365
1294+1041084551+1041368498+1042290738+1044181543+1047500741+1052351461
1283+1058300000+1064081011+1066953821+1066214905+1064501198+1062950006
1271+1061093679+1058866224+1055409343+1051020274+1047698570+1045062774
1260+1041125028+1036824659+1034116795+1032055652+1029732358+1028531790
1248+1028157244+1025985834+1021602081+1017928386+1017081708+1017281132
1236+1015949564+1013505522+1011571203+1011173495+1012421374+1013539316
1225+1012931704+1011492071+1010549175+1010245103+1010396836+1010140531
1213+1009171435+1009152070+1010113344+1010697642+1010977336+1010453336
1202+1008988946+1008068225+1008104450+1007990385+1007072246+1005467287
1190+1003065772+1000982379+1000804978+1001583080+1001954133+1001874394
1178+1001212407+999956098+998384402+996974691+996304123+995132033+991421582
1165+986760641+984269666+983629019+982389190+979729776+976891671+974466842
1151+972339402+971001987+969640727+966846288+963579034+961335327+959343140
1138+956626770+954045956+952489525+951534098+949393141+945496783+942846103
1124+943033604+942919919+939890667+934905225+929418870+924652369+921799987
1111+919683027+916753259+915045855+915722043+914525804+909343369+904761027
1097+902836200+900241793+896561795+895857660+898592940+900475011+900901350
1084+901555666+901156363+901009187+903466443+905957418+906764681+908517879
1070+912176006+915292439+916884791+917401501+916886310+917489593+920185687
1057+922343883+923406844+925491528+928129602+928027308+926209940+928062090
1043+932681263+933898310+931708218+930255675+930340426+930531117+929201752
1030+927286266+926514771+925064430+923615153+923656845+921052565+915071068
1016+910184275+907882700+907897508+909168854+908623058+905675749+902706643
1003+901286831+901430893+900984278+899077450+898714827+901156894+904180298
989+907901685+914320457+920937589+924798254+928058217+932237154+936372501
976+939717292+941095867+939569508+936631084+935287442+935792912+935576401
962+933923447+932459209+931842711+931219076+930644954+930862224+930573037
949+928865556+928205089+929818097+931595596+931880910+929787948+926218066
935+924362954+923752380+921532671+918452614+915701387+912962993+910414607
922+908152901+905858997+903447002+901452689+899544797+897042508+895199243
908+895458965+896633864+896086777+894673876+894788700+894795991+893433743
895+892647363+892945663+893811250+895955473+898272616+898965891+899775357
881+902310909+905511182+908027217+909539603+910949694+912730686+914948421
868+917525666+919118246+919812128+922368564+928596570+937098431+944013560
854+947970291+952780762+960657621+969715378+978984633+988364612+996356371
841+1003068810+1011155269+1019128497+1022891273+1024048401+1025837216
829+1028463595+1031686650+1033841733+1033445847+1034756226+1040904113
818+1046524734+1046631280+1044330465+1045583508+1049121343+1048069698
806+1042009525+1035352599+1030238967+1027614487+1027926381+1028283688
795+1023326572+1014124753+1007693907+1006479746+1006176282+1002383130+995569004
781+986806510+976917263+970410779+968601080+966439543+961863808+956896061
768+952780155+949640256+946658620+943432527+939886642+937208699+938604437
754+942743429+943680630+941132547+939279486+938390660+935856855+930638803
741+926051677+925623288+926713056+925966242+923657149+919910853+915224091
727+911717848+910768497+910896003+910354916+910339196+910401621+907659430
714+904140201+904349421+908109007+912932009+917773161+922101097+924607411
700+925210922+925930397+927119042+928068165+928730000+927400939+923816323
687+922009662+923734610+925234844+925367515+927673798+930521700+929668795
673+927491385+924433124+919127207+920251377+927263863+930699025+931813853
660+933078440+935445401+936444646+933790548+930589896+929897001+931813778
646+934600090+939627528+946347866+947374830+942370250+941380574+953790184
633+969894145+964731227+943835400+933403472+940513999+952723122+953429611
619+941448770+929969829+930451074+939924310+946612448+949962782+959519706
606+973760429+977407241+974812986+982603422
##END=
