##TITLE=Sample description
##JCAMP-DX=4.24
##DATA TYPE=INFRARED SPECTRUM
##DATE=13/9/2023
##SAMPLING PROCEDURE=Instrument type and / or accessory
##ORIGIN=Default
##XUNITS=1/CM
##YUNITS=ABSORBANCE
##RESOLUTION=4
##FIRSTX=4397.6552
##LASTX=599.8556
##DELTAX=-1.9287962
##MAXY=1.5737673
##MINY=0.21853977
##XFACTOR=1
##YFACTOR=1.465685e-009
##NPOINTS=1970
##FIRSTY=0.24039623
##XYDATA=(X++(Y..Y))
4398+164016298+164235350+164427399+163843953+162511100+161781518+161525460
4384+161041709+161019108+161560281+162748594+164993053+167052427+167182906
4371+165661329+164461365+164162871+163602453+162559859+161595986+160884938
4357+160210257+159192175+157890402+156859876+157148671+158518703+158566263
4344+157188565+156843030+157451414+157390668+156775360+156017850+154718182
4330+153050143+151792677+151271075+151238440+151443705+151977151+152643761
4317+152808919+152503989+152179509+151711059+151406495+152047830+152940719
4303+152894532+152211565+151677437+151520474+151554197+151385562+151282014
4290+152100473+153599653+154737407+155104912+154424964+153012140+152237724
4276+152352973+152335039+152057570+151904155+151577763+150772206+149732123
4263+149104188+149582276+151199898+152757983+152659814+151199308+150021406
4249+149829296+150805705+152164422+152539562+152278228+151927629+151358976
4236+150968606+151008286+151257330+151461436+151717392+152236036+153271218
4222+154826030+155680093+155176882+154591200+154674119+154701478+154718538
4209+155570252+156873824+157536489+156895357+155609729+155353305+155966773
4195+155807207+155249350+155805468+156736330+156646030+155870047+155203905
4182+155163411+155551088+155773769+155859047+155925049+155799043+155212933
4168+154862783+155655093+156558159+156667308+156512836+156212634+155923158
4155+155904746+155588796+155174503+155583631+156245930+156636981+157515698
4141+158372730+158073829+157162629+156725747+156827881+156743101+156422779
4128+156372393+156651845+157333633+158321439+159091514+159514713+160116469
4114+161045481+161872510+162394376+162306394+161847195+162137932+162989727
4101+163323144+163725033+164830569+165514970+165620866+165953083+166005319
4087+165684835+166269023+168047573+169573084+170090924+169931389+169155071
4074+168622052+169004136+169685040+170684608+171896864+172311847+172149404
4060+172470976+172803041+172516849+172756274+173766233+174179793+173767412
4047+173460358+173811576+174140936+173648381+172781142+172348529+172931182
4033+174014524+174356328+174339207+174662569+174846098+174866268+174836887
4020+174537051+174565131+175383773+176302659+176649221+176623316+176967458
4006+177789821+178208221+177916620+177428030+176859691+176189808+175983872
3993+176843547+178255008+179204943+179616694+179865940+180165837+180522342
3979+180754305+180884276+180898469+180736839+180854406+181758916+183074811
3966+183585423+183054112+183076377+183815413+183767711+183358258+183620945
3952+184252398+184895014+185694563+185937303+185080576+185173134+186981889
3939+188360878+188054149+186044785+184384728+185818861+188366246+188372692
3925+187474689+188690564+189762763+188973320+189105385+191761920+194391798
3912+195178598+194563147+191833859+186870930+183705674+185136330+189272586
3898+194135618+196778509+195154340+193054167+194836875+195951937+194438402
3885+194349626+194337792+194861905+198616422+199869121+197338958+195064324
3871+194151640+196395632+198951679+198782749+200515682+204980952+206430762
3858+201790808+191921842+187072027+196849838+207228644+210983181+209282538
3844+205863623+203120285+200698255+200480017+203312476+205893859+208189883
3831+211389848+213705677+214050572+211537855+205523243+203391593+207438321
3817+210166613+213880971+218994063+220217298+216718351+213310742+213154623
3804+212031407+212137750+216589438+219781249+222541261+226480913+228973764
3790+230202693+231036646+231904393+233781265+234682481+234450559+237450911
3777+242521058+244685424+243692057+243331465+246265551+250861544+256197489
3763+260458592+261482072+263393247+268875511+272741963+272964125+279463241
3750+302862217+330643585+362210478+406332803+441978469+459709537+466319226
3736+469228688+476540081+487333240+496389969+500982872+503050735+506625871
3723+513348410+523569997+535636879+545663551+551122452+555240895+565527550
3709+581673266+597358553+609862724+620194518+631956969+645315833+656155840
3696+663134904+667092267+668561841+671095787+680908470+694482421+703500597
3682+707314325+709627450+709606954+707626809+712870054+722660086+729317558
3669+735625540+742709525+747815317+751394397+754945255+756867816+755933620
3655+756742725+757714010+753241969+750137307+759902694+774227394+781721869
3642+784105185+789126308+797595321+804459543+805768362+802004166+796716269
3628+801058908+815594912+826355822+828040076+825059610+825157698+830592321
3615+837816200+845415189+852368227+855353898+858276861+864831447+868618822
3601+867532126+867335380+870967653+875565272+877616178+877588525+875639042
3588+873134865+874956573+880010392+884241361+888102913+893190892+898018767
3574+904043871+912493446+916980290+914127192+911163643+912189503+913834554
3561+914429834+915529869+918739696+920936432+919080239+917795902+920191011
3547+922289334+923080546+926147876+931847077+936473245+935941324+934783379
3534+938560507+938888931+930804870+923291037+921951962+926936242+933835274
3520+934982239+932803234+932783551+933202418+932929951+931624874+929739319
3507+930321179+931642279+931719709+933272365+936391749+938298206+937604025
3493+937081782+937989627+936157264+931950940+930249362+931466518+932133940
3480+929545420+925952188+924929094+924963010+923515111+923393436+925922826
3466+926472885+923657445+921503571+920620126+917837789+914894248+915627226
3453+916650320+914621049+911520291+908543647+907896314+909848237+908984312
3439+904682909+901922450+901084227+900512452+902008745+904680306+903559042
3426+899305382+896747199+896815357+898280417+901106024+902985316+899479761
3412+893354454+890097617+888633044+887473473+887549845+888035406+885884216
3399+881424050+878969730+878825932+879143702+879412266+878864972+877133545
3385+873361297+869638663+870115440+873302331+875310455+874737541+871280786
3372+866810209+863401035+860610076+858700121+859516791+862376070+862961996
3358+859623744+855480128+853117308+853548783+856037181+857606348+856793989
3345+854887532+853319747+853536827+855584804+855589196+851404750+847583133
3331+847830875+848392727+846387775+845503924+844560862+838843930+832256811
3318+830659015+832268361+832242903+831806956+835062980+839484187+839270280
3304+834723168+830597689+828788344+828386069+828663986+828534177+827777450
3291+827537923+828052439+829165325+829805095+827536947+824483688+825832197
3277+830805903+833512357+831740913+829997123+830999884+831212571+829734904
3264+829871381+830930181+830421602+828736779+825870180+821568777+818088435
3250+817483558+818345693+817872088+817398727+820802127+826553056+829062276
3237+825470588+818872002+817287056+820907698+819973745+814853151+813671945
3223+815749039+817312513+817404257+815298777+813028922+813147018+813007125
3210+810565168+809511329+811043978+810368096+807451315+808054646+812303671
3196+816220611+816811011+813438192+810183144+809047972+808666193+809412672
3183+810480499+809557039+807027567+804599599+801526901+797293493+793327509
3169+790089541+787754537+787969746+791132968+793603067+792477411+788542578
3156+783514622+779304068+777217539+777918064+779245345+777477318+773541997
3142+770693454+769379186+767628482+764916416+762420779+760694232+760036081
3129+759042918+756056921+752962670+751993825+751105338+747399865+742537098
3115+738810804+735763319+733691917+732833605+731116411+727307970+722860329
3102+719404956+716108184+712238662+710159046+710343591+709321636+705836008
3088+702565588+701043269+699897198+698305990+696274035+693397188+690392078
3075+688336617+686277579+683065800+679570290+676115202+672691631+669891034
3061+666770146+663319206+661169114+659890633+657969089+654707412+649958552
3047+645754424+644000589+642775381+640628462+638415458+636509652+634540324
3034+631082471+626305673+622403455+619407779+616769036+615460461+614904181
3020+613261488+611330916+611152267+612426234+613838021+615222805+616730972
3007+618319822+620295616+623097229+627573378+634872897+645073663+656559335
2993+667018376+675139200+680477484+682738839+681968205+679176717+676019066
2980+672158409+666924151+662300423+659170994+656515008+655541975+657608659
2966+661181436+665111552+669289410+672811557+675233100+676850213+678565821
2953+681126566+683052787+682430504+680120958+677740611+675113011+671406603
2939+665400530+657462625+651123817+647610414+644544710+641275998+638757344
2926+636812253+634255331+629936116+624016623+617456060+611291265+606383643
2912+602216074+597659527+592762966+589089010+587837735+587835661+587942126
2899+589104260+591626208+594112817+596174093+599115722+603232011+607063754
2885+609873053+612630015+616177416+620012372+623460993+625619422+624169774
2872+618437837+610392164+600704084+589522558+578111021+567050926+556168829
2858+545139560+533824647+522153778+509609590+496799483+485825073+477595709
2845+471052470+465260996+460238856+455894305+451782775+447981166+445037544
2831+442757725+440457736+438433467+437178776+436306149+435770201+435855561
2818+436049338+435801190+435063983+433939913+432642603+430956804+428436238
2804+425519456+422721909+419500899+415774402+412467219+409603995+406555250
2791+403394833+400210627+396869365+393781132+391258371+388788191+386104430
2777+383654258+381632063+380014055+378705725+377226919+375589838+374373415
2764+373418844+372259232+371150534+370363388+369621871+368586943+367366615
2750+366403016+365488909+364030478+362284085+360719310+359364578+358201265
2737+357208549+356495742+356057639+355505629+354633897+353703279+353001208
2723+352398527+351605566+350665351+349914439+349466088+348925464+348087933
2710+347280250+346545687+345475338+344022071+342619150+341339367+339858813
2696+338261341+336830197+335504909+334164044+332759862+331268145+329758575
2683+328210188+326552917+324883628+323361675+322103446+320989258+319638980
2669+318099540+316849851+315869680+314804191+313739556+312970385+312404284
2656+311796316+311170943+310640953+310419157+310463565+310177901+309505355
2642+309013043+308831812+308903771+309196450+309323432+309169671+309176645
2629+309505680+309983331+310513382+311101463+311902029+312935636+313921540
2615+314723569+315432818+316065755+316632202+317158532+317675426+318329612
2602+319034204+319421311+319362202+319015233+318656837+318515073+318392076
2588+317834433+316870143+315877570+314863300+313681403+312398794+310993453
2575+309469710+308074068+306926635+305868527+304688663+303441597+302289304
2561+301075808+299826526+298891801+298193614+297441218+296707061+296213306
2548+295991265+295823820+295553122+295257617+294933076+294563313+294392513
2534+294587551+294947390+295152615+295177036+295265750+295532687+296016987
2521+296817471+297766572+298578626+299253186+299898099+300629044+301550715
2507+302510186+303277730+303853225+304332808+304739618+305023960+305114525
2494+305038153+304965969+304970321+304938641+304877418+304851858+304671298
2480+304062476+303087837+302151485+301434754+300781422+300169835+299622359
2467+299099282+298616833+298086375+297442133+296795186+296186872+295450214
2453+294515876+293709129+293335035+293153560+292776111+292330749+292102060
2440+291951837+291676869+291319957+290941533+290483971+289969211+289654044
2426+289598107+289510632+289346400+289337189+289460999+289501279+289425395
2413+289346623+289373321+289574398+289876328+290121996+290277770+290462824
2399+290789968+291212333+291581078+291832358+291966985+291925790+291673961
2386+291133317+289966934+287782377+284479952+280416836+276331190+272570593
2372+268629111+264292002+260088707+256205683+252838680+250788567+250411810
2359+251513310+254392943+259153474+265195861+271054781+273948037+272346967
2345+268191984+265500740+265554542+266968952+268483443+269675385+270625889
2332+271536255+273050501+275465801+278236122+280863865+283494617+286423355
2318+289253151+291302064+292551082+293588735+294846598+296392504+298208111
2305+300064731+301746139+303371121+304905132+306026802+306803090+307681492
2291+308756598+309823714+310740119+311413337+311856381+312129316+312379762
2278+312757983+313212617+313689007+314172271+314628958+314998416+315238431
2264+315482431+315780437+315991823+316118032+316248878+316329642+316271570
2251+316135356+316021347+315913804+315830254+315828587+315908233+316099529
2237+316294994+316320492+316270553+316227080+316165287+316248918+316491536
2224+316605281+316642837+316899627+317259385+317497265+317677114+317939293
2210+318339982+318810578+319254354+319684669+320194752+320722708+321096862
2197+321519126+322184983+322809319+323283371+323786927+324359149+325002009
2183+325715243+326394743+326930914+327345857+327689186+327983309+328411387
2170+329173604+330142327+331041021+331847992+332545854+333028060+333568846
2156+334380636+335252449+336162653+337209516+338328889+339471279+340557284
2143+341541196+342451643+343338992+344372578+345602625+346819008+347859752
2129+348793379+349810169+350921998+352045580+353329104+354767975+356043365
2116+357193746+358573895+360101297+361502429+362972410+364692614+366497119
2102+368355630+370343502+372459637+374777805+377410936+380276600+383175814
2089+386154938+389363992+392768042+396352735+400198061+404215244+408268499
2075+412511546+417152435+422112640+427157716+432207754+437422898+442875089
2062+448440944+454239982+460464759+466765462+472776740+478817379+485228939
2048+491798246+498200046+504328891+510467496+517059495+523866743+530355732
2035+536528172+542556286+548543529+554602753+560607402+566114289+571042205
2021+575881548+580906169+586053156+591041136+595527817+599508075+603106066
2008+606569449+610030271+613100326+615772294+618573908+621412853+623675511
1994+625111738+626283551+627929334+629964176+632055382+633855008+635140402
1981+636271548+637333886+638048034+638228961+637993012+637747100+637319612
1967+636780248+636957515+637493096+637380530+636771017+636214940+635716488
1954+635039264+634165458+633342810+632761357+632137082+631048026+630547418
1940+631890601+633942279+635475700+636671384+638100047+640337613+643503885
1927+646849783+649718375+653027997+657309474+661799490+667570671+675250261
1913+682617653+688689605+695014667+702529557+710272750+717453684+724135719
1900+730717714+737453836+744294715+750984395+756518489+761076581+766723891
1886+773266683+778627374+782383273+785142431+787311351+788992352+789922156
1873+789577953+787109563+783734792+782997016+784098515+783704211+781081775
1859+777024128+772709630+768762108+764491612+759390863+753499959+746599055
1846+738632927+732054267+729295679+727103497+722937433+718023670+712938455
1832+706339625+699103383+694689170+692247132+689977683+688825350+687558744
1819+685043668+682538840+680496190+677855332+675010978+673749699+673558280
1805+672500009+669991237+667411948+666697922+666921467+665400774+662116406
1792+661155369+664592604+668115727+668987419+668261558+667564693+667778641
1778+668703768+668305275+665310454+662352598+664015299+668897179+673126115
1765+674507727+673443681+673593172+675730779+678119097+680423559+680349505
1751+677424875+676573801+680122300+684364045+686975420+688556462+690851937
1738+693520408+693643140+693939845+700371616+708932374+716230510+721595186
1724+725516274+728485353+728529273+725972311+728042493+737824228+748455655
1711+755760217+759216809+760643073+763029398+765270217+765674363+769535915
1697+778842663+791635609+805500124+816283563+824936390+830945065+833038670
1684+840765841+859371610+876780232+887891445+894179094+900199969+906640443
1670+912776568+922065423+931087992+934712619+936583127+941297379+945702076
1657+945712730+939812555+936934081+946723543+954144168+957807022+966228048
1643+976172451+981937288+983028539+980028309+978632382+985177208+992311945
1630+995398632+997239291+998975598+999144772+1001056191+1004071630+1003016328
1616+1001469283+1004840720+1008236637+1008608331+1007448515+1007875272
1605+1010640449+1013627259+1015893454+1017142980+1016608131+1015152180
1593+1014350395+1014300049+1013781630+1012066794+1009747732+1006865924
1582+1003412829+999526795+994337312+991326427+993479731+994232391+992396288
1568+994074198+999782020+1006111230+1009016463+1003967035+1002435688+1016238633
1555+1026577910+1028074284+1025546520+1023980525+1022790291+1018224472
1543+1011200104+1007575965+1016252460+1029747721+1037363301+1042642252
1531+1049960315+1055021292+1055680337+1054670500+1051497030+1048023114
1520+1050274425+1053391775+1054147689+1054985993+1054057327+1048805217
1508+1039072687+1035401781+1046579525+1056664554+1058219569+1054784937
1497+1054686442+1058926357+1059591584+1055083268+1053863753+1060933424
1485+1069126635+1072808196+1072635769+1072023084+1070635615+1065381471
1474+1059026560+1059822977+1065609612+1067513304+1064620271+1061919918
1462+1059002160+1049571378+1035302799+1032227172+1039188262+1041156533
1450+1036405111+1027784655+1020589731+1016376656+1011013851+1004087083
1439+995659632+984117107+975034107+969875286+963426272+957137159+954527330
1425+955036477+956729353+956841918+956556926+962048401+972800039+983127929
1412+990160104+994837919+998010902+999739971+1002432272+1005138888+1005828515
1398+1007330175+1012291763+1021436006+1031987157+1037976393+1038332390
1387+1036612024+1036084983+1037542398+1040671623+1044597591+1047244264
1375+1047799934+1050190163+1055419257+1058861453+1059307730+1057782564
1364+1056085378+1057826809+1060653799+1060018015+1057457637+1055268952
1352+1053507594+1052059858+1050564460+1048531123+1045048260+1038767280
1341+1031184070+1026130169+1024072025+1022172481+1019908075+1019566637
1329+1021721080+1024762709+1027379940+1028656225+1029015882+1030267279
1317+1032874343+1035804301+1039382080+1043601093+1046837271+1049230021
1306+1050799758+1050835951+1051554451+1054114993+1055889934+1055715636
1294+1054975582+1054508728+1055006082+1057406315+1061866970+1067620989
1283+1072495875+1073741823+1071977293+1070544929+1069691903+1067110947
1271+1062246390+1056395747+1050377230+1043246967+1034941352+1027638580
1260+1022880733+1020157119+1017989581+1015682719+1013096558+1010175546
1248+1007379789+1005487158+1005636568+1007271859+1008267706+1008556603
1236+1008725126+1008432081+1008159858+1008067219+1007484709+1006837376
1225+1006763606+1006787274+1006964906+1007780112+1008337003+1008047293
1213+1007433875+1006664298+1006339533+1007028428+1008505932+1010498603
1202+1012021491+1012212544+1011529912+1010671193+1009615565+1008153352
1190+1006815172+1005789719+1004744665+1003919862+1003410958+1002795670
1178+1001748501+1000186329+997830504+994916894+992435978+990160186+987512455
1165+985103926+983022602+981187068+979854744+977919576+974837117+972035097
1151+969917905+967817142+966108325+964826347+962782110+959649307+955809634
1138+951213966+946599347+943588950+942046867+939694702+936633960+934383218
1124+931342159+926450925+921135455+916231208+911995766+908495660+905528289
1111+903209064+901010051+897752807+894225129+891511355+888685748+886193771
1097+885852659+887467779+889371796+890454589+890498021+890244749+891127136
1084+893290932+895275876+895705724+894688405+894872137+898324825+902468035
1070+904264936+905031260+906457606+908141941+910385770+913510928+915469601
1057+914755330+913287586+913225935+914220400+915699612+917890899+919077799
1043+918430466+919331072+922987419+925101195+922804988+919365557+917625996
1030+916209817+914868628+914658625+915651382+917420955+918538639+917144014
1016+912844725+908608307+907189526+907220189+907275821+908050522+908881181
1003+908072808+906826453+907218399+908517214+909600901+910499799+912022200
989+914910027+917951900+920440867+923177414+925988544+928566816+930920038
976+933216083+935376463+936428756+937122449+939114713+941480054+942661179
962+943375450+945588534+949226500+951257560+950562647+949663180+949746303
949+950158826+950231050+949556633+949301408+949182011+947190967+944769994
935+944359341+946266774+950013971+953149378+953181992+951297820+949557365
922+948288562+947047739+945356327+943670202+943033198+943090701+942374560
908+940932923+940192057+939759281+938385721+936894227+936289431+936496181
895+937367995+938402882+939362699+940134879+939205481+935567597+931997544
881+931771356+933087413+932598761+931284168+931449112+932234631+932136136
868+932176966+932993391+934004285+935340025+937510247+941231499+945605126
854+949260742+953527416+959982123+968886515+979714931+990795238+999651236
841+1005374105+1010844514+1018254403+1025756198+1030958695+1032776173
829+1032909642+1034678320+1037378023+1039350441+1040857226+1040133927
818+1038957601+1041717165+1044740168+1043229073+1040203223+1039084156
806+1039675938+1040093830+1038893428+1036245942+1031067519+1024221028
795+1020569805+1020186073+1017564125+1011412547+1005690004+1001220891+995685089
781+989980113+984671476+977404735+968208925+958963096+951505709+947027486
768+943868005+940665092+938103250+936089107+934373296+932918239+931942075
754+931741750+930158268+926095335+922777009+921796534+920836799+918496915
741+916589808+916485863+915850893+913196411+910840180+909534045+907138530
727+903931387+902095121+900005745+896376888+893712972+891538195+889201403
714+889118605+891879634+895859444+898521490+900024533+902960753+907410672
700+912473113+916266507+916119456+913207473+911563641+913338176+916530678
687+918296103+919644612+922070303+923728367+924733243+927517126+930326547
673+929249122+921479821+910129569+911132248+922923166+928889140+930096618
660+930607555+930326791+928408215+925773173+924264436+922983515+921655746
646+922252978+923570336+923743251+925356501+928995769+930739884+931251879
633+932589001+932896035+930723617+926811558+926390819+931910680+935131974
619+930768758+926709565+928435544+930442692+931703686+938085926+951999159
606+966282623+967481804+957733659+951177691
##END=
