##TITLE=Sample description
##JCAMP-DX=4.24
##DATA TYPE=INFRARED SPECTRUM
##DATE=13/9/2023
##SAMPLING PROCEDURE=Instrument type and / or accessory
##ORIGIN=Default
##XUNITS=1/CM
##YUNITS=ABSORBANCE
##RESOLUTION=4
##FIRSTX=4397.6552
##LASTX=599.8556
##DELTAX=-1.9287962
##MAXY=1.8286523
##MINY=0.45934916
##XFACTOR=1
##YFACTOR=1.7030651e-009
##NPOINTS=1970
##FIRSTY=0.47674966
##XYDATA=(X++(Y..Y))
4398+279936245+277946058+275594179+273705558+272967283+273899292+275243687
4384+275684983+275191085+274760464+275304532+275976467+275798395+275293543
4371+275544534+276109304+275859450+275655094+276243558+277077974+277964782
4357+277874258+276225569+275152971+275468797+275798588+276065661+276321377
4344+276197623+276196135+276775150+277154935+275919770+273452974+271631322
4330+271308671+272004475+273052977+274398037+275703847+275795315+274513147
4317+273575714+273859971+273853584+272757730+272313442+273109937+273204275
4303+271860002+270424470+270468288+272022220+273163589+272823719+271731208
4290+270933943+271271188+272653627+273841177+273719067+272674363+271814784
4276+271721390+272300160+272710604+272456935+272148477+272317694+272963958
4263+274122599+275143574+274625615+272933789+272129875+272511306+272525182
4249+272327704+273586703+275477774+275539844+273954239+272744833+272486579
4236+272545324+272996122+273885730+274119659+273869561+274363301+274772206
4222+273745701+271894685+270579846+270144710+270340667+271347957+272914523
4209+274124314+274565505+274066339+272760810+271818984+272083817+273274937
4195+274650551+275341228+275277163+274570422+272888116+270883493+269719077
4182+270059944+271431446+272315192+272400010+272427484+272587130+272760862
4168+272972620+273485767+274107148+274240877+273879483+273428615+272965340
4155+272183125+271429066+271449540+271927986+272016392+271487566+270911106
4141+271181154+272079722+272165328+271099031+270101767+270161439+270927451
4128+271239899+271391530+272286231+273247586+273516321+273013183+272150926
4114+271777038+272150996+272468852+271950665+271354047+271316178+270970219
4101+270279314+270568471+271696944+272092024+272182600+272798135+272649917
4087+271900775+272674381+274647646+275550519+275228253+274595778+273683719
4074+272955908+272593394+272412137+272821882+273246203+272913928+272888746
4060+274059147+275232015+275048343+273966664+273290371+273380965+273447269
4047+272935469+272557206+273249493+274745904+275857228+275978777+275622283
4033+275378956+275192625+274749194+274433788+274936051+275588842+274880578
4020+273262057+272903953+274044833+275239120+275804257+275803698+275975225
4006+276677854+277313863+277736785+278053783+277949505+277273475+276785632
3993+277357891+278293820+278636175+278861267+279131665+279118768+279200297
3979+279261125+279018305+278984969+279516683+280495380+281181175+281047831
3966+280845067+281060518+281395593+281770321+282166539+282551924+282490152
3952+281612811+281242230+282365680+283119197+282245933+281449858+281687795
3939+282011863+282258777+282241383+281610973+281472729+282478270+283372410
3925+283508029+283955747+284631847+284525469+284725223+286369450+287828903
3912+287616708+286447514+285041347+283108277+281584707+281680673+282989772
3898+285231791+287057923+286611080+285286791+286043422+287017044+286428020
3885+285628971+284430046+284140959+286824273+288282781+286743706+285336349
3871+285068295+286157010+287304662+286697351+287067495+289666200+291408055
3858+289907042+283713960+278385621+283206010+289708530+292498974+292334884
3844+290604666+288272841+285714892+284657501+286721325+289390044+291213306
3831+293178487+294691873+295237743+294777724+292156042+290545273+292315373
3817+293439768+294832951+297418042+298202252+296082431+293427991+292910206
3804+292380225+292028210+294135187+295999975+297307272+299270405+300930697
3790+302113994+302839722+302941323+303563945+304259330+303911515+304657052
3777+307136517+308718342+308514266+308223954+309403822+311290974+313381396
3763+314820673+314582193+315077176+318055300+320772405+321408536+323292293
3750+331172580+340205156+351407530+373289893+397280002+414307345+425011376
3736+430526258+433387486+436147499+438637149+439809002+440721832+442922920
3723+447645121+455597749+464301690+471678488+477913918+484124113+493977928
3709+508413705+522924238+535052672+546655814+561541706+579304156+593549471
3696+600081302+600412668+596953000+593346760+593713404+594998897+592831443
3682+587463170+580728733+572008413+560944282+555309916+554726912+550473410
3669+545615345+544429317+542079626+536279403+528946912+521088184+512155949
3655+504463674+498239024+489595001+478844877+473215236+472691134+471389821
3642+467219336+461650032+455459225+448604359+442346145+437173374+430940709
3628+425857884+424362050+422111825+416462759+409222944+405126761+403424191
3615+401033796+398824449+396647790+393887287+392034224+390875356+388735375
3601+385828999+383002979+379728103+376495541+374824960+373545592+370670889
3588+367974013+367548397+367225921+365668665+363468767+361253085+359308256
3574+357739100+356103028+353264478+349480026+348322487+350137471+350706791
3561+349122796+347187977+345768440+344536844+342912881+341333716+340087981
3547+338627810+337349002+337169530+337483046+336821085+335278598+334026214
3534+333235214+332125168+330415913+329099551+328518192+327841777+326979450
3520+326223379+325469442+324840205+324516014+323979033+322882496+321806924
3507+320750846+319378556+318638409+319030777+319510815+319439838+318722895
3493+317126651+315052887+313783004+314001324+314649740+314574949+313942002
3480+313133432+312392620+311958394+311740739+311666087+311364785+310443276
3466+309278038+308276732+307744965+307882509+308172437+307951806+307185690
3453+306414604+305843395+305309913+305154380+305243136+305125191+305277925
3439+305469506+304989432+304469635+304275814+303909450+303515752+303437041
3426+303481314+303297327+302699169+302093835+302044977+302259308+302225324
3412+301977045+301686488+301649390+302169222+302999315+303581200+303421817
3399+302482983+301517726+301227169+301564904+301910723+302123234+302904574
3385+303805365+303773341+303292182+302950212+302658185+302469754+302295356
3372+302049142+301987965+302158337+302200686+302023278+301885490+301765130
3358+301643545+301797293+302019709+301733071+300793538+299678837+299254901
3345+299483301+299411834+298910481+298252160+297541447+297137984+296883546
3331+296486978+296103815+295571279+294742165+293737360+292764228+292107412
3318+291602752+290818314+289609327+288345586+287432196+286563709+285265774
3304+283557535+281888581+280774090+280654816+281559403+282401238+282631528
3291+283268045+284324001+284751279+284682788+285027470+286163100+287560255
3277+288488484+288818607+289002279+289485975+289719852+289313625+289348064
3264+290310801+290960075+290427644+289716807+289920621+290620345+291317497
3250+292000981+292363845+292434490+292686776+293017302+293102925+293117992
3237+293418349+294079505+294542534+294580052+294850381+295329789+295633926
3223+296035743+296440430+296655601+296894325+297105786+297337056+297713114
3210+298226121+299150815+300438688+301570713+302313731+302728917+302946678
3196+303120375+303424511+304187373+305449767+306639749+307497736+308172157
3183+308534146+308659650+308747426+308662275+308657480+309277653+310082617
3169+310312662+310494479+311140550+311795266+312551898+313648819+314511461
3156+314952442+315405882+315961027+316375094+316553131+316812645+317441287
3142+317975118+317882267+317498474+317205502+316981862+317065438+317265175
3129+316940389+316330506+315956267+315913814+316103156+316141444+315744317
3115+315017259+314504497+314407691+314081820+313528285+313227998+312997358
3102+312717756+312204153+311268855+310657467+310693935+310804670+311056379
3088+311582406+312064055+312388420+312561208+312976184+313737646+314130993
3075+314217579+314541910+314805378+314792394+314836422+315176992+315816869
3061+316350280+316464830+316459055+316391508+316115370+315873846+315721218
3047+315479834+315336130+315406197+315165722+314473348+313920687+313380801
3034+312418414+311533163+311127426+310762637+310093222+309342750+308908209
3020+308818928+308800169+308792504+308578209+307808383+306882044+306321438
3007+306124677+306360147+306928557+307264507+307379897+308040842+309647516
2993+312186724+315306836+318190709+320564234+322592079+324049485+324847554
2980+325245242+325582837+326035507+326300060+325809837+324399784+322956623
2966+322303412+321855677+321173137+320817763+320943512+321097925+320969446
2953+320597797+320179356+319930727+320042127+320393406+320513066+320009718
2939+319084184+318240162+317552862+317067468+316940389+316713284+316020560
2926+315444415+315320311+315111860+314657930+314241623+313722666+313017132
2912+312419254+312159635+312281150+312765529+313571158+314277427+314451264
2899+314407341+314504182+314629126+314744936+314879645+315053097+315351109
2885+315723423+316243500+316903116+317255620+317249355+317233396+317184958
2872+316948684+316591489+316336211+316308002+316231705+315731787+315137724
2858+314986285+314951497+314539740+313784299+312922112+312270370+312093103
2845+312360561+312769028+313172701+313638285+314034572+314233469+314490777
2831+314980651+315423906+315658781+315825513+316056573+316296172+316342475
2818+316338276+316578435+316998416+317384694+317640183+318002277+318809551
2804+319738935+320260097+320662264+321344419+322120580+322630192+322631557
2791+322444981+322590434+322988647+323324107+323456261+323262475+322880991
2777+322854043+323100677+323079538+322994736+322909025+322451490+321982581
2764+322048168+322454395+322713034+322699209+322547281+322426571+322610943
2750+323072083+323379999+323372615+323158179+322858522+322739143+322867307
2737+322972897+322995226+323099627+323229541+323153349+322918300+322926139
2723+323339926+323815135+324041225+324021801+323805615+323532593+323517508
2710+323689981+323729214+323907811+324420258+324813431+324951500+324979604
2696+324851404+324783472+325016002+325275761+325224593+324970819+324769368
2683+324624194+324489135+324342772+324107022+323905991+323850659+323770477
2669+323563636+323259290+322847253+322313771+321795689+321535091+321502717
2656+321374098+320995660+320696248+320776499+320976656+320946137+320672449
2642+320394036+320273152+320279416+320467848+320722112+320722042+320443104
2629+320077230+319818452+319770609+319912913+320185551+320478138+320733276
2615+320953382+321157353+321491168+321972082+322428356+322831084+323219986
2602+323641473+324040035+324271235+324519199+325011067+325654584+326266812
2588+326672934+326819962+326826997+326896434+327204280+327663670+328017959
2575+328266168+328503878+328675790+328832583+328935374+328870347+328766926
2561+328704944+328659446+328595609+328532402+328613773+328808854+328930089
2548+328924629+328885781+328957213+329197302+329435677+329517118+329544522
2534+329624493+329828499+330144325+330330167+330317883+330423263+330840969
2521+331282335+331534219+331788518+332083520+332334388+332641815+333028793
2507+333391972+333687849+333939033+334190986+334465199+334785715+335160654
2494+335497339+335746563+335989942+336361975+336936545+337565082+338011033
2480+338212974+338276216+338235058+338063600+337968369+338084004+338126247
2467+337965080+337933756+338164991+338379251+338416245+338351777+338326964
2453+338430524+338661619+338971810+339180716+339262822+339517156+339987080
2440+340337660+340421971+340388057+340423266+340629757+340837823+340840902
2426+340812939+340958882+341199357+341467165+341787996+342027070+342051219
2413+342029135+342091292+342150370+342290433+342651932+343047065+343243126
2399+343338637+343635669+344240337+344781518+344921827+344972400+345232998
2386+345356508+344872444+343576381+341597429+339343039+336952504+334270258
2372+331369376+328561695+326137037+323916736+321559380+319875464+320038662
2359+321758241+324285759+327482378+331516370+335762242+338176015+337510100
2345+334884061+332876864+332383351+332899368+334261508+335981192+337443708
2332+338657419+340088331+341843223+343554892+345220469+347135094+349453322
2318+352046497+354283948+355863008+357267006+358813098+360446336+362130951
2305+363736610+365150863+366505023+367871607+369044126+369956780+370895579
2291+372118180+373561866+374906646+376002868+376936347+377664490+378211865
2278+378831408+379671406+380639708+381555268+382307279+382984709+383801503
2264+384787795+385782346+386597110+387160480+387628199+388210713+389090504
2251+390187006+390965827+391224115+391565035+392360305+393188368+393735324
2237+394105818+394425739+394802217+395268431+395927697+396841787+397558975
2224+397787725+398001950+398477054+398894551+399113151+399357861+399808501
2210+400353147+400833920+401389416+402090435+402731151+403285457+403856142
2197+404442891+405046964+405648972+406265715+406913082+407543719+408172431
2183+408844191+409555885+410225580+410907840+411808770+412834330+413778238
2170+414794838+415938413+416878786+417654107+418560042+419488726+420416325
2156+421552619+422841262+424048324+425190044+426396090+427490422+428564174
2143+430000896+431487735+432620005+433786714+435343095+437031560+438567467
2129+439975980+441340185+442706419+444176074+445752125+447246804+448701584
2116+450405414+452353918+454382218+456490175+458675513+460812484+462757628
2102+464613596+466677490+468990327+471389331+473830613+476289360+478819853
2089+481604820+484672609+487915041+491274577+494800461+498427351+502014447
2075+505780001+509885529+514055735+518185133+522518711+527041246+531504914
2062+536222600+541610262+547360228+552981784+558249716+563570531+569728159
2048+576441457+582841344+588827550+594626163+600424497+606615653+613401713
2035+620254410+626689226+633024856+639513359+645868658+651789696+657417937
2021+662973382+668417041+674120319+680170572+685712577+690605150+695564361
2008+700818539+706038768+710489451+713888291+717494392+722014022+726047384
1994+729126687+732760787+736890674+739933650+741916522+743648315+745502673
1981+747480856+749381972+751460600+753593826+755507261+757236885+758037789
1967+758166654+759019356+760220083+761057806+761764565+762216185+762760271
1954+763820024+764378529+764008525+763882041+764302442+764386439+764431377
1940+765574426+767499901+769164287+770309437+771450876+773124012+775337245
1927+777391794+778806221+780511626+783222396+786314439+789489989+792694867
1913+795912905+799592012+803643713+807884896+812738341+817648624+822063329
1900+827120325+833167988+839034919+843909083+847398919+850594768+855805267
1886+862487032+868304055+872757258+876658115+880408550+883296552+885052284
1873+886461812+887548234+888730062+891513489+895250974+898428833+900826577
1859+901943588+901385362+900659284+900322249+898893543+896742608+894878520
1846+892162360+889431641+888825328+888256883+886531459+884468930+881621456
1832+877450760+873291474+871061093+868659499+864584909+861746045+860548958
1819+859294333+857547840+855016262+851587604+848030011+846095227+846050709
1805+845623377+843409585+840755303+839262059+838299041+836165256+832624112
1792+831161737+833746862+835773973+834806126+833066353+832343914+832433301
1778+832755006+832160243+829927411+827813295+829389205+833425927+836392816
1765+836913173+835374921+834556587+835530454+836715431+838402497+839294257
1751+837524735+836024982+837548534+839566685+840287303+840572051+841860274
1738+843734721+843611666+842739225+845958033+851002780+855434284+858915230
1724+860953540+861891498+860964529+857185676+855210854+859739373+866605790
1711+871550091+873046695+872390404+873133701+875290516+875983415+877041489
1697+880755384+886528519+893351678+898180834+900481352+900366067+896873292
1684+896557886+906232298+916379960+921187347+922540247+925035147+928448896
1670+931586507+937827151+945455974+949984634+952578089+955502350+957362868
1657+956838521+953509398+953344205+961455237+966527493+968080584+973381940
1643+980778513+984899580+984187362+980056635+979535088+986914931+993491421
1630+995110239+994078765+992850039+992644178+995678124+998903371+997407818
1616+995613027+1000971570+1008656600+1012938311+1013842601+1014606687
1605+1016661936+1018782353+1019989799+1021035343+1022463210+1023440157
1593+1024492210+1027306016+1030950965+1033693513+1035847248+1037506245
1582+1037725755+1036134306+1033032393+1031124487+1032574613+1033418356
1570+1032640760+1033302931+1034988526+1036719830+1036576056+1029578255
1558+1024374825+1033465464+1042019155+1046551455+1050760439+1055197543
1547+1057238093+1054190007+1046865951+1040485313+1044834221+1055667572
1535+1061922076+1065045757+1069097738+1070470028+1067486970+1064088480
1524+1060632243+1056871309+1058010438+1062832315+1066900605+1068914136
1512+1068677127+1066285123+1060762927+1055909061+1059063262+1064357828
1501+1066755362+1065296556+1064547869+1069256281+1073335141+1071115539
1489+1068248746+1070522525+1072219390+1070691218+1068245036+1065839522
1477+1062841345+1059513902+1056801522+1056072924+1057319989+1057090539
1466+1053653691+1049262155+1044361742+1035023525+1021147968+1014921253
1454+1020033757+1024526019+1022850853+1014747031+1004535042+997898146+994671918
1441+989715368+979950029+968225058+961724585+958511727+952397497+946529867
1427+944882210+944637570+944372912+943454413+942093253+946898890+956971795
1414+964766860+969685263+972920520+974665473+977187531+982442549+988694813
1400+992426138+993026151+994265096+1000639015+1009580559+1013923237+1013091184
1387+1009897575+1006509235+1005536628+1009145529+1016194637+1021716833
1375+1024021341+1026169056+1029313737+1032405290+1035312472+1036762878
1364+1034552165+1031155496+1029603804+1028375709+1027539175+1027422981
1352+1026781529+1025887319+1024599795+1021979041+1018424108+1013959846
1341+1009068042+1005352536+1002925254+1001722987+1001145302+999609990+997701945
1327+997101721+998107927+1000455413+1003857542+1007041212+1009656156+1012773888
1314+1015756106+1018432928+1022252449+1026375617+1028718623+1029778656
1302+1031509820+1034029009+1035179268+1033724942+1032333614+1033924013
1290+1037099563+1039805993+1043727780+1049809531+1056057945+1062648853
1279+1069783708+1073741823+1073023585+1070298115+1068457057+1069408315
1267+1071164187+1069650924+1065253438+1060999446+1058214619+1056085804
1256+1053832183+1053070827+1053581874+1052536610+1049876378+1046731067
1244+1043425673+1042186728+1044088054+1044370071+1039839242+1035076862
1233+1033324280+1032235898+1029891072+1028146259+1028859457+1029887992
1221+1029281188+1028807449+1030145020+1031197844+1028853507+1024558357
1209+1021872926+1021590978+1022102026+1021959162+1021451405+1021199976
1198+1021221675+1021721313+1023256555+1024743149+1024338147+1023084012
1186+1021754701+1019574858+1017639303+1016104341+1013849811+1011813391
1175+1010240840+1008779305+1008410351+1007818947+1005805556+1004754763
1163+1005954650+1007520620+1006543954+1002574989+998277389+994974165+991953029
1150+989349004+987566883+986402064+986416273+987204019+986902892+985149469
1136+982401951+978985472+975235528+971722243+969698282+969094349+968467807
1123+966671196+962943511+958427031+955124787+952357039+948931461+945537101
1109+943046401+941973278+940968053+937934387+934293148+931609186+929379365
1096+928732033+929494650+929073198+927927839+927561265+927382143+926976371
1082+927113285+927804364+928021985+929839175+934274808+935048484+930562103
1069+928572721+930712806+931783409+931993329+934644112+938217664+939790985
1055+939400682+938732211+940066422+943233922+944218009+942279235+940798870
1042+940291672+940059003+939877081+938573108+937987234+940406957+942838090
1028+942843900+941390554+939251238+937971975+937571733+935823490+933261953
1015+932069696+932100705+932281857+933647006+936085138+936415314+935234396
1001+935932615+936881563+935237196+933338810+934461140+937745535+940695065
988+942334112+942931326+944981255+950635045+956113493+957436645+957332839
974+958445580+959471385+959740943+960221471+960828485+960392334+959023474
961+958077886+957667844+957120748+955675312+950564978+943457772+942153660
947+946877261+951484808+955232302+958032528+957433355+953851123+950367377
934+949216488+949625480+949099243+946031699+942253616+940786691+940756522
920+940148039+939441840+938821737+937494526+935599990+933541521+931603587
907+930049725+928928655+927971027+925687098+922590645+921209116+920583974
893+919751220+920096585+920547855+919656095+919187675+920996955+923743704
880+925215039+926026933+927725408+929699741+931065870+932556874+934894211
866+938509831+942966604+947155639+951999845+957618566+962295760+967192603
853+973020896+978011605+983166877+988650085+992664267+997765362+1005943730
839+1015031708+1022726398+1027785425+1030426898+1030892867+1030143550
827+1030639618+1033813208+1036107777+1030167069+1020790774+1020633281
816+1028748722+1035017435+1035765212+1033843867+1031911252+1031168445
804+1032751775+1035165548+1034466699+1030818181+1028999451+1031221713
793+1032602612+1027799774+1020047687+1016632538+1018888118+1018823091
781+1010667471+1000296450+992775002+987577942+984476309+982302345+979125396
768+975379861+973052114+972076777+970357863+967482740+964774840+963333604
754+964003474+965523947+964458454+960600575+957348868+956972915+958343524
741+958238949+955883693+951973316+946510688+942376390+941124776+938496322
727+934468350+934466740+936992298+935471826+928371689+921238305+919301490
714+920730407+922062728+922860343+923849049+926398127+931095129+936682702
700+940516013+941043509+941775677+946467009+950874015+949587052+947792051
687+951187951+952941093+947822150+942971994+941220881+941752648+946422771
673+949543023+947185248+946287327+951326755+953379204+949251696+947006476
660+951220849+952496123+948663932+950972430+957153647+957834087+952249734
646+944641280+940512373+938843506+937340183+935014326+933204136+941548397
633+948605765+936433723+920704438+920518667+933545161+938872275+926046812
619+910284349+902834508+905832616+913216239+915636312+917436633+932542455
606+957697803+958267228+929173504+913114184
##END=
