##TITLE=Sample description
##JCAMP-DX=4.24
##DATA TYPE=INFRARED SPECTRUM
##DATE=13/9/2023
##SAMPLING PROCEDURE=Instrument type and / or accessory
##ORIGIN=Default
##XUNITS=1/CM
##YUNITS=ABSORBANCE
##RESOLUTION=4
##FIRSTX=4397.6552
##LASTX=599.8556
##DELTAX=-1.9287962
##MAXY=1.662251
##MINY=0.27737647
##XFACTOR=1
##YFACTOR=1.5480919e-009
##NPOINTS=1970
##FIRSTY=0.30328715
##XYDATA=(X++(Y..Y))
4398+195910303+196699883+195612201+194150164+194156401+195035037+195464238
4384+195003138+194481435+194727771+195408910+195676692+194958880+194035736
4371+194210458+194477990+194017833+194702090+196138716+195697233+194106926
4357+193201051+192676808+192522511+193131440+193973228+194217947+193183976
4344+191654734+191446746+192411799+192323436+190449524+189462006+190466369
4330+190679940+189466838+188883147+189186793+189184868+188293932+187265100
4317+187005635+187272031+186925474+185189342+183599517+184127687+185884053
4303+187184554+187864538+188191054+187716267+186083224+184337793+183275619
4290+182982272+183969521+185429594+186191953+186443006+185833307+184355696
4276+183169007+182291276+181454686+181646868+183028089+184135157+183840270
4263+182566970+181920310+182829823+184018977+183875981+182766237+181845577
4249+181692089+181908143+181289916+180144096+179931893+180450746+180518683
4236+180287844+181111613+182651039+183095006+182466788+181869641+181708529
4222+181765012+181920406+182547623+183300260+183330061+182490370+181950534
4209+182887326+183827622+183091733+181775523+181174429+181081755+181157758
4195+181243310+181189657+181575851+182523925+182930102+182394192+181840110
4182+182058243+182490890+182508312+182381467+181997160+181023867+179741962
4168+179312857+180265590+181135465+181154562+180840194+180306883+179929313
4155+179949604+179904575+179570686+179568838+180477601+181425289+181675629
4141+182122310+183134605+183613127+183132834+182789107+182942114+182447633
4128+180838095+179219971+179173134+180452613+180853669+180123094+180023643
4114+180742706+181481194+182085945+182328161+181752460+180955719+181266911
4101+182459010+183342785+183778320+183798765+183165156+182598137+182801563
4087+183167621+183441543+184084777+184826942+185314011+185630883+185937609
4074+186084744+185733337+185592670+186274771+186909785+186972466+186785808
4060+186579514+186605946+186952329+187312458+187508664+187640668+187594485
4047+187586650+188302306+189690515+190719635+190048738+188140174+187405267
4033+188326774+188999385+188497145+187810963+187959792+188680107+189172220
4020+189281797+189466607+189954581+190650563+191314703+191711255+192173702
4006+192961973+193214026+192320915+191298590+190873162+190677784+190595409
3993+190689739+191294701+192655670+193981564+194460086+194391726+194150222
3979+193458995+192964033+193525681+194515163+195665892+196844227+196886829
3966+196075919+196065755+197255563+198251321+198084434+197716798+197511235
3952+196886329+196931106+198623597+199727199+198648450+198054017+199272606
3939+200095124+199734207+198502104+197309851+198092269+200038276+200441931
3925+199895588+200646512+201537775+201210759+201512653+203866704+206368102
3912+207160685+206430379+204033706+200087616+197625625+198494134+201256095
3898+204806576+206753835+205424418+203817133+205341812+206706381+205911257
3885+205412521+204836762+205243343+208794980+210040963+207033109+203815766
3871+201894747+202811056+205320809+206397691+208364624+211812132+213399897
3858+211330299+204175875+197896544+204447969+214041764+218274502+216988766
3844+213187578+209649243+206998669+207088436+210416858+213203171+214770915
3831+216982105+219301966+220422413+218963630+213908971+211026595+213718424
3817+216490838+219942062+224185830+225632197+223093259+219714881+218949827
3804+217785199+217383584+221095293+224562649+227412241+230893669+233110345
3790+233862405+234039495+234134152+234706677+234552765+233953770+236414087
3777+240744235+242805574+242196819+241711386+243760097+246818215+250205564
3763+253386195+254193371+254968628+258594458+261647571+261135648+262748074
3750+275801756+293190629+313170052+340505515+362560697+373532498+376528340
3736+376869737+382862497+394968915+406483825+413879676+421016986+432051353
3723+445771428+460502681+475434760+489189756+499153036+506085669+518749480
3709+539569209+560188459+577991325+595904615+615409693+632457381+641722042
3696+644430042+643957045+641011025+638762547+641906274+649561051+657243279
3682+659982235+655362225+646835262+640095140+641265062+643635207+639598117
3669+639272198+645384622+648704227+648404219+647177237+643973447+637628239
3655+632215781+627502250+617515483+605606466+604545967+611389544+615424901
3642+613391649+609499327+607041282+604800811+601304021+595492759+586944928
3628+583766626+587217561+588141801+583849829+576168755+571459344+572141946
3615+572821429+571495998+569383585+567536490+567660081+568061426+565999413
3601+563033872+561652343+561314681+560169670+558323383+556475672+552932986
3588+548936902+548867097+551168555+552457371+552106464+551079654+550117489
3574+548910027+546775861+542968513+538366406+538235192+542532940+544575394
3561+543818483+543759614+544974044+545764837+545131825+543936684+542281714
3547+540049637+539693494+541675731+542666118+541671303+540929562+541203966
3534+540917973+539309821+537689233+537212078+537095378+536957580+537378214
3520+537287927+535871322+534589398+533977178+533407579+533291534+533198090
3507+531624435+529797862+530527975+532626142+532985674+531773092+530820052
3493+530703352+530216725+528419105+526276083+524855975+523933544+523074872
3480+522441514+521889511+520890730+519522562+518205331+516973536+515538451
3466+514119921+513283157+513229216+513703715+513724968+512587041+510549977
3453+508304347+506354105+504363243+502683747+502461360+503426220+504229256
3439+503721299+501997449+499947448+498368327+497601020+496937207+496403300
3426+496235431+494955008+492935886+492352542+492689435+492834587+493435219
3412+493877684+492752116+491311371+490941020+490455356+489388619+488450094
3399+487526084+486863965+486653128+486603730+486586327+486138665+485619465
3385+485633056+485577767+485324155+485570452+486160996+485913697+484626344
3372+483515985+483036519+482554859+481892163+481775964+482325618+482380137
3358+481544297+480928496+480931153+480272037+478479114+476920976+476349260
3345+476237950+476236603+476130953+475182225+473416677+471913944+470583623
3331+468720665+466499484+464315919+462407490+460383825+457962780+455437357
3318+452669909+449995444+447924229+446058152+444203626+442414861+440668102
3304+439058295+437231374+435067523+433747405+433457985+432312781+430501685
3291+430003007+430358651+430547849+430713331+430669208+430330005+429588225
3277+428141397+426422398+425349847+425101663+424411207+422705106+421345523
3264+420914378+420426904+419317006+418238373+417544104+415923940+412894833
3250+410200886+408607827+407071250+405430372+404560689+404043145+402807615
3237+401465050+400767317+399902600+398717316+398149642+398073254+397392616
3223+395831013+394447251+393489013+392146178+391161490+390909879+390307399
3210+389870864+390225390+390602633+390557624+389880759+388616083+387284953
3196+386651634+387053287+387426910+386885611+386046844+385355887+384564055
3183+383743808+382889064+381783209+380758247+380172208+379875704+379656281
3169+379478286+379405980+379397817+379255052+379066353+379030123+378873343
3156+378380440+377420354+376213971+375916658+376493803+376603996+376079368
3142+375200251+374171478+373659324+373336023+372380172+371495742+371239781
3129+370578124+369410435+368709313+368326257+368033180+367790925+366605525
3115+364499889+363179193+363365543+363758379+362939364+361399938+360347602
3102+359718787+358958680+358225794+358179477+358829390+359215527+358945358
3088+358717696+359049545+359601356+360096260+361130039+362819161+364043332
3075+364273921+364134004+363990969+363746366+363524941+363213267+362108722
3061+360301938+358965765+358640885+358791042+358938236+358977700+358759163
3047+358444024+358631452+359470449+360523286+361468934+362135134+362484732
3034+362899322+363446166+363582617+363105077+362465520+362302656+362604435
3020+363038430+363890826+365342236+367130308+368924386+370507935+372355454
3007+375155281+378872419+382803089+386533856+390921198+397090337+405115926
2993+414710472+425601189+436938028+448031110+458800160+468175091+474438636
2980+477813299+480128886+482546427+485232635+488001931+490644246+493623994
2966+497574300+502320288+507712995+513730666+519915321+525907965+531952627
2953+538584097+545202900+550145903+552811859+554051932+554346434+553012994
2939+549679644+545120467+540346334+535551563+530112654+523987639+518297928
2926+514187993+511381620+508190227+503782171+498888373+493614291+487577138
2912+481485466+476044208+471242584+467226594+464109048+461598332+459681702
2899+458670986+458595022+459382349+461001166+463540373+467297245+472445734
2885+478790711+485648611+492428199+498963106+505061246+510234491+513692472
2872+515225815+515457943+514711081+512354643+508070525+503060759+497729155
2858+490694800+481825939+472203672+461923790+451001425+439668166+427711253
2845+415743481+404887147+395248247+386462320+378537528+371386936+364754695
2831+358854802+353899824+349641425+345828957+342340367+339072470+336240571
2818+334396094+333312070+332124860+330890332+330262788+330268948+330364625
2804+330285542+330204804+330179277+330013218+329467144+328494236+327208808
2791+325707846+323923317+321785589+319566256+317378649+315100312+312953883
2777+311077218+309222134+307316573+305652362+304371747+303142089+301765084
2764+300544898+299591299+298677935+297820111+297147153+296531603+295853101
2750+295348590+295177025+294961876+294403712+293611861+292681902+291727611
2737+290866359+290125677+289679747+289453355+288849432+287825163+287137190
2723+286884289+286502138+285931538+285310462+284688597+284394211+284475411
2710+284412268+283944796+283285815+282564537+281823951+281119268+280396836
2696+279665971+278872060+277905352+277025581+276411224+275781812+274922120
2683+273946171+273137995+272494645+271690512+270666820+269608612+268626676
2669+267795341+267149681+266456510+265459405+264481877+263893489+263460958
2656+262961529+262495597+262045874+261459181+260736171+260151768+259946302
2642+259817782+259456133+259101356+258910675+258844009+258884552+258867168
2629+258810397+258913390+259012128+258921225+258918953+259188891+259469570
2615+259619613+259874284+260385321+261012577+261561057+261963153+262360186
2602+262835397+263281770+263732397+264212382+264578517+264823756+265040946
2588+265251398+265449798+265524897+265383825+265230991+265178436+265011337
2575+264654020+264166353+263570920+263080982+262899060+262798435+262480504
2561+261986793+261376305+260765721+260447829+260331746+260160296+260021997
2548+259951519+259854090+259784093+259817474+259930516+260080559+260287295
2534+260519231+260661727+260771323+260986646+261184084+261233213+261333587
2521+261640448+261982288+262218729+262430779+262664910+262910071+263189018
2507+263471892+263762390+264109024+264489135+264833266+265113406+265368906
2494+265598185+265777989+265894246+265992946+266180047+266374039+266524928
2480+266735727+266893835+266879994+266844726+266938883+267106174+267144368
2467+266971167+266835486+266913086+266990244+266881110+266635275+266513878
2453+266716206+266963216+266961599+266817909+266747663+266833560+266978771
2440+267097318+267222315+267296220+267174842+266969357+266931510+267052868
2426+267170415+267165121+267080512+267125771+267308560+267378499+267304132
2413+267337860+267565118+267861853+268151138+268430027+268729804+269055203
2399+269327855+269514089+269715705+269984218+270229495+270365812+270303246
2386+269751551+268278810+265722508+262299603+258260203+253835148+249323002
2372+244745825+240018144+235454810+231476455+228425594+226406068+225675685
2359+226977553+230269686+235038969+241545173+248518406+252252716+250790486
2345+246383393+243379119+242840226+243616927+245332192+247525978+249280977
2332+250379343+251888698+254309570+256832356+258973048+261291986+264299878
2318+267566446+270435366+272825416+275020281+277192333+279311772+281382506
2305+283500945+285592508+287413442+288883468+290137035+291335603+292578890
2291+293858427+295077305+296170877+297139318+297946879+298507737+298874315
2278+299310235+299879256+300269377+300411912+300633645+301040842+301515861
2264+302061569+302580075+302898679+303131193+303453551+303825192+304136038
2251+304376059+304545930+304588051+304614021+304700342+304758192+304930334
2237+305280799+305524247+305599461+305773259+306072111+306243541+306261310
2224+306278963+306326128+306430642+306596836+306694284+306770634+307071681
2210+307589418+308128927+308596611+308913733+309114752+309446908+310025209
2197+310713644+311403946+312098542+312716595+313088409+313375788+313953241
2183+314753794+315484293+316131434+316838504+317587734+318206847+318819856
2170+319700378+320672842+321499115+322326003+323216497+324005826+324740291
2156+325630496+326735503+327970147+329174990+330314265+331497970+332657843
2143+333741059+334905437+336162835+337369219+338543761+339833309+341212065
2129+342543542+343868396+345298168+346763015+348163102+349597148+351139076
2116+352779608+354493410+356160008+357860218+359710008+361570079+363485284
2102+365600161+367844597+370146978+372509038+374969316+377639700+380581523
2089+383679933+386914564+390458096+394271951+398148603+402092671+406345757
2075+411110342+416217441+421284921+426230927+431328786+436873498+442870609
2062+449047910+455340562+461882169+468516565+475050972+481664308+488598250
2048+495694054+502599389+509316141+516161028+523358286+530667738+537640336
2035+544363171+551219455+558142192+564719490+570836227+576827525+582866102
2021+588667546+593993529+599043452+604289351+609795330+614981397+619553587
2008+623787229+627716090+631239023+634499527+637529481+640302973+642855079
1994+644958367+646567904+648373418+650868425+653523292+655461791+656572805
1981+657481991+658455168+659167840+659558097+660114528+660773605+660732023
1967+660196768+660176747+660409607+660039757+659271334+658575294+658015552
1954+657924611+658302238+658373621+657896735+657188221+656254856+655997816
1940+657571239+659960366+661970710+663568158+664767187+666100281+668397311
1927+671361503+674341173+677819291+681973426+686342634+691740231+698371277
1913+704924550+710883891+716812430+723446634+730638038+737677899+744504536
1900+751515444+758579484+765409278+771817090+777159860+782012884+787761234
1886+793827456+799265787+803887876+807541101+810619028+813314477+814819674
1873+814072966+811337707+809927147+812333754+814966136+814670440+812325591
1859+809597724+806987904+804143376+800813722+796958824+792526704+787093070
1846+779840216+773067173+770365796+768809005+765076621+760378683+756017946
1832+750327349+743216413+738093721+735128913+733130427+732394962+731083122
1819+728233126+725078272+722139182+718937355+715950370+714307797+713450819
1805+712270117+710167445+707472690+706036257+705854604+704414167+701246838
1792+700309160+703699185+706855195+707326921+706432288+705247813+704890899
1778+705872777+705706680+702594562+699625673+701539915+706248018+710218499
1765+711945699+711535730+712036718+713798647+714912202+716023909+716029299
1751+713720179+712683705+715357439+718648513+720371170+720963177+722204251
1738+723949239+723137154+722121625+726844513+733703568+739422656+743281944
1724+745620941+747317262+746447810+742052421+740918228+747753490+756795917
1711+763607153+766126417+765514928+766018149+766929337+765349446+766268874
1697+772944891+783555582+795183265+802628168+806435246+807821010+805708328
1684+807443229+819001300+829932097+835763996+839021266+843678777+848551360
1670+852880063+861544632+871785473+878113817+883818659+892495164+900515055
1657+903855181+901467056+902920275+915313147+923849889+928895732+938466869
1643+948415787+953165857+952906507+949236111+949466892+959276279+969161670
1630+975407696+979840201+981187618+980263955+982558828+986180789+986139207
1616+986857038+993030450+998621866+1000690425+1002750821+1007086686+1011742965
1603+1016111017+1020579714+1024117664+1025978466+1026932315+1028740061
1591+1031090685+1032405529+1033196899+1034215200+1034860263+1033846120
1580+1029734183+1022660286+1018585618+1021639906+1023638622+1022789422
1568+1026844761+1034924561+1040499729+1040751840+1034693934+1033407351
1557+1046921864+1060953535+1069454008+1070810896+1067402699+1062170507
1545+1055471234+1047232190+1037681767+1038508713+1050003410+1056947940
1533+1059160882+1062488302+1063774423+1060599009+1057410889+1055351262
1522+1053973275+1056771139+1060363069+1062474904+1065470437+1067254851
1510+1063679015+1053141016+1047613437+1059420924+1071430779+1073741823
1499+1069184494+1066849040+1069781122+1070970295+1065838670+1060984414
1487+1064534376+1069800681+1071579396+1072378313+1072336654+1069147686
1476+1063548109+1058150743+1057330573+1060952226+1061592746+1057041962
1464+1053600037+1051780663+1042925740+1026493623+1019520062+1025248237
1452+1028318772+1024315410+1015306094+1007390005+1003479741+999656338+992889456
1439+982175117+968558497+959356056+955351616+950458165+945263243+942573108
1425+940399900+938641052+938566974+940836359+950054587+962905325+971395094
1412+976157176+980963998+984723642+985746717+987224501+990515268+993984992
1398+998242467+1002636778+1007961221+1015834111+1022508049+1025384534
1387+1025191408+1024062606+1023929158+1025346109+1028040402+1030051747
1375+1030726764+1033749249+1040241380+1045501217+1046833001+1045820321
1364+1043732896+1042573447+1043536921+1043688927+1042073075+1041097973
1352+1041426241+1041197462+1039182344+1035426011+1030144383+1023635157
1341+1016870354+1011981061+1009282532+1006616576+1004361283+1004688858
1329+1006799846+1008608131+1010145131+1011447423+1011823511+1012667475
1317+1016134427+1021011938+1024912114+1027547038+1029269771+1031124721
1306+1034244693+1038123000+1041541978+1043140428+1042876150+1041942091
1294+1040392693+1038715161+1038836134+1041679430+1046412097+1051161320
1283+1054929973+1058973839+1063240478+1065425697+1065814260+1066331419
1271+1065858537+1061654580+1054545030+1048028180+1042823094+1038595035
1260+1035933699+1033302087+1030308787+1028664366+1026994688+1023325216
1248+1019148672+1015903261+1013129037+1010847331+1009407741+1008329300
1236+1007099469+1005960348+1005490470+1005454432+1005319444+1005328222
1225+1005711394+1006344213+1007284432+1008837372+1010602612+1011015277
1213+1009661161+1008175061+1007601304+1007632105+1007996642+1008451120
1202+1008666885+1008421474+1007376144+1005716631+1004363362+1003846742
1190+1003022953+1000400042+997173959+995419192+994692736+993475456+991639912
1177+989896541+987988458+985454025+983654595+983764403+984440729+984034610
1163+982312030+980314392+979009944+977437599+975105687+972907145+970511550
1150+967839665+966051786+964857838+962627109+959083538+955373793+952003866
1136+948738203+945883433+943393970+940444948+937868008+936974300+936192401
1123+933434348+929581298+926280829+923429140+921263864+920295615+918292202
1109+913133626+906503657+900977002+897757618+896583076+895563389+893838653
1096+892385818+891742373+891563569+891083295+890877848+892587184+895549220
1082+898283633+900582510+901860623+902749557+904625760+906084139+906069662
1069+906542082+909210887+912975845+916331448+920216301+923713515+923025099
1055+918919861+916955797+918563487+919864778+920137757+921496878+923126591
1042+922534969+919433170+917905796+920527243+924029309+925051614+923645829
1028+921950893+920938291+918911083+914927973+909967375+905968094+904531661
1015+904133089+902543726+900819914+899738315+898035218+896274059+896173030
1001+897019304+896610643+895631614+896408431+898294490+900247389+903427424
988+908740162+915376522+920856435+924144353+927248616+931248512+934985594
974+936703246+935555193+933538612+933358345+934667259+935851581+936480704
961+935750090+933090602+930203876+929253030+930625088+932056669+930096609
947+925758819+923829945+924620007+924485866+922512484+920442616+919513177
934+919034212+916970736+912998176+909639261+908518236+907895736+906387458
920+904828281+903281501+901015427+898401449+896819709+896299547+895001413
907+893247724+892905980+893300318+893325113+893226625+892801640+892489465
893+893431687+894907931+895817271+896600633+897775098+899391104+901173054
880+902715830+904067173+905586385+908079544+911972020+915601065+916846528
866+916388431+917195434+921005977+926284525+930983695+935810230+942216733
853+949571001+956096014+962056124+969470841+978885429+989921105+1001257867
839+1009821561+1015442700+1020457586+1024968635+1029089351+1031386997
827+1029471522+1028197260+1031903771+1035757745+1036406812+1037478707
816+1040877588+1043564489+1042998355+1040975460+1039345362+1035647244
804+1030408661+1027649607+1026419083+1024685645+1022545396+1019921638
793+1016369828+1011205323+1004789194+998389776+994552280+992690400+988106043
779+981341780+975587270+969623771+962958688+958146862+955353618+952316734
766+948523593+944782122+941353826+937615743+933402083+929195816+925325440
752+923788902+925735025+928118838+927365816+923652682+921269408+922908823
739+924529758+921612461+916151182+912807514+911945377+909842474+906306835
725+903904541+901207398+896262431+892192153+893082319+896450629+898229961
712+900791653+905988346+910760747+913002950+913466822+914953770+918766161
698+921503962+920983338+918713953+916789083+918216199+921483402+921533532
685+919553681+919953332+923496441+926474571+925760282+923504141+921332089
671+916334683+910588335+917383169+930352570+932989034+929057055+925663565
658+923406731+922762285+925499007+928861080+929809230+929387094+929476881
644+932254493+935522389+932904869+928748500+928066167+920941679+912824532
631+920730149+933840313+937929843+939428341+939542307+935098867+928835437
617+925719701+928657943+936217119+945079203+949996680+945627626+933322769
604+925139399+931561456+946300333
##END=
