##TITLE=Sample description
##JCAMP-DX=4.24
##DATA TYPE=INFRARED SPECTRUM
##DATE=13/9/2023
##SAMPLING PROCEDURE=Instrument type and / or accessory
##ORIGIN=Default
##XUNITS=1/CM
##YUNITS=ABSORBANCE
##RESOLUTION=4
##FIRSTX=4397.6552
##LASTX=599.8556
##DELTAX=-1.9287962
##MAXY=1.8599124
##MINY=0.48023123
##XFACTOR=1
##YFACTOR=1.7321784e-009
##NPOINTS=1970
##FIRSTY=0.49780703
##XYDATA=(X++(Y..Y))
4398+287387849+288945463+289684869+287796763+285648654+285896373+287296490
4384+288181074+288524178+288465595+288237593+287676345+286092270+284294164
4371+284199243+285788583+286744292+285908451+285289772+285936461+286271393
4357+286303687+286245929+284495051+282124771+281967809+284069224+286729324
4344+288474146+288748326+288601567+289222293+289867106+289208976+287914171
4330+286731750+285279397+284710287+285794106+286598462+285972351+284940078
4317+284482646+284419348+284266619+284168532+284110104+283623165+282591202
4303+281875538+282142372+282174202+281279071+280886313+281440765+282070679
4290+282879078+283893010+284361178+284636116+285255362+285346876+284393885
4276+283206732+282302758+281396238+280850647+281276990+282094800+282772922
4263+283303562+282781559+281171075+280484075+280994619+280802524+279532254
4249+278457726+278738169+280275755+281907729+282770152+282513263+281507263
4236+280798240+281577907+283450339+283870591+282725815+282436717+283060506
4222+283476663+283974562+284495842+283861696+282386633+281753261+282134372
4209+282266610+281616120+281114986+280918504+280283893+280201395+281387051
4195+282321305+281952548+281072318+280737455+280803367+280623780+280338933
4182+280510072+281189226+281781598+282242592+283103226+283684690+283278116
4168+282725023+282504867+281952927+280934642+280315293+280111085+279601573
4155+279371936+280039426+281068378+281865473+281949778+281411310+281162266
4141+281546232+281758457+281278590+280899045+281135495+281166516+280492350
4128+279340692+278220588+278131586+279115443+280173935+280755675+280812572
4114+280905531+281191084+280923012+280426094+280610670+281187540+281307185
4101+280699104+280200741+280595409+280889427+280297881+279838281+279666092
4087+279188547+279242606+280211408+281218871+281763860+281416523+280198470
4074+279271201+279241332+279702670+280601706+281631312+281720950+281104354
4060+281178232+281947352+282185850+281399370+280319215+279566010+279179738
4047+279401667+280319284+281761159+283329353+283827114+282884033+281855322
4033+281299890+280686149+280280796+280465390+280820710+280788485+280384887
4020+280113098+280133486+280406824+281041779+281878463+282655842+283415378
4006+283990855+283826426+283302031+282874088+282049568+281325887+281565468
3993+282628589+283874686+284287299+283503623+282389145+282243125+283376942
3979+284514424+284518002+283398156+281947903+281534636+282463334+283475768
3966+284461656+286107841+287393820+286883447+285018396+283689112+283762578
3952+284280193+284326045+283877095+283153912+282870200+284155904+286190098
3939+287144036+286470507+284599968+283157646+283589942+285006696+285471802
3925+285085255+285710334+286661553+286101337+285110168+285782028+287412401
3912+288327249+287907065+285399145+281186697+278675233+279479864+281748513
3898+284813466+287160312+286600836+284562065+284693168+285642718+285565914
3885+285654968+285127356+284887499+286973602+287661135+285612110+283435629
3871+282428115+283802373+285337482+284757360+285110323+287629340+288965008
3858+286939433+281354344+277241204+281770828+287978948+290906019+289968547
3844+286265285+282594144+280385094+280353419+282776622+285345087+287463655
3831+289787653+291136396+290904918+289028150+284794902+282614429+284978033
3817+286929454+289552803+293230017+294128950+291401251+288617447+288343748
3804+286851256+285645350+288689106+291663664+293912131+296546853+297958808
3790+298325724+298293344+298027697+298516425+299074697+298819442+299511225
3777+301228364+301614515+299707948+297657340+298592162+301255169+303710820
3763+304651527+302794166+301982120+305419357+308044547+306014310+304373148
3750+310384545+318369059+327755273+345931407+365322531+377311293+381529367
3736+381455557+383381085+387195664+389686655+390324448+391143343+394087412
3723+398772502+405406690+414290549+422755945+427657338+430996093+439626383
3709+453911821+468375780+480961904+492944886+506008348+517941641+525684286
3696+529455233+529737191+526427650+522681168+522848333+524010297+521576531
3682+516004690+508999870+499650750+489168983+484635402+482537892+476610972
3669+473172015+473950718+472789648+468378086+462402647+455340637+447409872
3655+441002241+434365129+422704915+410403949+408012920+411177387+411810673
3642+408424845+403413959+398448151+393395767+387925849+381594368+374714319
3628+372520736+374130791+373240082+369151219+363657627+359998616+358690649
3615+356929465+354788082+352657607+350060771+348576452+347509356+344833480
3601+342016315+340257815+338021150+335613914+334890749+334292665+331067085
3588+327859295+328687825+330445189+330090867+328574753+327145318+325589666
3574+323967912+322198814+319080250+314700379+312660403+314254457+316078267
3561+316602438+316428529+315447184+313691368+312443481+311828226+310136929
3547+307851540+307503205+308940968+309798126+309261602+308351658+307620407
3534+306616867+305166098+303816219+303110121+302547445+301875207+301733884
3520+301967186+301935803+301577180+300987354+300143753+299453278+299402867
3507+299335251+298638547+298100096+298199679+298451183+298644707+298660191
3493+298292793+297590377+296581607+295433545+294854593+295187615+295885867
3480+296307805+296016660+295150314+294643211+294835151+294960163+294662928
3466+294465757+294586227+294842790+295133006+295161394+294714543+293980711
3453+293439334+293245811+292975313+292877347+293333902+293656050+293626113
3439+293726212+293864542+293771359+293664721+294004798+294854248+295359597
3426+294694860+293666683+293662588+294672769+295802078+296346585+296081420
3412+295464032+295026747+294900496+295146254+295703802+296218511+296337432
3399+296259011+296512408+297052201+297572931+297957362+298155944+298433325
3385+298828010+298796903+298354732+298425169+299183915+299532181+299116127
3372+298888090+299234807+299385249+299160378+299507474+300334765+300402725
3358+299695801+299225826+299201395+299342580+299637613+299732138+299419694
3345+299265880+299415220+299481838+299173110+298510231+298095072+297802310
3331+296893020+295886658+295490872+295170719+294312597+293478149+293498967
3318+293696138+292834747+291257898+289808230+288489871+287356003+286180464
3304+284590470+283261926+282788011+282853528+282955297+283048566+283655355
3291+284770161+285595232+285915625+286307764+286992476+287653651+287988635
3277+288088201+288385901+289204468+290428818+291140078+290919611+290850481
3264+291358892+291742498+291808428+291846313+292137114+292876452+293888457
3250+294495040+294218141+293652609+293781819+294611071+295423084+295721317
3237+295843886+296541967+297336258+297652212+298175145+298747834+298802890
3223+299015614+299686579+300120492+300182843+300575774+301195123+301286620
3210+301482655+302814503+304767490+306090666+306304044+306289935+307195372
3196+308861480+310199418+310718703+311064491+311778022+312380579+312403496
3183+312232340+312487044+313120433+313704341+314161687+314493780+314975076
3169+316150976+317548582+318340740+319047938+320237156+321062588+321010078
3156+320993148+321709535+322672436+323230363+323629453+324190099+324582616
3142+324802566+325162016+325422776+325023583+324188895+323787706+323889939
3129+324138449+324301554+324008757+323419860+323044686+322963168+322757980
3115+322280228+321974975+321762182+321271906+320604313+319827708+318995841
3102+318313521+317782847+317125095+316369619+316140791+316794310+317681543
3088+318099214+318302647+318486673+318382686+318234653+318679267+319625824
3075+320208836+320454215+320734796+320561644+320285364+320566806+320757404
3061+320506003+320426997+320744638+321049409+320983789+320540069+320058532
3047+319880115+319777676+319195627+318243703+317478798+316916948+316420649
3034+316008002+315581005+314952847+313951475+312895287+312080453+311262763
3020+310499579+310002661+309574839+309058375+308648034+308508672+308412220
3007+308105281+307682104+307391682+307435073+307903534+308745174+309891103
2993+311409729+313374106+315659392+317994194+320091841+321643880+322480599
2980+322805053+322880893+322695904+322188387+321399774+320399710+319364203
2966+318465167+317697716+317065944+316564897+316091378+315674498+315401040
2953+315243097+315253076+315568205+316052219+316259988+316050154+315848854
2939+315889390+315759904+315111960+314260685+313682559+313255907+312656825
2926+312129901+311924644+311810849+311628888+311282515+310588908+309862405
2912+309804630+310421984+311016489+311322430+311553736+311662610+311523214
2899+311398236+311671866+312466674+313545675+314302184+314375305+314307483
2885+314639438+315101843+315491711+315871255+316038524+315944584+315821842
2872+315776387+315739120+315654574+315476570+315196127+315089111+315201977
2858+315120459+314871260+314736269+314354384+313480399+312832970+312838683
2845+313018304+313228482+313716006+314364157+314836368+315095167+315463288
2831+315982813+316318588+316482622+316798060+317317414+317737219+317781092
2818+317648991+317697750+317877027+318044192+318329315+318826268+319512717
2804+320421629+321249195+321674987+322049060+322661012+323350489+324001669
2791+324419753+324284521+323865679+323847511+324171999+324397489+324565205
2777+324797164+324960165+324913884+324635608+324132875+323798235+324063745
2764+324456537+324541221+324675902+324914985+325032083+325221717+325455810
2750+325516062+325645720+325870488+325933458+325883392+325736460+325453023
2737+325097600+324756870+324669364+325024753+325668018+326224259+326451814
2723+326446171+326367268+326277870+326254816+326236440+326249585+326559174
2710+327024056+327215790+327186644+327337980+327706892+327809779+327386327
2696+326870931+326752112+326908988+326960432+326846878+326706966+326638593
2683+326637492+326648950+326638799+326464408+326204577+326051176+325672698
2669+325040410+324692523+324566788+324298526+323981986+323767885+323580384
2656+323429254+323346223+323123933+322838259+322824392+322928482+322849133
2642+322677529+322654990+322806292+322865581+322690501+322469932+322328816
2629+322314604+322532903+322716997+322590815+322517315+322738538+323028031
2615+323234424+323367695+323608635+323991277+324255754+324413249+324631341
2602+324903457+325326393+325948565+326576482+327208220+327928253+328464227
2588+328641681+328749247+329029174+329409854+329726669+329839500+329806088
2575+329987189+330566003+331183151+331432900+331364286+331240237+331140551
2561+331029268+330979064+331065124+331244539+331438647+331584305+331635989
2548+331521713+331372441+331548381+331978027+332221066+332237239+332355369
2534+332601299+332742897+333002041+333568158+333966353+333980840+334014630
2521+334284131+334671969+335084547+335395375+335532328+335604417+335651318
2507+335809468+336258108+336732419+336855607+336759121+336937400+337549008
2494+338157931+338428154+338655985+339075858+339393017+339581860+340062881
2480+340857482+341500746+341654491+341401163+341160051+341158606+341177325
2467+341102792+340988585+340840105+340703427+340595930+340645412+340884872
2453+341046979+341191330+341582574+342004856+342219370+342421082+342675271
2440+342789650+342862806+343102198+343307834+343294242+343282783+343360860
2426+343339147+343252605+343360344+343694295+344020469+344225898+344348537
2413+344359135+344251775+344217468+344448292+344867511+345318457+345710734
2399+345935261+346039455+346245400+346591016+346868879+346946887+346841695
2386+346501412+345702923+344039464+341268030+337851990+334448234+331053218
2372+327443276+323734748+320092254+316459842+312887683+310302236+309988690
2359+312017551+315491607+319837206+325356124+331263155+334416267+333000974
2345+329042525+326405395+326098627+327177835+328879421+330501519+331806526
2332+332936214+334430099+336578502+338820362+340809514+343044251+345756396
2318+348485471+350944185+353166259+355216937+357164314+359092422+361045753
2305+362838870+364373738+365938130+367565492+368987632+370243778+371429657
2291+372544204+373793846+375220322+376407887+377168629+377892723+378845920
2278+379893471+380892709+381799763+382623199+383353006+384115123+385096606
2264+386022689+386676999+387368954+388165207+388875262+389572344+390325068
2251+391067262+391761041+392326194+392811653+393363146+393946950+394585363
2237+395202166+395555490+395870653+396370531+396764631+397111176+397647322
2224+398092246+398428985+398870227+399221280+399554061+400046437+400467618
2210+400859482+401450271+402130079+402773275+403327452+403692131+404050996
2197+404680909+405412918+406027794+406629216+407314771+408050702+408795615
2183+409550128+410327283+411158771+412056293+412898862+413577466+414272174
2170+415250629+416367275+417357498+418318128+419326175+420321422+421417388
2156+422663623+423772596+424656181+425684359+426879185+427940465+428948684
2143+430140483+431581342+433044361+434236848+435389211+436894315+438606223
2129+440153066+441548779+442961559+444389274+445968325+447758379+449537043
2116+451249950+452926382+454545210+456226322+458129930+460300836+462612446
2102+464811053+466905087+469240578+471739930+474051437+476329531+478898633
2089+481860217+484955210+487825952+490684994+493903004+497466940+501262490
2075+505104151+508878780+512877455+517187094+521509500+525897354+530591768
2062+535709498+541140325+546395524+551367147+556444203+561747300+567323511
2048+573286012+579420735+585504049+591819220+598496524+604913067+610851789
2035+616808405+622912985+629218246+635784336+642124763+648075392+654118034
2021+660255372+666064850+671575372+676999731+682285898+687244205+691946155
2008+696975416+702364951+706987139+710455139+714006205+718116712+721778442
1994+724761533+727782957+730942435+733817615+736274780+738459692+740646806
1981+742963853+745029705+746448232+747403115+748549802+750210852+751875412
1967+753245971+754402705+755028421+755242039+755678086+756400494+757216980
1954+758116188+759084354+760304265+761625067+761993600+760897084+759890103
1940+760661994+762452770+763906396+765182671+766876205+768659136+770399054
1927+772402280+774216387+775894298+778175696+781020733+784431543+788304896
1913+792132482+795852296+799649740+803783853+808363509+813388847+818765926
1900+823860291+828608695+833756877+838827774+842714890+846372628+851811508
1886+858318619+863642981+867538494+870717586+873504057+876558308+880046748
1873+882696059+883134859+882905755+885574888+890023235+892754168+893673265
1859+894399596+894978307+894816854+894317149+893696939+892021987+888375123
1846+883274151+880113159+881192539+882507285+881127710+878438345+875377143
1832+870650761+865611453+864237865+864536821+862763456+860240843+858015740
1819+855715761+853968960+852217893+848939631+845171299+843258572+842886116
1805+842275472+839982856+836167795+833302318+832170497+830581777+827586298
1792+825994206+828124268+830971851+831619658+830306564+828698368+827840246
1778+827859653+827313907+824454899+820741967+820715196+824194620+828151314
1765+830293419+829766117+829625586+831482774+832989529+833702784+833174174
1751+830681154+829034969+830170506+831964105+833586547+835616956+838079833
1738+839630496+838038816+835664029+838744501+844292117+848414187+850817741
1724+852227115+852974987+851361698+847597426+848443435+856074728+863375821
1711+867268511+868337293+868005785+868863219+870384151+869327000+868795981
1697+872070527+877699626+885248816+891340114+894809903+895943445+893428952
1684+893168811+902416833+912734532+918354135+919605772+920880808+923782210
1670+926186521+930708093+937219264+941214222+943797329+948521990+952982243
1657+952829943+947421964+946216643+954542953+958435782+957895816+961719618
1643+969138049+973706557+972965016+967777882+964596863+970331671+978022424
1630+981830397+983479129+985430395+987317520+990654280+993614935+991787477
1616+991004507+997879325+1003528727+1003563137+1002779616+1004881117+1008815926
1603+1011710308+1012557625+1013265856+1014293690+1015524406+1018826686
1591+1022983992+1024631209+1024893140+1026551299+1029623238+1031526123
1580+1029055262+1022934028+1020531919+1024730104+1027195734+1026485301
1568+1028212556+1031953429+1034133730+1031943932+1021695398+1014851135
1557+1025946712+1038397363+1045243758+1046775013+1046317082+1046899922
1545+1046205042+1041226502+1035317097+1040597828+1052322629+1057053897
1533+1057354711+1060135677+1061312231+1057208606+1051795396+1046961861
1522+1043218304+1045239560+1050327112+1053874599+1056947157+1059338048
1510+1057418439+1049747781+1047131641+1057070758+1065704352+1067404217
1499+1064410046+1064701845+1070919565+1073741823+1069158244+1064058924
1487+1063904697+1065202444+1065848324+1065490596+1062696141+1058016214
1476+1054358407+1051720932+1050910158+1053763248+1054670439+1049647372
1464+1043375283+1040767814+1037500150+1028184890+1020429170+1021115929
1452+1020775062+1016495738+1011092438+1005927395+1000513497+994116017+986580385
1439+977107113+966872136+961104432+957372024+952033897+948488406+947369798
1425+945383089+943376698+943035417+943951899+949715199+960170676+967753244
1412+970467660+972780027+975647913+977424512+979883949+984552659+989528308
1398+992497566+994830098+1000959040+1009106624+1011196563+1006011975+1001993412
1385+1003857895+1007154876+1010998085+1016895034+1022253325+1025909824
1373+1030048273+1033509253+1033500650+1031741600+1029712016+1025594833
1362+1022460061+1024366525+1026874411+1026058614+1025051495+1026329835
1350+1026339057+1023471584+1021327965+1020567293+1018895575+1015436453
1339+1010668504+1005919274+1001448767+998107327+996976401+996787420+997470394
1325+999327307+1001171420+1003660449+1006390212+1007319563+1008465768
1314+1012594375+1017864989+1020961221+1020928325+1019256814+1018765505
1302+1021290458+1025758144+1029113760+1029705822+1029007363+1030248334
1290+1034731297+1039874387+1044815076+1052321115+1059869135+1060494713
1279+1056543456+1056933117+1062400833+1067417568+1070190894+1070484620
1267+1067511577+1064982976+1065419229+1065379932+1062989385+1059220365
1256+1055261744+1052217747+1050432338+1049048909+1044761052+1038219599
1244+1035594925+1037343309+1038750343+1039587543+1040630655+1038249055
1233+1032540674+1028849627+1028063078+1026971655+1024520133+1023014617
1221+1024313396+1025857520+1025037318+1023324171+1022376445+1022166336
1209+1021779221+1020961290+1020700323+1020928669+1021380269+1022329784
1198+1023916715+1026625488+1027788691+1024354138+1019834974+1017677178
1186+1016852847+1015831896+1013701765+1011256575+1009066846+1006398608
1175+1004302957+1003485921+1003399000+1004521944+1007224454+1009529181
1163+1008468246+1005263553+1003695823+1003534095+1002178194+999555172+996809511
1150+994671880+993684100+991884032+988602536+985641536+982087304+979242611
1136+978828518+977590370+974445344+971278365+968743846+966483989+964834775
1123+965009373+965614855+963708942+958465374+952177801+949072416+949107170
1109+947301666+943011124+939664661+936725133+932597421+929239533+929070166
1096+931500973+933633031+933583411+932179199+931329954+930534665+928985311
1082+928749601+928934934+926024380+923136330+925161578+928825647+930292486
1069+931864001+934219587+934389298+933126719+934722321+938446401+941158959
1055+942861508+942615888+941000053+940772051+941213671+941189447+942536125
1042+944895221+944914009+943165557+942371300+942535919+942132012+940740875
1028+940228438+940505578+940734131+940781135+938497191+936086204+937635628
1015+940471099+940429944+937433364+933611421+930595227+928836246+928954548
1001+931465875+935084936+938046761+940533588+941710211+940273859+939520413
988+942119555+946526403+951462275+955536514+957014502+957466927+960208114
974+964166529+964865194+961715007+958548991+958087137+958090922+956169524
961+954973838+956230017+957777101+957789695+956868258+956270621+955825353
947+955192893+953759639+951827505+952320534+954350256+953877046+951852831
934+950452885+949389747+947470964+943002384+937809124+935308120+934716540
920+933610113+931818304+931338901+933422027+935600401+934640149+931502831
907+929317163+928326424+926924689+925922457+926298079+925846341+922835860
893+919035251+917224103+917077859+916586275+917211715+920062602+921584360
880+920209190+919634608+922058533+925295021+926905488+927524734+929953683
866+934714131+939454346+943279317+947533797+954365396+964021731+973487501
853+981132833+988165251+994355237+998981003+1003461352+1008892936+1015003917
839+1021152886+1027243702+1033425567+1039567998+1045607130+1048401997
827+1047495838+1047861826+1048503026+1048135387+1049851356+1051120267
816+1048676591+1045481258+1042789415+1038308791+1035861467+1037044490
804+1034873756+1031140935+1032467174+1035031630+1035222882+1035371328
793+1033281182+1025090104+1015710083+1011973202+1010633543+1005446133+999487934
779+996814329+994180158+989209119+984230717+980778064+978309130+976322628
766+974734390+973579308+972305717+969569347+966621836+967100620+970061757
752+969373346+963505164+958292360+956493256+955598934+955208928+955202803
739+954236977+953282851+950558937+944243836+940278883+941293985+940913064
725+937358694+935495174+934492047+930536730+926568956+924823945+923687926
712+925456267+931532424+939079137+946722060+953104675+956034086+956795721
698+958855380+960513058+956749061+950710962+949106138+952394654+957134180
685+959967036+959814393+959393969+962668514+964965465+960478304+957477663
671+959033900+958574661+960014316+966371811+967649600+959843985+952912941
658+958222094+968046694+969025184+964452203+963611836+966090129+967132484
644+973133558+991353977+1006068477+1000926970+977666416+944215413+925391232
631+936124881+960772167+976655237+976671273+967797977+954406482+941556673
617+936829534+935823654+938184815+951628476+972500272+983090293+975834691
604+971973933+980186277+993220869
##END=
