##TITLE=Sample description
##JCAMP-DX=4.24
##DATA TYPE=INFRARED SPECTRUM
##DATE=13/9/2023
##SAMPLING PROCEDURE=Instrument type and / or accessory
##ORIGIN=Default
##XUNITS=1/CM
##YUNITS=ABSORBANCE
##RESOLUTION=4
##FIRSTX=4397.6552
##LASTX=599.8556
##DELTAX=-1.9287962
##MAXY=1.714349
##MINY=0.33293429
##XFACTOR=1
##YFACTOR=1.596612e-009
##NPOINTS=1970
##FIRSTY=0.3533375
##XYDATA=(X++(Y..Y))
4398+221304554+219977086+220058936+220242254+219745665+220234863+221898001
4384+222465578+221588482+221236628+222235482+223241168+222955056+221998256
4371+221339235+220778659+220268014+220612158+221506557+221425845+221109774
4357+221921408+222417867+221738967+220883823+220634147+220869823+220262470
4344+219092150+219327547+220503373+220732890+220097425+219952316+220517783
4330+220338422+218528662+217048450+217633721+218403824+217573468+216313981
4317+216113919+216946459+217618415+217271844+216738203+217114378+217925844
4303+218585332+219073036+218668153+217213102+216104418+216232747+216408916
4290+215869208+215986636+217218795+218677840+219579052+219354109+218598249
4276+218327611+218558397+218572098+218188362+217713052+217165037+217065940
4263+217610109+218049450+217989010+217641748+217369785+217176349+216972405
4249+216957173+217601037+218384915+217869809+216907354+217117570+218018913
4236+218547178+218310998+218202474+218552237+218214065+217721937+218269018
4222+218874281+218703450+218616896+219100270+219714941+219866546+219372924
4209+218856866+218655814+218171712+216847567+215487283+215624124+216851094
4195+217390317+217142900+217222771+217749619+218178787+218383422+218418794
4182+218213711+217775583+217589838+217853364+217788798+216967850+215679319
4168+214998347+216059190+217217694+216547231+215637918+215839268+216175815
4155+216129374+215851513+215318580+215011581+215545297+216509134+217131327
4141+217260626+216877955+215926102+214992784+214854357+215044060+214805994
4128+214482867+214432488+214830652+215852950+216659376+216005600+214454719
4114+213873871+214335033+214712085+215019495+215328809+215348745+215215152
4101+214905820+214397022+214139544+214535897+215239586+215442336+215170130
4087+214864045+214407494+214087802+214353643+214877877+215428616+215980084
4074+216326898+216749402+217541773+217869603+216680823+214692374+213681910
4060+213779795+213779589+213532526+213683105+214235972+214581554+214271307
4047+213872882+214384180+215366123+215699422+215617236+215638329+215541023
4033+215395577+215407244+215685255+216484644+217283118+217207633+216147630
4020+214680129+213975507+214485910+215316266+215722531+215720907+215899615
4006+216587456+217195668+217332135+216956651+216016408+215014717+214536812
3993+214690246+215315276+216366582+217740155+218651521+218594646+218074127
3979+217653302+217368889+217171963+217522790+218329888+218546282+218093147
3966+217783553+217926889+218553544+219228953+219353511+219157836+218784591
3952+217890677+216823581+216475087+216568380+216450504+216989372+218329160
3939+219207151+219196568+218396619+217423337+217439763+217979173+217541754
3925+217051586+218175109+219114307+218097739+217177861+218702535+221048475
3912+221880941+221110185+218721313+214836214+212255941+212770338+215034820
3898+218503220+220944375+219600668+216874931+217294841+218329010+217496191
3885+217263127+217282054+217286852+219320417+220125947+218309505+216511766
3871+215134160+215365395+216554324+216448413+217678240+220981688+222491094
3858+220240985+213786309+208525490+214110014+222160370+225505463+223680658
3844+219031785+214927043+212673667+212925527+215836729+218516753+219814244
3831+221038956+222183815+222466922+220800871+216601213+215119788+217915690
3817+219448484+222163413+226555480+227605236+224241384+220308873+219398403
3804+218840869+219218911+222606804+224902570+226477139+229205059+231239875
3790+231821264+231227238+230069817+230102389+230612194+230280966+231542320
3777+234744991+236407009+234758934+232030958+232272663+234954068+237846866
3763+239704373+239539496+240151255+243498961+245826179+245451161+249133155
3750+264538037+284201897+308606393+340891628+363020741+370439795+368668207
3736+362781891+360733076+364514243+368804133+369878173+369784171+371958011
3723+376463082+382042902+387471379+392751611+398564121+406944958+422519103
3709+444464058+469696166+498385698+529727554+559027240+578345705+584105466
3696+580022656+569232079+550266961+528849058+517963882+514425186+508007860
3682+498315440+488461857+477807541+465437486+457931075+453743177+445886891
3669+440023646+438294430+435066784+429817351+424350124+417863398+409567080
3655+402907022+396342758+385217089+375707110+376565483+381271027+383469058
3642+382887538+380805273+378065817+375335769+372297433+367152007+359449678
3628+355836020+356964453+355333867+348967537+340132072+333901518+331076870
3615+328190401+325805225+324738203+324285926+325592955+327430658+326976141
3601+324900559+322934584+320570762+317799163+315957839+313703512+308552374
3588+303492644+302445893+302252849+300382332+297748376+295731312+294579770
3574+293660919+291798110+287525356+281636987+278885491+280092732+280924077
3561+280112798+278725990+277234448+275662623+274181497+273070834+271828669
3547+270045508+268551577+268128456+268227759+267786010+266719978+265668878
3534+264758837+263549674+261885340+260453753+259680851+259125184+258739470
3520+258555629+258143932+257622106+257087456+256244781+255445672+254852019
3507+253678694+252106366+251670571+252429586+252936124+252697928+252093467
3493+251408277+250509081+249480959+248967905+248880847+248481881+248070707
3480+248101655+247999683+247546099+247165313+247165817+247335267+247140768
3466+246577298+246013977+245815166+245844882+245533702+244997017+244633162
3453+244443011+244119474+243338396+242664162+242809085+243194724+243195265
3439+242984526+242821143+242848526+242917646+242989753+243253373+243410932
3426+243112650+242571579+242386263+242637209+242764287+242829711+243182946
3412+243593597+243703372+243613085+243845924+244425951+244678203+244321626
3399+243886933+243935969+244351959+244864470+245367462+245451123+244986695
3385+244644268+245007974+245780149+246273528+246373279+246466870+246891670
3372+247595116+248027644+247992664+247934930+247892708+247620913+247515095
3358+247893828+248129579+247823289+247669332+248061784+248248052+247737762
3345+247141122+247016564+247276525+247412843+247111201+246773384+246326110
3331+245368750+244508324+244298201+244177040+243512251+242784987+242307101
3318+241270691+239668814+238334365+237082568+235390628+233970670+233402814
3304+232798764+231640223+230538072+229929467+229700193+229719718+229843156
3291+229561318+229002814+229166589+230159675+231180424+231859921+232070772
3277+231735979+231272652+231262741+231890067+232637901+232921437+232993264
3264+233247643+233394937+233168518+233095684+233605676+234175361+234372642
3250+234273488+233991296+234042739+234729031+235446421+235798760+235917438
3237+235823119+235677804+235917065+236637478+237383837+237860212+238155657
3223+238263770+238610472+239628738+240449201+240713082+241220032+241768438
3210+242162589+243154947+244679397+245929924+246765227+247595452+248650397
3196+250096637+251973426+253857216+255144085+255553841+255462396+255457823
3183+255682785+256026519+256668050+257816456+259038853+259865868+260576687
3169+261406166+261990766+262259239+262701790+263615658+264805688+265882865
3156+266601841+266909997+267083386+267562019+268249524+268771182+269190009
3142+269635043+269870627+269735056+269595882+269762065+269767311+269160312
3129+268271662+268077312+269001744+269588677+268781056+267690385+267415155
3115+267513898+266771384+265293486+264210692+263935126+264028232+263427019
3102+261981619+260822761+260449665+260152503+259332376+258702567+259301204
3088+261199048+262875664+262516344+260932144+260333059+261048955+261698942
3075+261632752+261603484+262216643+263090491+263281630+262613855+262018242
3061+262127513+262643851+262848859+262494337+262109239+262296421+262646408
3047+262061342+260756982+259923415+259721748+259340832+258223785+256735491
3034+255432997+254295287+253288557+252412936+251460392+250582401+250533869
3020+252301873+255272526+256547860+254721506+251551146+248897329+247107244
3007+245832973+245124002+244855025+244440398+244142657+244569959+245781250
2993+247879268+250839095+253807116+255820260+256985969+257877139+258882899
2980+260105315+260970539+261145309+260732548+259608632+258091424+256770975
2966+255735125+254934840+254654906+254889556+254760761+254050744+253632365
2953+253445388+253155916+253223076+253293802+252875348+252561610+252570756
2939+252451929+251917055+250952211+249799941+248988251+249042495+249570481
2926+249641523+249059033+248271011+247894985+247990798+247876282+247407430
2912+247115531+247309583+247884215+248368112+248562312+248796720+249031855
2899+249099837+249292003+249645070+249824450+249839159+250116236+250717729
2885+251180626+251489492+251933967+252410024+252766283+252904821+252893006
2872+253068709+253271253+253090865+252731246+252377172+251939081+251630364
2858+251459365+251048695+250424169+249808024+249174501+248676436+248589378
2845+248883741+249378650+249834212+250119074+250464226+251007929+251630327
2831+252309918+252991301+253545643+254000496+254477374+254896910+254991342
2818+254822060+254789506+255060350+255404774+255676346+256091552+256661536
2804+257202009+257861124+258594491+259015446+259271413+259783514+260342784
2791+260575978+260523956+260372892+260339704+260477235+260494184+260184888
2777+259880409+259950668+260064941+259806081+259274567+258667363+258297217
2764+258428476+258775215+258995847+259009361+258881686+258973709+259392798
2750+259793071+259994085+259990277+259837272+259654849+259503263+259417194
2737+259362372+259236545+259092014+259066666+259081095+259076073+259148871
2723+259164494+258939308+258625775+258444398+258397304+258407887+258440646
2710+258501367+258574967+258613979+258623722+258536067+258362492+258271309
2696+258238195+258082745+257670973+257224763+257110845+257206750+257201225
2683+256937326+256403031+255790320+255260337+254840894+254519634+254189246
2669+253776280+253396614+253046291+252656900+252389864+252192994+251837855
2656+251467597+251292529+251211724+251134353+251186488+251322264+251267871
2642+251066820+250999212+251063049+251145758+251268842+251293182+251086102
2629+250958819+251162296+251542522+251941190+252254293+252446273+252556234
2615+252611859+252756688+253125939+253710146+254344696+254778176+255060480
2602+255513840+256130228+256656944+257184519+257841039+258435364+258872297
2588+259219167+259458166+259595660+259739966+259916360+260079239+260318705
2575+260766091+261206925+261295234+261201923+261227514+261305034+261327788
2561+261354685+261455780+261481745+261427688+261597287+261965735+262171751
2548+262086560+261961703+261975497+262065094+262224203+262427923+262573275
2534+262647510+262792992+263054241+263222272+263185706+263059318+263071899
2521+263320175+263635388+263940110+264202665+264296014+264340850+264569303
2507+264896498+265177477+265470907+265718081+265819531+265942726+266212207
2494+266542166+266864023+267177630+267566312+268111900+268726178+269256516
2480+269583152+269646896+269537551+269380197+269197233+268941546+268638000
2467+268505211+268689929+268987857+269111985+268944496+268529103+268158303
2453+268163548+268508029+268925904+269257823+269516011+269816533+270144625
2440+270385360+270585888+270729747+270739341+270739789+270743802+270628129
2426+270547940+270715206+270941345+271059369+271262287+271512019+271628812
2413+271734238+271869380+271921383+272011204+272300713+272606219+272792431
2399+273112272+273857754+275454871+279085422+286785063+300803604+322671916
2386+352155126+387063677+424734381+463640139+503714797+545853017+590719045
2372+637264974+682636514+723417792+758557465+786554489+801687445+804877834
2359+800625948+783331846+751659341+711501133+671689591+649425037+656065122
2345+684466228+703879143+699554012+687520131+677504341+672093373+672980903
2332+677155735+677573928+672701212+666500076+660192618+651520853+638762209
2318+620977304+601525190+590692054+591964215+592817437+579926863+554369295
2305+526900778+506949611+494218594+482763619+470251292+456166916+439419018
2291+421781013+406090094+392465424+380385774+370616263+363463311+358235195
2278+354001714+350189972+346846896+344000558+341523844+339404061+337573190
2264+336009355+334773741+333693429+332578585+331497004+330465410+329471633
2251+328585858+327774971+326951166+326104403+325355001+324816488+324420695
2237+324050735+323727104+323588453+323667634+323782803+323876805+324037034
2224+324102888+324023744+324000486+323942734+323867024+324146193+324772735
2210+325406893+325916735+326396152+326959081+327554675+328166023+328907286
2197+329693310+330367899+331028749+331824816+332719663+333630936+334502189
2183+335352461+336308346+337281404+338126935+338969816+339859212+340680030
2170+341419613+342223408+343163464+344077910+344905223+345748328+346615325
2156+347547094+348571221+349576571+350573670+351648980+352721415+353722994
2143+354796101+356141992+357809760+359612931+361293279+362810562+364277708
2129+365762698+367298273+368928821+370668117+372505745+374413296+376275489
2116+378154219+380243054+382459116+384677418+386962806+389397969+391929636
2102+394505018+397267881+400329437+403623796+407024849+410524794+414312569
2089+418522717+423091029+427953404+433146204+438778700+444932425+451337617
2075+457763455+464507211+471845516+479586782+487151953+494447700+502074805
2062+510118758+518279972+526547394+534895230+543029639+550887268+558933947
2048+567097214+574630615+581328192+587806369+594734060+601973696+608853639
2035+615194509+621320160+627260384+632827549+638189388+643609540+648943305
2021+653806912+658145856+662308444+666494326+670573664+674646356+678714120
2008+682254160+685136411+687778020+690523263+693328909+695854117+697832785
1994+699316506+701050874+703472225+705859230+707686704+709027219+710016964
1981+710852453+711803597+712620569+712705985+712606682+713131718+713510936
1967+713280374+713737616+715159292+716253566+716645626+716878652+717330294
1954+718056849+718851571+719422601+719631585+719618370+719844377+721369313
1940+724289717+727162486+729452353+731470220+733561407+735989029+738782504
1927+741936905+745060843+748333512+752148987+756122749+760900045+766817906
1913+772384026+776859903+781422615+787405658+794324240+800965893+806921534
1900+812357365+817426746+822534504+828012670+832859478+836913280+841736643
1886+846846716+850933818+854925052+859264742+862607072+864863863+867182700
1873+868889069+868046562+865990990+866524463+868617442+869409253+868728617
1859+867619186+866335041+863592785+859681815+856514199+853811066+849760101
1846+843571733+838270819+837137122+836494938+833437078+829455251+825076288
1832+819007755+812312716+807896570+804827510+801782193+800170498+799289016
1819+797326774+794449451+791281461+787322034+783383289+781478239+780692028
1805+779008731+776124464+772709486+770213397+769186469+767765466+764832668
1792+763518807+766030799+768368974+768184704+767078483+766366787+766460042
1778+767400733+767047199+763603252+759552809+760042380+763901758+767056457
1765+768038064+767423654+767764570+769268973+770249385+771249956+771228975
1751+768948889+767762106+770292018+773734696+775630562+776148655+776861173
1738+777588324+775809457+774336786+778818860+784995059+789976187+793680711
1724+796017990+797201339+795616896+791141914+790633603+797664180+806035274
1711+811977326+814086059+813172621+813032701+813180311+811113315+812502736
1697+819743717+829075959+838195931+843929373+847051743+848394722+846071779
1684+845562272+854261663+864429693+870692501+873880800+877238510+879772753
1670+881182706+887556764+896492914+901127751+904258558+910258251+915384973
1657+915256477+908863156+905942154+915241917+921119311+923009652+930286844
1643+939697707+945265395+946228933+942644020+939627299+944235854+950578703
1630+954039524+956263986+957170257+955937481+957517220+961846532+963349143
1616+963978635+967572358+970357994+970223972+969672952+972043755+976541584
1603+980268806+981243842+979430405+978430431+981046804+985172134+987916705
1589+989618370+991502813+993693078+995743648+996368137+994925182+992022399
1576+991516028+996244195+999083290+997053701+996390237+998913280+1001169101
1562+999413528+989629495+984870567+998575127+1010902363+1016601235+1021050532
1549+1027439224+1032347704+1031734415+1026343158+1022055956+1029710948
1537+1040855507+1043922103+1045459134+1051730679+1055792993+1054551780
1526+1051864999+1048311818+1044942087+1046525186+1050359999+1053746306
1514+1057151204+1058596921+1055101455+1045649527+1044102939+1059556352
1503+1071563055+1072446703+1066481803+1063917397+1068064081+1069674581
1491+1065429565+1063328746+1068436952+1073741823+1073305487+1069121396
1479+1066316199+1063888502+1058399958+1052209424+1051775850+1055478658
1468+1055389285+1050445862+1046457017+1045194376+1039930272+1025886215
1456+1015331799+1016828362+1017966614+1015054049+1010951492+1006392289
1445+1000415518+993616846+986225567+975811819+962795734+954269041+949370865
1431+941902607+934511328+933860334+938663538+941599098+938417893+934896146
1418+941333071+953678151+962735854+968282337+971122253+970357994+970363593
1404+976241584+983079902+985693736+987039105+989645548+994672221+1002377387
1391+1008421505+1010677475+1010432801+1008870310+1008056249+1010012668
1379+1014433443+1019082989+1022141297+1024949407+1029120655+1033006762
1368+1035050239+1035120572+1033872192+1032286330+1030663286+1029493153
1356+1028669237+1027186337+1025018919+1022117703+1019069698+1018124080
1344+1018101905+1014734264+1008450549+1002692394+999057830+997967438+997512809
1331+995875952+994577174+995471423+997803775+999540905+1001264521+1004562053
1317+1007614239+1007990918+1007733029+1010077177+1013843374+1016770349
1306+1019517010+1022711207+1024790746+1024672553+1024183877+1025441740
1294+1027971578+1029675856+1030016697+1031206317+1035373011+1042129423
1283+1048812440+1053591527+1056882488+1058438783+1057563498+1055407876
1271+1054138590+1054079979+1052552430+1047709654+1041048439+1034851334
1260+1030584292+1027986884+1025722029+1023509662+1020843265+1016751011
1248+1012168215+1009154406+1008270161+1007812248+1006088930+1003767405
1236+1002194236+1001442744+1001624028+1003159491+1004712650+1004079575
1225+1001942843+1000645856+999735554+998564152+998975102+1000846478+1002624524
1211+1004207101+1004437961+1002595779+1000781521+1000601133+1001919622
1200+1003803542+1004646124+1004292889+1003288436+1000838937+997780106+996136081
1186+995935086+995727073+994689916+993943874+993790589+992780909+991300100
1173+990067100+987903788+985301378+983564695+981234211+978037849+975983770
1159+975315528+975270953+974984841+973236735+970186043+966867531+963486749
1146+960241557+957291436+954396716+951906899+950285796+949614717+948500956
1132+945441378+942343871+941101090+940210051+937929591+935218470+933510757
1119+931654911+928456533+924765747+921843775+919220682+914919220+910654865
1105+909901432+909334136+904767766+900366776+899908862+901149777+901434171
1092+899573024+897402619+897577631+898133803+897908467+898281189+897664465
1078+895915762+896180819+899511650+903854551+907118260+909449417+910343816
1065+909528411+909369900+910995781+913782462+916676958+918703261+919469239
1051+919619537+920852611+922906317+924546160+925866442+926407756+925167289
1038+923647356+923968635+923841557+922364854+922161470+922085462+920686708
1024+919362992+918563715+917533875+915319418+912396028+910361212+908683066
1011+905751911+903009057+903491834+906102383+905938496+902462144+899961426
997+900071630+901850796+904739020+908301534+911332590+913452373+917227231
984+923420005+928954915+931731068+932183830+932718349+934463618+934574718
970+931777136+929040853+927720123+926692822+925428389+923959899+923595689
957+924322542+923517740+921908658+921705273+921325234+919325735+916657022
943+914051401+911824849+910102427+908850911+908370374+907333815+903958633
930+899890570+897453614+896274373+894009518+889259922+884733199+882884968
916+881578275+878221834+873305664+869399099+867754925+866923094+866309879
903+866330263+865782155+863915258+861436118+859013050+857426741+857190056
889+858535649+860637140+861459413+861598587+862878401+864828697+866806992
876+868363958+869321672+870751113+873382791+877145106+881985791+887972791
862+895098117+903480858+913053817+923074684+933347617+944920821+957906592
849+969678403+978577594+986969593+996768335+1005404112+1009723718+1012786581
835+1018400560+1023488682+1025778773+1026848558+1026643083+1026952863
824+1030170952+1033450042+1033987099+1033387100+1033247927+1032832945
812+1031424933+1029753208+1027149901+1021737365+1017724703+1020493464
800+1025213194+1024351722+1019251356+1015130207+1012255273+1008797512
789+1005744356+1001967855+996693149+991607417+984770891+976456990+971278525
775+969057871+964523905+956902587+951678278+950060311+947435203+942546882
762+938821974+937532902+936759907+935526683+933678154+931411880+930115341
748+929995879+929211609+927053822+925184835+924528913+923908755+922103157
735+919107343+916250925+914750703+912824076+909190034+905760198+903109032
721+901033823+898791442+895816086+894186396+894561135+897573599+903813337
708+909926295+913384653+916038283+920483025+926282171+931066933+932892391
694+932850654+935638380+941259826+943673785+941730731+939612516+938606270
681+937747262+937279343+938830411+943673859+948256357+947053894+941096461
667+936344178+934321458+932961380+932552521+932493237+932677807+936271754
654+944555416+951413296+952752020+951668647+948047298+938009631+924887300
640+921386010+930397944+939435637+941991457+942099795+944236078+945675823
627+939360973+929358623+924511591+924631501+922780434+915899184+911729727
613+915577532+921520256+929847821+949541546+971655652+972321281+953062099
600+936988303
##END=
