##TITLE=Sample description
##JCAMP-DX=4.24
##DATA TYPE=INFRARED SPECTRUM
##DATE=13/9/2023
##SAMPLING PROCEDURE=Instrument type and / or accessory
##ORIGIN=Default
##XUNITS=1/CM
##YUNITS=ABSORBANCE
##RESOLUTION=4
##FIRSTX=4397.6552
##LASTX=599.8556
##DELTAX=-1.9287962
##MAXY=1.7527306
##MINY=0.35011756
##XFACTOR=1
##YFACTOR=1.6323576e-009
##NPOINTS=1970
##FIRSTY=0.37056926
##XYDATA=(X++(Y..Y))
4398+227014756+227576385+228091640+227554403+225376553+223135771+222736485
4384+223875590+224496190+223867776+223425349+223790402+224459018+225013819
4371+224897904+224269545+223855325+224122775+225008177+225425246+225387563
4357+225246872+223675564+221711068+221846665+223222748+223535312+222715599
4344+222680125+223932790+225032131+224997661+223992893+223316609+223354620
4330+222916976+222294204+222248817+221974429+221331902+221104600+221321970
4317+221409313+220792292+219959415+219843573+220265534+221144236+222138999
4303+222334516+222212047+222005977+221101642+219995711+219149433+218480105
4290+218335033+218921857+219601647+219792143+219883611+220146442+219922919
4276+218750659+217492353+217360024+218136066+218421956+217706601+216933955
4263+216610857+216459377+216438911+216899395+217728108+217762761+217230343
4249+217546723+218425973+218965236+218773627+218263976+218349785+218894727
4236+219234768+219241048+219094990+218815527+218542435+218402348+218193978
4222+217886910+217267478+216553365+216986080+218503675+219524966+219751210
4209+219532744+218619371+217350001+216052058+215234847+215609467+216370227
4195+216712294+217299082+218416077+218689552+217450653+216396189+216634482
4182+217055804+216881484+217110229+217968939+218367969+218144391+217589591
4168+217120015+217460384+218379344+218634525+217539876+215760308+214485826
4155+214588742+215301924+215125139+214786285+215485920+216424214+216823737
4141+217036871+217141339+217031120+216921468+216854080+216792571+216414355
4128+215821251+216286719+217765572+218513918+218136942+217416421+216683211
4114+216322430+216410813+216395915+216608283+217467596+218242323+218398623
4101+217844973+216978375+216724709+217235364+217882966+217982066+217567700
4087+217302112+217384617+217778261+218438260+219094169+219304109+219104630
4074+219209737+219304145+218748468+218383963+218590361+218642229+218634707
4060+219081535+219610209+219907054+220516863+221502845+222037873+221702341
4047+221024980+220889694+221622356+222598716+222918966+222513528+221916645
4033+221410189+221114933+221066917+221355655+221891103+222383957+223000777
4020+223726739+224404849+225248899+225885620+225707338+225242180+225581692
4006+226503590+226870469+226758388+226807938+226759812+226448344+226399944
3993+226805747+227266724+227769400+228760841+229906317+230240918+229705415
3979+229043098+228819775+229140701+229603138+230163069+231021633+231663922
3966+231807844+231914594+232570905+233640048+234355147+234498101+234087058
3952+233373018+233230703+234063871+234155559+232340937+231930715+234884278
3939+237692112+237637011+235253220+233251224+234335192+236911524+237513100
3925+237097583+238096637+238313697+236671642+236932063+240400389+243241688
3912+243554379+242514594+239192399+232937108+228371305+228953911+233143068
3898+239136295+242873951+241132522+237813997+238991552+241050310+240625227
3885+240513857+239859610+239783386+243792691+245791821+242993810+239597874
3871+237243240+237792618+239693725+240024838+242782847+248624174+251126418
3858+246724144+236215595+229418831+237823692+248650026+253401360+252265779
3844+248035506+243236119+239081943+238759831+243170229+247020496+249153980
3831+251781451+254069867+255010114+253164655+247146854+244703051+248882313
3817+251567239+254847770+259928410+261311376+257489116+253678870+253521675
3804+251439858+249901486+254866904+259884337+263556321+267591242+269965101
3790+270963114+271518864+271660869+272683018+273374273+272637375+274291005
3777+278762601+281593567+280660732+278563123+279828933+283668793+287609761
3763+289684038+288609454+289012993+293344922+295677447+293541972+294664828
3750+307222751+321468390+337423490+367676591+399557872+418229866+423828846
3736+423094906+427809396+439041096+448775922+451913135+451644425+455472235
3723+464938059+476818584+489100367+500780829+509435485+514865038+523996280
3709+541879234+563910996+584316624+604167268+628238691+651293333+666622392
3696+675384766+676584119+669231131+660324745+658168274+661841263+665504101
3682+664196737+656085197+642836439+629776972+627479117+629395615+626887072
3669+628517735+633442512+633405340+629635442+624021491+614830511+603255612
3655+593951035+583595828+567855616+557224725+561475117+568901755+570197288
3642+566559280+562066761+556485271+549228754+542637749+534383328+521713945
3628+516814326+522099647+524115135+518071847+507255024+500569410+499173974
3615+496639360+492980794+489926543+487118143+486573055+487729030+486622715
3601+482591118+478189848+474373540+471266671+470186866+469367445+464995862
3588+459864339+460328475+463699599+464402903+461828087+458898423+456904040
3574+455321941+453095582+448435535+442243049+440222193+442703934+444291509
3561+444278474+444099407+443184464+441043074+439088309+438168401+436274871
3547+433249100+431853555+432089621+431928847+431083501+430143291+429163279
3534+428181917+426905408+424746308+422356985+420699156+420014802+420163416
3520+420355445+420239548+419542451+417235431+414008211+411939594+411293106
3507+410465652+408618422+407303244+407495895+407625046+406904178+405661409
3493+403981050+402509444+401582963+400416217+398741555+397265567+396366837
3480+395444007+393822583+391921750+390696398+390228319+389585373+388020108
3466+385675515+383400190+382093374+381544269+380806093+379834809+379109303
3453+378254098+376463466+374032845+372322581+371497172+370494704+369586808
3439+369269571+368665877+367302975+365826733+364864540+363921737+362129681
3426+359861111+358018591+357055340+356895955+356736204+355765029+354334283
3412+353378152+352600686+351250747+350149727+350184342+350298779+349302628
3399+347785416+346608519+345529115+344441678+343586619+342743062+341900381
3385+341090053+340118622+339226976+338427054+337382339+336464986+336109335
3372+335964409+335649655+334869012+333640666+332658135+332041296+331295708
3358+330178293+328799835+327660475+327033668+326622661+325967373+324981665
3345+324053541+323331979+322365697+320976395+319873293+319094294+317895196
3331+316508121+314962939+312940659+311242883+310126709+308927319+307671842
3318+306473584+304963547+303157962+301414142+299909819+299046672+298726258
3304+297699800+295471213+293119007+291832110+291489550+290956932+289867833
3291+288795075+288167282+287945457+287997070+288291723+288403220+288050710
3277+287786071+288028217+288559338+288718486+287812179+286299769+285416411
3264+285400235+285504520+285260586+284749000+284225182+284031673+283939584
3250+283223974+282147181+281566181+281434163+280961830+280192124+280138594
3237+280669185+280948776+281136205+281442233+281613869+281230723+280323612
3223+279767205+279945724+280539614+281286864+281755563+281526234+280905671
3210+280715960+281253070+282127134+282548328+281922197+281177722+281389159
3196+281875331+282215207+282959171+283730320+283901299+283673339+283489452
3183+283818173+284725558+285664089+286225480+286485682+286531946+286296866
3169+286160192+286652717+287414774+287946224+288519829+289002842+289108588
3156+289580245+290571868+291262411+291358773+290807387+289873037+289409139
3142+289713432+290350372+290823855+290832782+290660197+290770781+291051650
3129+291245396+291126998+290544428+289837910+289285190+288905842+288840207
3115+288692652+287940491+287225684+287067120+286866911+286326205+285715884
3102+285151590+284670585+284462599+284557281+284618844+284579080+284703685
3088+285034123+285443925+285811424+286066514+286353810+286778747+287032541
3075+287158570+287740775+288566330+288866370+288552217+288117239+288074627
3061+288425257+288885394+289429806+289909003+290182935+290271793+290228121
3047+290549412+291214194+291365145+290999453+290808190+290860826+290867581
3034+290759480+290571759+290694557+291386743+291822580+291504082+291272088
3020+291853361+292900851+293600377+293961523+294641076+295530915+296062601
3007+296606393+297948920+299845499+301747774+303818728+306444738+309996937
2993+314728188+320712286+327717218+334689544+340807979+346401336+351429120
2980+355447390+358928130+362399230+365535092+367894217+369600246+371093030
2966+372427962+373139300+373344547+373813393+374501398+375104654+375608736
2953+375828553+376155430+376822622+377294827+377403275+377171773+376442214
2939+374979226+372523921+369582390+367107404+365294279+363943865+362905065
2926+361841947+360469478+358789046+356930497+354667258+351800910+348668920
2912+345534446+342680914+340554349+339155152+337917166+336329554+334576057
2899+333160318+332304858+331988387+332184324+332698374+333012362+333160720
2885+333856028+335143966+336354457+337239677+337944698+338327771+338091230
2872+337268048+336194450+335069659+333941691+332775018+331193248+329071686
2858+326836417+324531515+321893857+319079323+316247737+313260562+310348973
2845+307937668+305840332+303804907+302088436+300965014+300241316+299463466
2831+298618431+298034345+297715866+297463168+297209119+296921841+296555893
2818+296187609+295936298+295788999+295568798+295191075+294934926+295115088
2804+295662695+296175249+296395230+296490496+296697040+296999307+297171436
2791+297140070+297045114+296929199+296823544+296597502+295999778+295374943
2777+295189778+295052904+294454669+293666706+293050689+292443289+291753914
2764+291320323+291278843+291290911+291053512+290654263+290302538+290059297
2750+290008615+290002079+289693458+289241793+288957090+288725789+288387957
2737+288070135+287858717+287689637+287700280+287865435+288004701+288297237
2723+288719527+288907448+288813825+288663294+288523718+288406433+288452259
2710+288553477+288510317+288470279+288527680+288550337+288475245+288377405
2696+288374063+288342460+288064768+287843983+287960409+287927583+287445994
2683+286937932+286650691+286370022+285946199+285504228+285104651+284604859
2669+284001403+283527847+283224284+282835478+282392193+282122917+281916172
2656+281610418+281184094+280682805+280369310+280469305+280772338+280795890
2642+280486065+280224257+280064378+279892687+279827436+279943771+280139926
2629+280240232+280289197+280483509+280699693+280843779+281161656+281665610
2615+282065662+282270472+282557822+283160055+283841524+284356141+284694411
2602+284870721+285093550+285552190+286195045+286837955+287257817+287474840
2588+287540037+287336286+287085669+287221320+287619401+287833668+287843728
2575+287864942+287865837+287660242+287368054+287297544+287279926+287028031
2561+286764871+286705992+286589620+286254272+286130287+286411266+286544470
2548+286271196+286004202+286056327+286352569+286666556+286929187+287146374
2534+287210001+287226998+287425162+287712805+287872592+287942024+288182034
2521+288576646+288804952+288979418+289465627+290071675+290395777+290508899
2507+290727420+291158400+291657717+292100802+292462751+292661335+292756528
2494+292976035+293298421+293582722+293900289+294302787+294707623+295044305
2480+295203143+295137453+294964265+294817422+294744138+294677097+294611736
2467+294646206+294743079+294748939+294699773+294826898+295039065+295044396
2453+294935930+294979656+295179719+295347411+295555580+295976263+296362130
2440+296477607+296467036+296502418+296572362+296601409+296587168+296565424
2426+296585671+296692951+296849524+297056142+297396913+297759793+297946893
2413+298033214+298227982+298544507+298854551+299252194+299814096+300261161
2399+300484575+300709650+300991596+301209496+301395355+301561441+301490968
2386+300969414+299741086+297400509+293901950+289765428+285404836+280825777
2372+275877247+270682300+265979530+262062716+258665776+256345374+255793184
2359+257035424+260149413+265213859+272293975+279890241+283912308+282030097
2345+276851909+273558543+273495081+274986203+276754708+278241960+279597449
2332+281059251+283052118+285693282+288370795+290887116+293672950+296887134
2318+300286612+303436622+306006656+308263778+310684358+313237521+315669859
2305+317896948+319913678+321738123+323435826+325064443+326529659+327815734
2291+329156618+330641917+332049111+333158566+334014465+334738217+335413771
2278+336205916+337137984+338009657+338684992+339131016+339432552+339953358
2264+340836496+341742420+342443315+342855928+343038245+343330835+343868803
2251+344427218+344878135+345409566+346069091+346600303+346942042+347221012
2237+347461533+347639175+347842634+348242321+348783904+349214519+349415165
2224+349420351+349445546+349789840+350291293+350565480+350773613+351224676
2210+351779002+352200488+352568736+353122040+353765059+354195053+354504075
2197+354988257+355662095+356352839+357020505+357793078+358665226+359451857
2183+360158046+360955303+361726817+362239991+362658556+363415136+364624421
2170+365839513+366786369+367734211+368766292+369669404+370482983+371506921
2156+372786351+374063955+375243664+376419722+377650368+378892079+380101109
2143+381260990+382395129+383657288+385073720+386597906+388293382+389980350
2129+391374289+392574190+393914855+395570420+397492906+399435293+401173746
2116+402847860+404635645+406500255+408413357+410320872+412180370+414071710
2102+416162089+418635140+421373249+423990058+426399938+428980707+432033936
2089+435289528+438431597+441657138+445178957+448998880+452983154+456839957
2075+460673427+465016091+469892231+474755408+479464422+484416731+489815028
2062+495533155+501501624+507662124+513772927+519713318+525718996+531948836
2048+538292529+544770302+551439740+558378472+565758372+573313103+580612707
2035+587527814+594116519+600474707+606647439+612845731+619079040+625213469
2021+631269245+636958708+642355617+647997684+653832621+659403631+664317673
2008+668691666+673131824+677729578+682101380+685972277+689244484+691980658
1994+694048690+695843157+698457664+701801731+704925031+707324250+709001359
1981+710522989+712260128+713863843+715060129+716052884+716674214+716278543
1967+715592145+716294318+717980190+719165449+719704987+720005939+720114387
1954+719868352+719493349+719531032+719760635+719272144+718000419+717778338
1940+719600190+721860362+723764956+725633984+727169928+728379652+729966205
1927+731941345+733787005+735840578+738071099+740179517+743803065+749687077
1913+755919145+761301302+766214687+771477296+777452302+783890020+790448819
1900+796800654+802236488+806906394+812355811+818044544+822492296+827338202
1886+833480810+839491089+844943427+849698996+853554192+856833190+859557388
1873+860650338+859012300+856948868+858456331+861911986+863996596+864920411
1859+865424676+865230419+864601640+863835786+861890515+857706616+851773821
1846+844683882+839571494+839920499+841227424+839385343+835749453+831727824
1832+825737263+818362366+814170725+812373192+810561199+810073147+809389815
1819+806574916+802901051+799682959+796344808+793019363+791332176+790603640
1805+788841818+785565376+782068094+780724655+781151217+779640760+774968297
1792+772492617+775947104+779913084+780877723+780291301+779472793+778886736
1778+778835543+777429517+773142502+769499455+771733920+777171506+781628753
1765+783179156+781577851+780674995+782025300+783908861+786025166+785158021
1751+780319344+778284321+781952417+786014723+787535915+787664519+789109250
1738+790971706+788449652+785118147+790101712+798632584+805982432+810749394
1724+812576797+812426211+808424300+801062840+799977411+808785939+819019261
1711+826148123+828638993+827336450+826424100+825880107+823009633+823512364
1697+830556879+840962621+851520191+857097701+858275511+856648646+851105095
1684+851183747+864952325+878209116+883991399+885560936+889410509+894208070
1670+897138136+904168483+913583223+918236187+921199189+927682622+933860649
1657+933883580+925476857+920915910+931864842+939683828+944009111+954934089
1643+966750093+971505297+968556609+960897483+958340376+967605992+977033001
1630+981015852+983186636+985059316+986093698+990038208+994845482+994993658
1616+996366747+1005120795+1012541627+1014399629+1014893450+1017477067
1605+1021092436+1022747417+1021315393+1020087412+1021932780+1025202138
1593+1027292809+1028643698+1030797832+1033401385+1035167151+1036202117
1582+1037508969+1037297697+1032776258+1030458393+1035878453+1037818101
1570+1033343473+1032184870+1035086965+1037635966+1036609180+1024503105
1558+1012813003+1024139859+1040052931+1051034142+1057734909+1061079195
1547+1059756933+1052685690+1041921230+1033111972+1039425248+1053855029
1535+1060330795+1062006443+1067374579+1071868193+1069412012+1064284434
1524+1060510081+1057830358+1058716198+1061994612+1066678686+1072071287
1512+1073335344+1066232407+1051697755+1046802920+1061013615+1072370851
1501+1073738756+1069063007+1066006309+1068801856+1070237239+1065905018
1489+1063643605+1068571815+1073243255+1073741823+1072550429+1071260739
1477+1067632444+1060425805+1052953195+1052348370+1057557376+1058709918
1466+1052528824+1046325384+1043549993+1035797172+1021697554+1016029196
1454+1019847220+1020872035+1017332032+1012716313+1011051181+1009104522
1443+1002883993+994511083+984191441+972095590+964343133+959314217+952985897
1429+948474244+945805987+943052724+942309801+942645734+943386101+949659357
1416+959748885+967980484+973091631+976258311+978779342+980079402+981053754
1402+983727999+988116452+993763267+998568569+1003266883+1010969315+1017604283
1389+1017533737+1013159525+1011595392+1013600328+1017536805+1023376707
1377+1027296753+1026885235+1027772609+1032259505+1035927747+1037246430
1366+1036902464+1035732541+1036824907+1040271507+1041449244+1039263927
1354+1036257984+1033893746+1032859000+1032386283+1030097046+1025383469
1342+1019337332+1013381095+1008395265+1004786907+1002974841+1001528795
1331+999867680+1000519901+1003723387+1006880281+1009159878+1010798501
1319+1011824411+1012860326+1015098808+1019182292+1022707543+1024413353
1308+1027919105+1032930714+1034535962+1033580160+1033935300+1035220097
1296+1036098635+1036505260+1036588805+1038193396+1042604707+1048618565
1285+1055185032+1061384091+1065302456+1066384015+1066858118+1067888629
1273+1068148320+1066998188+1064218561+1060520597+1058477102+1058447233
1261+1057099412+1052557014+1048112401+1046123970+1044250268+1041476922
1250+1038776605+1035717570+1032421776+1030188186+1029547358+1029017752
1238+1026798404+1024145263+1022937365+1022576749+1022063282+1020527192
1227+1018188734+1017783277+1019668226+1021147719+1021539592+1020564729
1215+1017760711+1015563637+1016367174+1018787206+1019362162+1017263019
1204+1015059956+1014225017+1013953568+1014354132+1015820406+1016536674
1192+1015406040+1013393729+1010840273+1008854763+1008961458+1009272708
1180+1007251560+1004134540+1001320298+998394906+996697130+997298012+998256735
1167+997400836+994733529+992702303+992293560+991753876+991054259+990135921
1153+987303933+983484375+981097133+980224438+979365472+977438385+974330713
1140+971105610+968961847+968058260+967528508+965561621+961409708+957556484
1126+956187776+954969873+952056166+949545943+947358801+944288665+941666416
1113+939715084+937941942+936004704+932740020+929436119+927640996+924511123
1099+918730082+914250050+913015716+912721628+911891071+911004061+910413112
1086+910043877+910376305+912624354+916026844+918149940+918494125+917870677
1072+917921286+920529222+925034229+927786908+926658319+925816222+928592708
1059+931574552+931299087+929531203+930468237+934098066+936770631+937698829
1045+938250343+938491193+937150163+934393468+933210399+935133396+937548316
1032+937404084+934915478+933106041+933208062+932039746+929411947+929256176
1018+930192115+927880385+923826258+922375904+923326594+924427359+925977835
1005+927219254+925491317+922176681+921775387+923547799+923615277+923688160
991+926453035+930146764+933521356+936961602+940067302+943361490+947190177
978+949928104+950837240+950171436+948749490+948433494+949315756+949623719
964+947805445+944512718+943166941+944521701+946003092+947478495+947894760
951+944783290+941930927+942705983+943988517+943622423+941997968+940005447
937+939112449+938283206+934787166+929724437+926224746+924272976+923639450
924+924638996+924569911+922083277+919882113+918870589+917292069+916411998
910+917693728+917199250+913238892+910101935+909417874+909081722+908342742
897+907765229+908254158+911299829+915613135+917995265+918462723+918420439
883+918368662+918342517+918938725+921787145+926084823+929180007+930040141
870+929792062+931848410+936785822+940467355+942628353+946923621+953444299
856+959915172+965695410+971707953+977984203+983613417+989383942+996691945
843+1005408310+1013517586+1018310473+1021379075+1027951019+1037156386
831+1041454502+1038083268+1031728220+1028714828+1032127834+1037980152
820+1040548505+1041042254+1042723963+1043294903+1041192985+1039713201
808+1040529518+1041847836+1040554567+1036591288+1033479380+1031729315
797+1030447074+1030095002+1028553580+1022930647+1015518870+1010767390
785+1007887787+1003604715+998572293+994686133+990481201+984389933+978131502
772+973234111+970427172+969848052+968739839+965098763+960541175+957638203
758+957421965+958219294+957913961+956824734+955827671+953695957+950410021
745+947915354+946104821+944917298+944079364+941517145+939016855+939983319
731+942853428+943672520+940691700+935990464+932245614+928664496+924892772
718+921761585+918436798+917890249+923275401+929961270+935407766+942155929
704+946676345+944310793+938268089+934442616+935697764+939536090+941095622
691+939179928+937230202+939001007+942506468+943861154+942438916+940417768
677+942943692+948558446+949335912+944306630+938312345+938372009+942469588
664+944651473+947117294+951175364+954743922+954328825+950576892+950072993
650+954873840+957867076+955181146+954719676+956659835+951989198+944353369
637+937789166+932811881+935641020+941879369+943118377+943201630+944079072
623+943430576+941956268+937258830+931605151+937047703+948875830+951327410
609+950943424+957148106+961489383+957925061+953828723+954988715
##END=
