##TITLE=Sample description
##JCAMP-DX=4.24
##DATA TYPE=INFRARED SPECTRUM
##DATE=13/9/2023
##SAMPLING PROCEDURE=Instrument type and / or accessory
##ORIGIN=Default
##XUNITS=1/CM
##YUNITS=ABSORBANCE
##RESOLUTION=4
##FIRSTX=4397.6552
##LASTX=599.8556
##DELTAX=-1.9287962
##MAXY=1.843612
##MINY=0.47196755
##XFACTOR=1
##YFACTOR=1.7169974e-009
##NPOINTS=1970
##FIRSTY=0.48964274
##XYDATA=(X++(Y..Y))
4398+285173833+283691473+284177649+286121381+286656001+285314860+282973057
4384+281211385+281708062+283604427+284571919+283929892+283071785+283298818
4371+283983161+283595974+282197276+281917929+283219704+283773590+283216475
4357+282693345+282482820+283550463+285633018+286214624+284326088+282390271
4344+282350158+283130175+283805406+284203789+284066702+284241211+285110114
4330+285441551+284511776+283249402+282516892+282223555+282494744+283752536
4317+284910784+284234078+282619143+281867610+281954743+281672185+280307472
4303+279240090+279625368+280923359+282780722+284727873+285434538+283883895
4290+281144699+279394222+279427044+280467003+281187501+281152006+281254813
4276+281746613+281309262+280163390+280526660+282141542+282381037+280897566
4263+279921326+280027414+280201871+280483544+280535946+280247347+280384261
4249+280359319+279636425+278392744+276875653+276644593+278155106+279301274
4236+279747320+281170110+282986995+283583442+283294149+282737381+281492572
4222+279799426+279320471+280409446+280450236+278674209+277810392+278846271
4209+280582081+281429531+280547644+279246633+278477239+278536584+279624639
4195+280023907+278918686+278034873+278412271+279235611+279088682+277711022
4182+276353113+276088624+277006787+278066185+277833789+276746567+276715793
4168+278316459+279817981+279867363+279669473+280050776+279786183+278574822
4155+277972231+278326197+278264422+277710917+277641367+278184770+278896659
4141+279353884+279322519+278774430+277965600+277262459+277381043+278471355
4128+279057787+278399566+277415168+276826011+277042751+278151079+279129246
4114+279211381+279150075+279182394+278679624+278289365+278473421+278065960
4101+277222520+277249094+277664556+277885375+278771427+280288518+280986522
4087+280324552+279267445+278766133+278687678+278360703+278054018+278170520
4074+278182496+277979191+278107912+278561318+278823360+279051399+279451240
4060+279408941+278709774+278238924+278841429+279923513+280592374+280549120
4047+279799444+279266368+279465820+280151362+280773514+280375495+279453583
4033+278998512+278727149+278699377+279450598+280769053+281710215+281404432
4020+280775094+281204269+281505347+280839124+280730451+281622960+282415092
4006+282455968+281715196+280745517+280568369+281070896+281312092+281334899
3993+281401534+281605898+281995463+282255336+282810594+283849268+284066997
3979+283210435+282653042+282711952+282746667+282911404+283486779+283868517
3966+283637110+283401330+283774215+284394701+284689826+284732404+284790950
3952+284702011+284141789+283597015+283464163+283525156+284237150+285262841
3939+285638850+285348950+284328449+283483395+284467862+285897803+285264142
3925+283750175+283919669+284755766+284764306+284922604+285868990+286506157
3912+286613181+286667978+285143562+281171186+278221654+278913721+281783566
3898+285604344+288027553+286888970+284383020+284663999+285971450+285802651
3885+285775296+285577024+285071911+286321476+286458146+284227499+282591146
3871+282207221+283403117+284860483+285033291+286665843+289931571+290936034
3858+287748362+280373274+274879588+280141433+287677596+290699317+289278835
3844+286895445+285595752+283887645+282812468+284936646+288029792+290039134
3831+291168066+291480722+291213629+289805037+286113015+284240222+286316182
3817+287918757+290611610+294486196+295658989+293518287+290663352+289092679
3804+286538615+285072137+288472783+292164597+294890828+297575262+298817658
3790+298796378+298503527+298497001+299000742+298595625+297525135+298892294
3777+301881314+302978430+301666223+300138995+300924167+303351298+305652172
3763+306581687+305528658+305135239+307328534+309049295+308171332+308354069
3750+314463779+321383101+330132604+349433707+370813164+384028371+388969940
3736+390061154+393121581+397315227+400347640+401373383+401293435+403323676
3723+408696191+416011153+424085807+431723023+437661141+443529135+453025554
3709+465730596+479128400+491531149+503480874+517600045+531835544+542106963
3696+547956281+548426037+542068292+534060845+533373881+537362642+538732058
3682+535255231+527821024+517337430+504888719+497926734+495979599+492625488
3669+490834742+490732821+488212759+483208287+476362144+467781492+458998767
3655+452407741+445332377+434637441+425294599+423452754+424144786+422082157
3642+417681439+413365251+409288246+404164773+398100434+391889010+384524093
3628+379974936+380639649+380470416+376712749+370927063+367055810+365133115
3615+362398205+360126733+358948039+357394219+356485256+356055699+354141092
3601+351441314+349286483+346795338+344221504+343082210+341866405+338166815
3588+334270637+334095642+335722500+336104880+334905981+333411871+332371374
3574+331483135+329668194+325688181+320751298+319049074+320568318+321729482
3561+322073849+322100163+321111460+319058030+316984327+315441686+314119065
3547+313368989+313420992+313424741+313172401+312798075+312026026+311015974
3534+309995368+308724298+307724522+307587157+307196098+305839214+304655763
3520+304229400+304039477+303927766+303810049+303447561+302962183+302545540
3507+302214573+301994136+302017464+301956332+301383022+300805200+300706299
3493+300643223+299956987+298814708+298181169+298288471+298622042+298907361
3480+298793428+298301871+297869884+297350104+296889027+296869448+296746941
3466+296476237+296567606+296757043+296819008+296786376+296641235+296316377
3453+295542835+294642029+294395938+294886662+295443690+295672632+295904837
3439+296291834+296516714+296280205+295731022+295760737+296494080+296800609
3426+296491755+296152351+295715261+295415676+295884911+296736110+296978590
3412+296605444+296394450+296285447+295837075+295749525+296566321+297220272
3399+296985950+296891804+297596612+298309994+298485406+298497591+298670608
3385+298795406+298959050+299561624+300151145+299985140+299363161+299222776
3372+299563151+299618452+299532950+299733044+300041170+300238730+300068629
3358+299634663+299364481+299365939+299713396+300070573+299667885+298782944
3345+298295102+298222895+298358803+298547059+298500264+298269309+297753729
3331+296991678+296472453+296027136+295288725+294492201+293678182+292747071
3318+292269504+292361497+291866677+290367394+288714448+287354474+286312728
3304+285517194+284394493+282740453+281592862+281746665+282405406+282640666
3291+282775480+283238692+283828387+284366426+285083558+286410050+288043973
3277+289122933+289411323+289556586+290277727+291109937+291217656+291244351
3264+292226666+293453718+293548905+292789179+292507992+293116676+293817109
3250+294257254+294692469+294654978+294153701+294097116+294660948+295190275
3237+295212770+295290113+296050673+297170353+298195263+298828316+299065554
3223+299331189+299679271+299794246+299745819+300131393+301151060+301971224
3210+302275601+302909487+304075858+305039115+305436075+305623811+306179242
3196+307287224+308428809+309177287+309829468+310643036+311349962+311480696
3183+311172987+311226066+311722170+312095489+312581041+313821874+315368890
3169+316268480+316574592+316868589+317522401+318700263+320009311+320909492
3156+321476900+321836784+321759059+321275035+321014538+321710597+322871553
3142+323363249+323486173+323691439+323338324+322669341+322657261+323069252
3129+323250878+323079805+322649762+322510280+322862111+323083277+322638966
3115+321237890+319585378+319139991+319805676+320108004+319495606+318636770
3102+317982299+317384516+316744902+316217450+316162185+316645618+316936525
3088+316807075+317068302+317668029+317851217+317831950+318166528+318581054
3075+318653052+318809336+319290930+319637519+319751348+319770753+319828726
3061+320008825+320052322+320016045+320259602+320427620+320013997+319524107
3047+319441521+319350153+319022587+318606812+318042146+317315850+316536302
3034+315526285+314258200+313495558+313474105+313245718+312500468+311762751
3020+311150527+310561075+310005679+309428342+308704407+308006438+307672589
3007+307564731+307546367+307700395+307816828+308060107+308791714+309732615
2993+311186040+313891963+317145611+319792068+321612876+322728217+323396019
2980+323883688+324141686+324021470+323475238+322415995+321005685+319827963
2966+319123780+318842731+318829887+318565571+318064468+317874545+317815530
2953+317272978+316397306+315856142+315872805+316258170+316854426+317382676
2939+317272110+316422439+315301231+314165200+313377321+313217426+313294770
2926+313324659+313293277+312962587+312326827+311690823+311043120+310292976
2912+309804821+310030430+310689241+311109078+311420467+311967428+312433469
2899+312681088+312962101+313289632+313508854+313684440+313990725+314390567
2885+314779126+315156819+315516600+315900368+316374776+316610661+316301876
2872+315875547+315625048+315381630+315308973+315509692+315753873+315935638
2858+315879609+315539199+315238259+314820818+313835170+312701222+312178457
2845+312245560+312556324+313021984+313507153+313946534+314481484+315093604
2831+315598665+315878672+316155276+316669502+317052125+316927708+316611181
2818+316632600+317160816+317973065+318595981+318791632+319053518+319777904
2804+320547871+321089070+321711847+322446370+322965595+323308400+323677762
2791+323964434+324147032+324431586+324739886+324829171+324837954+324925261
2777+324897906+324673789+324324527+323926040+323706401+323845988+324276552
2764+324658341+324683023+324583219+324693160+324917138+325184960+325410534
2750+325340758+325234462+325429106+325625139+325610559+325561542+325623785
2737+325778855+325823914+325663811+325569804+325761775+326002416+326021856
2723+325879457+325716716+325664228+325754624+325808050+325711439+325707482
2710+326112530+326688513+326864411+326683375+326679209+326915302+327058395
2696+327062005+327000283+326746798+326322344+326107254+326335744+326667614
2683+326753324+326703752+326541462+326122354+325565569+325081302+324833476
2669+324864337+324889991+324640012+324221078+323793916+323391541+323210227
2656+323354327+323471141+323231299+322818440+322668022+322785635+322814448
2642+322713429+322580715+322431270+322389369+322428111+322350801+322178583
2629+322189414+322436407+322583492+322552492+322583527+322727905+322991596
2615+323415320+323739623+323740630+323792910+324206081+324598216+324735199
2602+325028293+325635310+326174218+326585584+327025451+327362702+327736681
2588+328334742+328796618+328988485+329183233+329444042+329785633+330142497
2575+330337870+330438959+330564452+330820193+331250618+331503374+331365384
2561+331266795+331443040+331455398+331130541+330943846+331193686+331563916
2548+331712945+331825628+332088278+332265912+332295211+332445143+332705536
2534+332855884+332918717+332924480+332850503+332852447+333042197+333363861
2521+333772763+334206936+334496385+334641006+334827353+335100730+335565070
2507+336282479+336783409+336706864+336576129+336933237+337524945+337967172
2494+338209549+338358057+338579119+338983785+339564489+340103223+340382744
2480+340503758+340673581+340965148+341228006+341327185+341340134+341281293
2467+341215578+341263102+341318750+341324443+341338398+341378910+341477082
2453+341525405+341461044+341496869+341692555+341983775+342429717+342904715
2440+343238702+343513329+343756156+343807291+343679854+343583486+343567275
2426+343596053+343680826+343764314+343787851+343795592+343968748+344399589
2413+344781969+344831159+344876566+345293209+345770012+345917027+345917097
2399+346101604+346446701+346742711+347012998+347377812+347700726+347779875
2386+347537707+346782910+345245441+342929258+339940238+336284042+332379428
2372+328850009+325544845+322100857+318935350+316515786+314934022+314500820
2359+315368959+317650324+321763051+327520202+333168523+335989003+334949930
2345+331998263+330145934+329815244+330280418+331399369+332828876+334101265
2332+335126279+336475145+338598837+340995245+342985356+344955576+347556383
2318+350444765+353009296+354995623+356564787+358323803+360444197+362404315
2305+364004200+365501123+366987943+368395476+369792455+371287815+372693369
2291+373785174+374726838+375801633+377016118+378085254+378893234+379629354
2278+380477532+381479149+382360688+383022901+383709518+384357186+385029119
2264+386001610+387094421+388038759+388888048+389780731+390638282+391282687
2251+391858183+392542058+393142236+393600294+394176241+394957143+395746064
2237+396249354+396442159+396713799+397283845+397899680+398354023+398737375
2224+399110521+399463879+399844766+400272865+400752376+401268996+401766281
2210+402242147+402675384+403003157+403340270+403830820+404424888+405076895
2197+405757681+406401946+407092938+407920392+408700912+409287413+409884814
2183+410622843+411374585+412134901+412924273+413734440+414722066+415829110
2170+416868079+417936868+418988369+419853246+420615020+421380231+422313807
2156+423630769+425130955+426353460+427270928+428230887+429402118+430697766
2143+431970607+433157112+434367779+435807492+437481424+439091238+440343562
2129+441347504+442519152+444013401+445682855+447306763+448794867+450409159
2116+452226566+454006654+455739774+457501984+459316925+461339772+463649777
2102+465971098+468149674+470500919+473005637+475320536+477677440+480355383
2089+483146843+485977842+488965924+492223460+495802000+499533145+503288278
2075+507035427+510836244+514822992+518958700+523315781+528029624+532908637
2062+537791296+542951080+548377333+553491016+558425330+563926358+570053773
2048+576298384+582404728+588549222+594815600+601080311+607351617+613765670
2035+620220547+626365632+632304999+638539716+645128868+651598881+657584904
2021+663082356+668283832+673676932+679553466+685515884+691147750+696241403
2008+700657361+704748321+709177331+714079152+718750331+722647793+725989407
1994+728677140+730964476+733868271+737181003+740093061+742329297+744171455
1981+746367492+748841383+751079077+752881313+754024391+754685563+755404222
1967+756752532+758418132+759281966+759451234+759525592+759481366+759715550
1954+760601046+762108418+764004661+765456767+766051981+766117869+766191533
1940+766898042+767932116+768686531+769591120+771339341+773695064+775932898
1927+777604954+778731022+780193612+782670558+785787709+789564365+793816748
1913+797363733+799929062+803058849+808100916+814261553+820172454+825155299
1900+828985415+832509142+836895245+842058118+846879471+851190105+856261680
1886+861789820+866331721+870454619+874978677+879052003+882379107+885656152
1873+888199820+888811627+888431990+889981158+893972765+897574530+899474383
1859+900430419+899956012+898384210+897520584+897176494+895997660+893930969
1846+891615584+889758499+888554601+886653776+884300691+883436301+883349584
1832+880985043+875636447+870901255+868745626+867171395+864831709+862370454
1819+860851418+859594616+857231255+853250895+848480641+845730353+845254140
1805+844129947+841184494+837774770+835846590+835497085+834736630+832248228
1792+830316923+831736120+833662703+833249046+831514433+830594500+831320032
1778+832376255+831117092+827224975+824494127+826984890+831834987+835407244
1765+836652174+835650731+834871114+835258319+835770704+837051390+837750609
1751+836044740+834240838+835217147+837860932+840551233+842412831+842983467
1738+843047967+842389572+841208794+842665274+846361115+850450479+854108272
1724+856902162+858447372+857468008+853697392+852679633+858863807+866842857
1711+871862152+872607402+871048445+871522158+873406320+872718280+872020380
1697+875574794+883251898+891959257+896775542+898621796+899265541+897102483
1684+897445531+906496147+915360416+919001547+919693614+922517427+926979347
1670+930742395+936697105+943869044+947980139+949973721+953915271+958551735
1657+958732042+951827890+946748262+953954915+959451742+960399447+966632845
1643+976968035+982811104+982649127+977780632+973937254+979602169+987477006
1630+990728224+990529171+989368528+989184541+992497689+996040509+995211389
1616+994795926+1000058986+1005166039+1006876212+1007450945+1010196650
1605+1014673705+1017308464+1017759682+1018430713+1019538868+1021050197
1593+1023192218+1024821576+1026094278+1027940671+1030023886+1032011289
1582+1034026394+1035512312+1034309247+1031262567+1031600339+1032844644
1570+1032635941+1034656184+1038145473+1039734632+1036342751+1023154588
1558+1014793470+1028289273+1040963524+1047502549+1054255970+1061648068
1547+1063153148+1055706479+1044905004+1039090123+1045848752+1055921361
1535+1057982776+1056145061+1058550079+1062657148+1063525356+1061414856
1524+1057107346+1052642025+1052458177+1055256857+1061134641+1068558815
1512+1070042650+1065288504+1059641433+1058794678+1064358642+1068538541
1501+1068748703+1066404574+1065845116+1069933230+1072744754+1071197947
1489+1070699725+1073092246+1073741823+1072300478+1071188366+1070341611
1477+1067239596+1060815337+1053103866+1049954153+1051585456+1050705999
1466+1045584158+1042699317+1043771994+1041135083+1031571595+1024789917
1454+1026648043+1028309824+1024745274+1016502047+1008457386+1003902918
1443+1000010247+993795038+984645764+972952822+963687531+957996373+952527456
1429+948825645+947607236+945645522+943370822+942896761+944523481+951521084
1416+962665052+971346028+975438516+977440708+978920724+980523907+984985271
1402+992155197+998251473+1001126664+1002466850+1006591623+1012277991+1012956797
1389+1009349409+1009666422+1015629742+1019297602+1017731633+1017327418
1377+1021020065+1023639688+1024623981+1027416135+1031349353+1035222932
1366+1036843403+1035887089+1035929510+1036825282+1036136408+1034506495
1354+1033287878+1032405367+1031445929+1029874475+1026345055+1021164199
1342+1016070893+1011093325+1006280928+1003567368+1003210642+1002961393
1331+1001736458+1000284907+999837855+1003002703+1009491808+1012680540
1319+1011103531+1011670696+1014939479+1016027639+1015667719+1017279651
1308+1021279382+1026498771+1030982769+1033605932+1036086420+1038133531
1296+1037370299+1035882368+1036465016+1038103885+1039969718+1043436235
1285+1049842859+1058054912+1064878665+1068953657+1071402624+1072297146
1273+1071915009+1071891264+1069947185+1063655813+1058293054+1058702476
1261+1062007154+1063691916+1062981867+1061143597+1058178982+1053674850
1250+1049947419+1048982982+1047830947+1044148159+1041465912+1041969063
1238+1042371959+1040602632+1038459223+1037050510+1035691716+1033824842
1227+1032387455+1032203468+1031643663+1030517386+1030138721+1029638486
1215+1028681200+1027381629+1025354999+1024312246+1026386296+1029623489
1204+1029796367+1027428910+1024983484+1022800570+1022602350+1024886423
1192+1026543066+1025786777+1023343573+1020446096+1018841385+1018818890
1180+1018965871+1018423353+1016385406+1013845904+1012836824+1011791016
1169+1009003931+1006791092+1007193849+1008504043+1008278537+1006486438
1157+1004194659+1002144145+1000977808+1000514301+998501417+993513504+988319734
1144+986302269+986865060+986076347+983007866+981940952+983206710+981804316
1130+977572692+973779373+970769699+969323286+969526574+967012413+960362302
1117+954250821+950854219+950038568+953743434+959075159+958179526+951810603
1103+946824495+944229519+941532552+938166638+934611808+931054964+928034597
1090+927508951+929958403+931661009+931363992+931278594+930348594+927772433
1076+924671321+922539922+924501914+929597789+932677934+934122473+937709310
1063+940753907+939632769+938064092+938999716+941114174+943318264+944066292
1049+942578777+941434102+943208358+946672584+947625982+944724895+942335637
1036+943434697+945864015+946600239+944570346+941518944+939783152+939958043
1022+941064324+941636696+941884279+940838124+937192342+934789199+935994276
1009+937259202+937178317+937697715+938640560+938992495+938457754+937375634
995+937255314+938697908+941096400+943241962+943974784+945073428+949135506
982+954131820+956091035+956173655+956931680+957326661+957524256+958607347
968+959498398+959026351+957230502+956029174+955866849+955080011+954550685
955+954889359+954716897+953265972+951099442+951335917+954640734+956121097
941+954052115+952541134+953619643+954837495+954101896+953097537+953393999
928+952146153+947882592+944066639+942086804+940735092+939818491+938630909
914+937469086+938352360+939776695+937329325+931164175+926222224+924610362
901+923966201+923647453+924177126+922992252+920910425+921989004+923616418
887+922114115+921095454+923205746+925296112+925015133+924505247+925931456
874+928055356+929155249+928898918+928377159+931162440+939242300+949488344
860+956990973+960892531+965496919+972472443+978668975+983986953+990988929
847+999215771+1005967040+1011043683+1016838846+1022492097+1025897377+1029653343
833+1035810162+1039370269+1036397045+1032808333+1035516547+1041597480
822+1038513794+1025352152+1021410950+1031986572+1040476758+1042591355
810+1046079394+1047678134+1044601183+1040683239+1036385519+1031331996
799+1027888391+1027485425+1028133336+1028055923+1027349275+1024522754
787+1019228451+1013590822+1008910410+1005964818+1004283250+1002018895+998481213
773+994551328+991157503+987641900+982007256+974190392+967114127+964371337
760+966359018+969674249+973103552+976284022+976125932+972128631+966813083
746+963176534+960852401+957556888+955266289+956057223+959447785+961327226
733+956492820+949109331+945410505+943214538+938984997+934657284+932145137
719+929046177+925290905+923385775+923168254+926315676+935453842+945962326
706+950616703+950890322+954861796+963524443+966763094+961131783+954706622
692+949869995+945480420+945174586+950957043+960313563+967687540+966538630
679+960819353+961499548+968483543+972047468+966474547+956171156+953951235
665+961378186+968172640+971020059+970618552+967374693+958703020+951036470
652+952373116+955499986+951388822+943284314+938007924+942971189+961277237
638+978859627+977470770+961722762+952060477+958716628+968095366+965235727
625+958053027+955239072+953711567+948204256+943064849+953753571+982044401
611+997939043+979869887+963262835+978602601+1002613345+991874634+957133718
##END=
