##TITLE=Sample description
##JCAMP-DX=4.24
##DATA TYPE=INFRARED SPECTRUM
##DATE=13/9/2023
##SAMPLING PROCEDURE=Instrument type and / or accessory
##ORIGIN=Default
##XUNITS=1/CM
##YUNITS=ABSORBANCE
##RESOLUTION=4
##FIRSTX=4397.6552
##LASTX=599.8556
##DELTAX=-1.9287962
##MAXY=1.7619166
##MINY=0.37575048
##XFACTOR=1
##YFACTOR=1.6409127e-009
##NPOINTS=1970
##FIRSTY=0.3924287
##XYDATA=(X++(Y..Y))
4398+239152690+238401000+237961387+237888431+237753269+237497474+236679020
4384+236021064+236434832+237473028+238560226+238812352+237582418+236243658
4371+236340262+237418724+238261370+238696205+239238360+239695045+239806796
4357+239953218+239922434+239135654+237708045+236286266+235810966+236409695
4344+236920793+236962675+237263820+237652833+237449763+236925606+236584850
4330+236607189+237182290+237605720+237033761+236280945+236127094+236261275
4317+236382670+236236938+236012819+236002593+235461855+234508947+234534047
4303+235045672+234795762+234304715+234268300+235027128+236714509+238058373
4290+237752070+236449289+235528836+235640061+236375950+236384668+235201847
4276+233955350+233343507+233006892+233096068+233614321+233410489+232869478
4263+233283954+234061925+234766031+235544238+235452374+234078489+232848755
4249+233019042+233816065+233848140+233072112+231943214+230944447+231080335
4236+232217788+233288331+233757111+233462396+233283809+233703279+233937787
4222+233922095+234088714+234270516+234010127+233543562+233323638+233634281
4209+234750520+235648851+235052392+233588422+233044796+233877762+234585137
4195+234384465+234290894+235030434+235585102+234675275+232853949+231672963
4182+231874017+232834934+233506457+233632102+233176289+232043832+231177920
4168+231708451+232729267+232489837+231588073+231653838+232387348+232887331
4155+233155439+233095377+232318950+231254691+230582732+230132077+230394392
4141+231674561+232408053+232257690+232383371+232358743+231601640+230902329
4128+230457595+230387926+231303038+232233625+231968604+231113390+230748660
4114+231004618+231361720+231052293+229782294+228988704+229469526+230111663
4101+230558268+231130535+231664590+231483115+230464915+229740703+229849403
4087+230179753+230257087+230249495+230632369+231601459+232367152+232198663
4074+231701895+231147717+230530861+230377119+230234656+229550165+229094280
4060+229454415+230043319+230582550+231219838+231515861+231662810+232074144
4047+231953385+230877574+229723958+229296533+229452708+229575066+229630296
4033+230212989+231257306+231872509+231733606+231444630+231295483+230944574
4020+230841904+231529392+231924362+231265370+230541014+230775377+231973036
4006+232993161+232434279+230775976+230095699+230994810+232253712+233243398
3993+233996051+234182957+233881667+233563268+233464866+233669734+233635353
3979+233099246+232825017+232882155+232903677+233247448+233950428+234904171
3966+236072136+236549943+236076731+235334793+234380378+233545651+233168934
3952+233149083+233937751+235445037+236171409+235497525+235080724+235697653
3939+236013872+235705480+235262908+234928799+235053554+235223841+234625075
3925+234025710+234677364+235735321+236244457+236792969+237674899+238092190
3912+237998892+237856792+236870103+234773405+233302879+233408364+234868519
3898+237219159+238297621+236911276+235209057+235657515+236440843+236074624
3885+235929546+236077657+236510803+237926244+238166292+236989882+236242786
3871+235139442+234179887+234489823+234985428+236431817+238633837+239258502
3858+237541536+233511488+230557777+234213215+239010282+241160340+240750223
3844+238790539+236844422+235698888+235921173+237377351+238367273+239162407
3831+240681407+241780628+241779248+240589653+237556973+235807533+237476479
3817+238917074+240604418+243278597+244613997+243539131+241418023+240359213
3804+239334183+239109428+241412266+243203624+244266430+245888428+246645821
3790+246053375+245376512+245460930+246370775+247207627+247495314+248274665
3777+249590977+250283877+250136928+250252857+251709579+253477509+254768757
3763+255277258+254415778+254506061+257488050+260280464+260654838+262735863
3750+272718373+286352490+304754305+330472734+348359110+354175285+352007791
3736+345630118+341813765+342667454+344815042+346014608+347294524+350629510
3723+356148155+363394482+372132166+381406903+389189155+395705223+405610036
3709+420133093+436102285+452932430+471134789+488727703+502176621+509171004
3696+508589092+502234594+494079693+487418075+483530599+480943889+476862261
3682+470486332+463103935+455787393+448510627+444094854+441710795+436174098
3669+430093301+426915671+423444251+418326152+412978485+407291805+400142064
3655+394387094+389601906+381068616+371500382+367997251+367914033+367413778
3642+365553476+362244861+357704097+352412841+347451335+342812205+336778775
3628+332627333+332477714+331841171+328881630+324109082+319902717+317456726
3615+314933365+312141714+310032448+308537639+307423180+305872432+303253630
3601+300646741+298749408+296425774+293745820+292403446+291777527+289586332
3588+286712516+285714621+285565329+284709788+282937172+280681029+278794702
3574+277850348+277043609+274905265+271954060+270707600+270593070+269670529
3561+268866623+268807977+268438925+267287197+265886359+264768140+263392965
3547+261553060+260537820+260610232+260572818+260113282+259605163+259097479
3534+258428789+257378279+256174644+255277022+254626112+254174767+253830070
3520+253235372+252592164+252325400+252036932+251199553+250221945+249672707
3507+249197279+248424266+248048857+248357793+248409537+247874120+247371413
3493+247113748+246794877+246418396+246135831+245850978+245670265+245867160
3480+246173626+245939263+245053155+244483049+244937663+245333868+244770391
3466+243962234+243624802+243873131+244187934+243965994+243510181+243201608
3453+243128451+243246977+243167881+242975345+243058945+243255386+243542891
3439+243941584+244011417+243743418+243749139+243984410+243690984+243015138
3426+242671240+242632519+242808854+243273221+243620788+243538169+243486916
3412+243772187+243847759+243722477+244076601+244864815+245660621+246145965
3399+246198163+246172863+246279656+246515962+246869305+247092989+247281638
3385+247599401+247778351+247981112+248654579+249416785+249712463+249908196
3372+250199424+250112228+249819819+250003092+250665026+251157217+251208162
3358+251219804+251401551+251431173+251184478+251054184+251245121+251554003
3345+251710615+251512612+250989545+250324342+249992595+250235330+250320147
3331+249898170+249368093+248813751+248243953+247619343+247051833+246878604
3318+246648745+245672953+244225257+242892436+241735786+240817223+240251094
3304+239366330+237609571+235918103+235359021+235504953+235633123+235736973
3291+235898107+236303738+236920067+237318706+237576043+237817308+237947893
3277+238331584+239188106+240396790+241598990+241971493+241542905+241374689
3264+241806763+242234625+242072383+241437947+241091397+241338546+241676578
3250+241952714+242495722+243065266+243366065+243666956+243945961+244054679
3237+244259093+244668792+245147217+245648489+246237266+246784325+246978659
3223+247199600+247954160+248811172+249478427+250243013+251107181+251770422
3210+252042181+252362704+253344054+254585320+255612583+256805503+258068182
3196+258868511+259431425+260175542+261031391+261825345+262608583+263346325
3183+263556224+263184429+263250974+264216650+265480310+266797476+268092320
3169+269200168+270087529+270679485+271347067+272341311+273365614+274582870
3156+275962332+276633982+276438304+276300418+276730205+277456886+278208613
3142+278678955+278594429+278316314+278229263+278249641+278418566+278650967
3129+278532823+278160792+277920200+277750003+277614932+277542738+277278644
3115+276662315+275852288+275230075+274776877+274104973+273229036+272345888
3102+271722985+271436370+271168770+270913684+270783081+270819096+271049482
3088+271228196+271358382+271603751+271850609+272226872+272947833+273641078
3075+273824296+273613163+273453845+273576021+273879636+274247599+274458006
3061+274278475+274171137+274349833+274352848+274466960+274807898+274632344
3047+274049524+273501938+272674639+271687623+271041036+270473055+269652966
3034+268855907+268220998+267418799+266189120+264770610+263626475+262903280
3020+262476799+262189603+261777216+261013175+259972726+258908739+258094590
3007+257727916+257625373+257426426+257335816+257752562+258528426+259549732
2993+261228286+263783776+266622339+269084149+271085624+272511889+273328109
2980+273835412+274212165+274466470+274336720+273489970+271913050+269998753
2966+268552274+267974975+267832440+267698985+267439577+266958628+266379676
2953+265870304+265565073+265728821+266200417+266370323+266008717+265520103
2939+265333634+265225588+264729709+264005135+263505751+263087389+262525328
2926+262303697+262541819+262355186+261392271+260475560+260016751+259578356
2912+259141668+259208686+259941615+260910105+261659290+262065229+262136152
2899+262105876+262254460+262671315+263359166+264041187+264474460+264906753
2885+265383815+265528785+265422628+265489319+265862785+266389429+266711479
2872+266529495+265972138+265598527+265702595+265894332+265790808+265471919
2858+265239155+265189954+265059260+264517795+263504716+262537115+262256585
2845+262539604+262908347+263272914+263791840+264488554+265069648+265480310
2831+266063675+266775609+267383529+267852018+268172578+268435583+268676466
2818+268869347+268941160+268905816+269177302+269916370+270701570+271243144
2804+271583827+271912923+272504515+273332341+274002738+274402140+274816707
2791+275264274+275369868+275095694+274819867+274699452+274676332+274784015
2777+275049453+275190336+274873136+274351758+274120610+274170955+274249833
2764+274338845+274394021+274321319+274309877+274464508+274602485+274735559
2750+274998636+275306119+275582454+275690864+275327550+274714581+274453048
2737+274505954+274477240+274421137+274482997+274508134+274404973+274263164
2723+274212001+274351504+274621138+274806282+274845239+274970012+275170358
2710+275103721+274869195+274891007+275161023+275313239+275111349+274776786
2696+274719794+274816452+274675588+274385086+274256880+274313200+274358987
2683+274225024+273825604+273290096+272876074+272615086+272441348+272263015
2669+271877507+271321767+270836005+270451370+270131554+269947555+269800333
2656+269510412+269146191+268885438+268802946+268828755+268843085+268829899
2642+268815315+268736782+268605452+268610284+268757596+268802002+268683531
2629+268640051+268806070+268997226+269062972+269119474+269359395+269800424
2615+270220948+270442724+270592634+270841944+271100263+271326725+271721277
2602+272324366+272839296+273165922+273679036+274451886+275128640+275635124
2588+276066237+276436161+276731222+276998912+277375338+277756741+277989869
2575+278281370+278702420+279009595+279154855+279181190+279052657+278860503
2561+278773071+278824288+278816823+278700296+278755327+279046446+279319385
2548+279426523+279421256+279416352+279479538+279632753+279908761+280212794
2534+280369187+280482101+280697357+280843543+280845469+280946704+281213595
2521+281405840+281461906+281509218+281556930+281646396+281925402+282333248
2507+282599813+282777074+283177220+283690443+283990171+284090062+284171465
2494+284358625+284674916+285036886+285398982+285827734+286386834+286974176
2480+287389524+287583113+287631642+287495826+287184874+286995589+287039087
2467+287065622+287045916+287131895+287233476+287232005+287194082+287177446
2453+287156015+287132694+287213189+287508649+287963008+288364408+288584695
2440+288766770+289006617+289132081+289142996+289250207+289398409+289326433
2426+289092923+289069513+289313102+289572038+289747356+289822311+289804676
2413+289774726+289863593+290206365+290639312+290847740+290815284+290786624
2399+290976381+291338950+291713597+291983448+292113325+292222025+292289115
2386+292098904+291456513+290125581+287975340+285238321+282357749+279481572
2372+276325100+272777782+269188109+265933399+263314832+261772076+261650100
2359+262967084+265758262+269936984+275165944+280309198+283019537+281958638
2345+278693757+276584745+276530168+277501238+279018095+280565083+281663178
2332+282707477+284448163+286656904+288633115+290299519+292210583+294788557
2318+297608759+300003315+301929544+303818742+305824557+307688382+309366736
2305+311082613+312902159+314600164+315958757+317084368+318121820+319170642
2291+320403045+321642604+322607226+323515510+324523503+325449004+326336765
2278+327306000+328247775+329021587+329617810+330155842+330731797+331445238
2264+332327114+333169397+333857375+334426828+334835837+335203654+335742413
2251+336380845+336844231+336997228+337122437+337584008+338254368+338755314
2237+338957167+339042419+339337226+339979944+340659458+341011875+341128911
2224+341269267+341510967+341820376+342167888+342560189+342956085+343339849
2210+343711044+344013951+344413879+345063353+345658124+346037783+346487839
2197+347087041+347669679+348221805+348901283+349780616+350659187+351399399
2183+352139211+352983020+353925521+354905799+355727340+356388439+357210525
2170+358280378+359406243+360442206+361366763+362289758+363218128+364147153
2156+365179047+366239602+367314286+368536083+369801359+371021594+372308774
2143+373618257+374860904+376148120+377551574+378958514+380249799+381485399
2129+382837454+384287693+385649737+387009747+388648725+390535180+392457305
2116+394269441+395884010+397433123+399106174+400993827+403132407+405356676
2102+407558678+409856539+412175250+414415429+416844093+419634836+422674362
2089+425927983+429351818+432798682+436246709+439884566+443813306+447928897
2075+452299083+456963894+461754313+466690828+471816047+477094626+482528817
2062+488075395+493856518+499916537+506051855+512367051+519047703+525818075
2048+532527932+539401174+546178049+552564004+559092131+566156728+573525758
2035+580841101+587757460+594262267+600732893+607212273+613274544+618954831
2021+624679797+630463317+636048217+641376814+646793969+652449701+657924030
2008+662865631+667167855+670947084+674459550+677637762+680502424+683255063
1994+685746314+688148716+690757438+693275423+695629078+697719311+699407291
1981+701040059+702486338+703569450+704793862+706062371+706516858+706121870
1967+705990159+706738871+707866080+708785805+709243561+709509163+709873130
1954+709970552+709726817+709639567+709943236+710673495+711621263+712585304
1940+713908445+715386835+716408050+717425415+719051281+721166577+723852888
1927+726957580+729969064+733031257+736068313+739041584+743146786+748648722
1913+754316731+759641260+764909850+770386431+776005185+781723249+787587481
1900+793542378+799715220+806066993+811882261+816787973+821358922+826118975
1886+831503802+837308753+841841490+844775821+847746695+850918369+853682050
1873+856014710+857230912+857069997+856984345+857963278+859373016+859818930
1859+858841231+857497531+856171920+854403155+852327016+849856688+846222973
1846+841356491+836736140+833914195+831931990+829651928+827227949+824642547
1832+820856415+815414559+810259809+806440332+803541090+801717693+799986415
1819+797901340+795912742+793500678+790251707+786940695+784663248+783370982
1805+782203308+780287649+777691930+775940311+775390509+774500715+772659374
1792+771669107+772613679+773428210+773259957+773036782+773156724+773627484
1778+774419930+774546991+772934493+770923083+771727516+774207870+775951426
1765+776823276+777009546+777335446+778129200+779000687+780419869+781373448
1751+780631856+780184416+781803961+783867750+785199609+786226854+788056643
1738+790236742+790711643+790937796+794503513+799330838+803387003+806023041
1724+807439753+808685088+809131148+807799071+807647527+811999587+818362331
1711+823453950+825724496+826478947+828297693+830044954+829778917+831619240
1697+837985834+845272154+851307327+855619649+858622560+859762337+858717366
1684+860857508+869462029+877093936+880968190+884059369+889555565+894112276
1670+895717292+899740910+906635438+911450050+914727789+919431540+924105359
1657+926419857+925904636+926009322+930692440+934377591+936605782+941894859
1643+948154587+951084342+951777115+951782419+950789536+952931349+958685810
1630+963737036+966507837+966674855+964418621+964764862+968841659+970321430
1616+970051614+974858017+980575790+982225993+982137507+984021347+986187860
1603+985348629+983468276+985176743+990248747+994131428+995754097+997834813
1589+999497293+999402560+1001080951+1006577220+1011720782+1011936838+1007268394
1576+1002682261+1002886039+1003945831+1003635986+1004205984+1006122660
1564+1009141191+1011600549+1010383402+1010422196+1017142296+1024289640
1553+1031192886+1036724099+1039548950+1040514589+1040488000+1040065987
1541+1040148733+1044593202+1050932844+1053233538+1053601065+1056205792
1530+1058735837+1059660576+1060161339+1059293194+1057328642+1056823665
1518+1057820398+1061211178+1065831310+1067405523+1064937738+1059520074
1506+1058146007+1065410024+1070991291+1071433791+1068195717+1066123429
1495+1068564407+1070900118+1069666334+1067176173+1068759758+1072547560
1483+1073389697+1072959039+1073741823+1072551338+1067357648+1060665445
1472+1057729370+1058803545+1057847931+1052468771+1046697238+1043651900
1460+1039966386+1032656311+1026401086+1026258115+1026714708+1022864719
1449+1014288531+1004741473+997421808+992742177+990167672+986434573+978071172
1435+969586448+963946917+956118642+946253458+939932487+937991328+938301826
1422+939719046+943264858+951044386+960404738+968579763+975466372+980252360
1408+981752109+981631150+984497991+990208064+994277959+996931288+1000664895
1395+1005564069+1011483368+1016479600+1017522755+1015514832+1014787406
1383+1015715632+1016158350+1016634994+1019176517+1023412631+1026901995
1371+1028465747+1028975301+1030644828+1032846794+1031350242+1029085363
1360+1032145739+1035701867+1034396888+1031347990+1029283257+1026801160
1348+1023921314+1021729228+1019639795+1016210148+1010924704+1005413542
1337+1001523886+999697439+999259589+998431182+997383813+997844475+999288067
1323+1001465114+1005177144+1009076316+1011797281+1013415882+1014233101
1312+1015276256+1017530601+1021443067+1026161710+1030037199+1032801680
1300+1033923512+1033551263+1033608001+1033454859+1032338911+1033453406
1288+1038361734+1044136681+1048008029+1050431862+1053539968+1058007685
1277+1062351609+1064507370+1063265668+1060244086+1058294427+1056738885
1265+1053301028+1048497024+1043853208+1040353238+1038342555+1037203940
1254+1035286755+1030524450+1024818301+1022041615+1020630062+1017725661
1242+1014837897+1013107054+1011824887+1010752237+1009349764+1008013837
1231+1007812529+1007684814+1006567630+1005341257+1005026763+1005806859
1219+1005968210+1003757236+1001910665+1003843034+1007629819+1009729859
1207+1009872903+1008915546+1007393930+1006978456+1008152740+1009163422
1196+1008999382+1007087428+1003998210+1002087418+1001818184+1002282406
1184+1003022327+1002518077+1000017018+997201757+994612068+992014751+991071851
1171+991723577+990973921+987856298+984822874+983850769+983524143+981889777
1157+980396276+979491008+976985590+974371855+973472689+972446170+970277042
1144+966914158+963252909+961039538+959933469+958964706+957841057+955518859
1130+951644096+947534971+943929225+941825335+942021775+942251343+940322389
1117+936640726+932482127+929024947+926360794+923432201+921112037+920983813
1103+919427980+914077879+909108454+906131768+904004630+902807098+902186102
1090+902415307+903781383+905001000+905337288+905958648+907816625+909617500
1076+910244962+910403480+910491312+910516521+911209221+913974065+918289002
1063+921205462+922527586+923645859+924151781+925030388+927871803+931605046
1049+933760372+932709807+929617974+928115465+928975691+929455750+928392763
1036+926233732+924219271+924723667+927347791+928957166+930184484+933154414
1022+934640432+931819431+927296938+924386144+923706738+922439319+918818680
1009+916199350+916584168+916932588+916014824+915510718+915359756+914878316
995+914089648+913367670+913559244+916042576+921456825+928128977+933663387
982+936229465+936633534+938049011+940046908+940417268+940539172+940953629
968+939196488+936122236+934229025+932641009+932051905+933987034+934996626
955+932492080+929517066+928271295+927642670+927976925+930046961+930914162
941+928739004+926288945+924986145+923814912+921744294+917823763+914281366
928+913454049+912472863+909152261+905654979+903493841+902554791+902424097
914+900663905+895753035+890414339+887212735+886262279+886072740+885021594
901+883574733+882166884+880540365+879367024+876922268+870945577+866042044
887+866423738+868436382+869178265+869995339+872289859+876935926+882407640
874+885241427+885154685+885821595+889974455+897387255+904999184+910770353
860+918025870+928082846+938060634+948173767+959088281+968964289+977777746
847+986644454+994978215+1004055457+1014573457+1022730465+1028717473+1035151993
833+1038905505+1038522141+1037962895+1039635547+1042433227+1044121934
822+1045703557+1049732624+1051866373+1047222993+1040693667+1039745245
810+1043748595+1046164872+1045673262+1043643691+1038261334+1031292995
799+1027663130+1027640464+1026411911+1022613720+1018718398+1014246541
787+1009287432+1006161309+1004837587+1001803945+993977486+984561486+978014797
773+973121144+968335447+963816368+958777855+952802980+945735040+940356679
760+939904735+941709969+943510917+946089781+947046267+944838853+942706339
746+942271612+941519776+939811455+938392927+937634117+935866878+931402067
733+926843759+925910884+927515028+926967478+921192240+913542970+908849681
719+906201801+904091808+904013784+906478010+910347468+914285289+918775745
706+924904779+931607516+937702043+942116290+943344044+943475320+945369620
692+947176017+946579430+944572961+942467472+940640661+940503356+942605648
679+944519564+945602748+948602318+953363969+953123068+944011172+936015952
665+934832441+934412825+937962269+946353204+952005812+954155761+958258784
652+960151414+956706438+955047590+954064079+949888699+949157641+953994846
638+956262340+952983002+953005523+961509353+972177445+981302635+994329031
625+1003315027+991434510+972977301+970051905+976998958+986456440+1000152580
611+1008542135+1005904788+996133030+981239213+975987768+992333894+1012532480
##END=
