##TITLE=Sample description
##JCAMP-DX=4.24
##DATA TYPE=INFRARED SPECTRUM
##DATE=13/9/2023
##SAMPLING PROCEDURE=Instrument type and / or accessory
##ORIGIN=Default
##XUNITS=1/CM
##YUNITS=ABSORBANCE
##RESOLUTION=4
##FIRSTX=4397.6552
##LASTX=599.8556
##DELTAX=-1.9287962
##MAXY=1.8568105
##MINY=0.4694339
##XFACTOR=1
##YFACTOR=1.7292895e-009
##NPOINTS=1970
##FIRSTY=0.49806038
##XYDATA=(X++(Y..Y))
4398+288014458+286158630+285227141+284496184+283349805+282146882+281770116
4384+283112857+284736476+284673400+284036971+283873456+283521971+282906499
4371+282692092+283942150+286253296+286978721+285101799+282677650+281702766
4357+281927909+282297885+282977933+283909837+283807071+282620727+281867332
4344+281974354+282930437+285120894+287047949+286689761+284778319+283126437
4330+281792434+280388219+279938691+280953696+281739939+281045673+280455690
4317+281007966+281141511+280239749+279497780+280219603+282322340+283451881
4303+282411267+280940702+280183240+279614161+279088890+279175938+279795030
4290+280325367+281180322+282530835+282933401+281994311+280790923+279847076
4276+279060333+277887432+276820432+277200697+278028319+277763072+277133468
4263+276991478+277859461+279655884+280334794+278849736+277484849+278465610
4249+280521437+281521500+281472952+280648019+279399358+278469471+277887466
4236+277933084+278857095+279356377+278291514+277126316+277670285+279079739
4222+279797873+279780278+279350913+278671710+278273091+278351695+278906142
4209+280060328+281071473+281023562+280257673+279548345+279196670+279453076
4195+280010453+279933366+279068003+278252359+278317399+279170544+279939432
4182+279807783+278937559+278412065+278500595+278481672+277883640+277308443
4168+277873610+279306347+280142395+279599460+278506782+277779358+277141620
4155+276573540+276391223+276277083+275669194+274753576+274667200+275982660
4141+277835937+278988348+279175145+278888253+278358933+277633663+276784689
4128+275942178+275701783+276540606+277881607+278623007+278191885+277441919
4114+277511975+277792766+277462307+276762613+276183124+276223658+276622226
4101+276851109+276951151+276704793+276069036+276079221+277366521+278587971
4087+278441862+277804864+278051050+279122358+279983051+280082646+279740364
4074+279376316+279095111+278993018+279269397+279411180+278545317+276911375
4060+275913535+276648301+278185578+278607187+278065199+278016669+278192833
4047+277731741+277343721+277875127+279018507+279734143+279417281+278725394
4033+278286861+278076918+278067870+278337166+278865470+279216455+279157239
4020+279128907+279403408+279748998+279690403+278937404+278335460+278918430
4006+279758253+279737072+280012004+281234970+281725963+281127241+281053394
3993+281712796+282296369+282774901+282993892+282439961+281828039+282111088
3979+282407286+282053837+281898732+282323943+282834599+283019277+283377896
3966+284381682+285105642+285170045+285340522+285569233+285708775+285647250
3952+284520105+283081405+283361473+284040641+283088988+282709792+284568221
3939+286561230+286938497+285588810+284059754+284519725+285873083+285669155
3925+285135612+285872962+285696729+284243656+284367516+286542394+288756789
3912+290005192+289848571+286885055+281048276+276517720+276871255+280868285
3898+286240767+289457259+287574736+283686830+283933326+285352224+284379201
3885+283960349+283682022+283559472+285928748+286345514+283681143+281579096
3871+280447676+281583559+283315096+282824931+284133704+288187675+289891139
3858+286657602+278042812+271460566+278421836+288309329+292976550+292134504
3844+288243393+283909371+280271667+279699830+282804440+285957666+288615575
3831+291513154+292796939+291851041+288747259+282946964+281013532+285419608
3817+288568509+291926112+296413670+297508467+294425676+291066694+290305371
3804+288351949+286754853+290247914+294486890+297992808+301164250+302573704
3790+302827696+302481572+301692537+301661757+301474253+300907500+303000621
3777+306585228+307776432+305875159+303444875+303984777+306610286+309435190
3763+310796493+309478689+309618869+312868071+313634598+309918772+308100049
3750+315500094+324883203+335482058+357162246+381237768+396030756+401502815
3736+403179221+408105863+415100464+419188265+418508355+416795827+419350505
3723+426355618+435781950+446066838+455149769+460527938+463421122+471670658
3709+487923044+505288978+518404217+528350356+541527947+557933955+570219384
3696+575153540+572862540+565502478+561544861+566417734+571061809+569010636
3682+562970101+555744946+545087737+533248114+530262142+528849966+521460227
3669+518386293+520280604+518936536+514086757+507650774+498881535+488305773
3655+480358106+472209285+457951373+445320061+444944087+448589495+448816431
3642+446008450+441769370+435978692+429002635+422161001+414017626+403631472
3628+400565638+404919840+405262312+399001804+390177450+385453754+384636249
3615+383015061+380783863+378648726+376561741+376193832+376120382+373282207
3601+368697520+364710984+361385988+359698070+360136568+358832379+353473685
3588+349307711+350796371+353497915+353805023+352222472+350545377+349379783
3574+348268337+345855907+340241256+333515089+332344256+336055773+338341258
3561+338249195+337339661+335870716+333880378+332131073+331021558+329368142
3547+327466524+327309110+328202409+328129993+326973842+325695194+324883307
3534+324558897+323806674+321760464+319561493+318582748+318582644+318729821
3520+318343542+317455792+316656692+315926804+314958020+314316507+314397748
3507+314233716+313307948+312822367+313135506+312892750+311906318+311241126
3493+310993717+310260416+309132219+308621856+308590353+308400987+308219101
3480+307964729+307142536+306138492+305931858+306480515+306629312+305852617
3466+304963419+304509583+304328420+304374504+304341691+304028414+303812129
3453+303681599+303038949+302100187+301847331+302019050+302013569+302335808
3439+303033503+303376870+302973564+302358798+302041522+301540396+300982226
3426+300891094+300775248+300412406+300206220+300439705+301167077+302006951
3412+302328535+301651555+300512156+300149176+300741538+301454020+301568798
3399+301271479+301182794+301288955+301669513+302453274+302866921+302299858
3385+301502103+301565834+302122142+302115318+301676958+301591719+302100497
3372+302967566+303527219+303083068+302103840+301561008+301725247+302280315
3358+302401882+302045073+302159781+302531136+302196489+301306464+300742504
3345+300914635+301210230+300845217+300035881+299278074+298599887+298019830
3331+297485029+296779269+296112525+295643902+294784450+293678381+293233748
3318+293130379+292633665+291740124+290436487+288935694+287852649+287046846
3304+285963836+284888116+284013171+283114856+282806749+283562695+284652650
3291+285612490+286413140+286678834+286873198+287670746+288325822+288250941
3277+288105177+288331389+288679926+289094469+289687090+290339908+291036638
3264+291905569+292819343+293690962+294559927+295000976+294743365+294296422
3250+294164548+294228003+294214561+294232243+294285840+294445047+294819607
3237+295185826+295883970+296983766+297731163+298109515+298354477+298226120
3223+298063432+298698327+299910522+300497990+300445771+300795894+301497725
3210+302165399+303193192+304398872+305185322+305633644+306042844+306591536
3196+307287232+308071062+308960708+309683668+310061331+310183415+310004563
3183+310017178+310677441+311379686+311758004+312054702+312239242+312434226
3169+313117514+314155681+314976047+315753604+316620294+317211553+317794023
3156+318593433+319203408+319563837+319932917+320254776+320687001+321467006
3142+321861695+321426575+320803640+320348873+320246849+320649535+321101924
3129+321099304+320648570+320348011+320712645+321219838+321133013+320441419
3115+319364992+318532494+318494097+318434778+317579220+316447404+315356915
3102+314306753+313893520+314092846+314167710+314053381+313938569+313930228
3088+314131416+314326917+314601348+315361913+316382846+317093157+317326882
3075+317161713+317050038+317296654+317509630+317711714+318126395+318643480
3061+319253145+319566077+319235187+318827124+318878274+318945314+318747297
3047+318720067+318743505+318367600+317783476+317414292+316972692+315769666
3034+314175603+313302743+313211783+312970095+312361706+311855961+311583666
3020+311404503+311023462+310317840+309520395+308851273+308349975+307866083
3007+307446817+307365025+307594891+308052415+308916072+309954136+310966143
2993+312723065+315498026+318434606+321073315+323432733+325195205+326087712
2980+326335776+326247815+325981034+325560287+324915638+324019098+323140861
2966+322701122+322400012+321805547+321222423+320845139+320510320+320178982
2953+319938845+319810212+319894554+320336706+320815738+320770999+320202110
2939+319634047+319141952+318372081+317388269+316514341+315972301+315782936
2926+315779730+315708038+315338096+314757349+314270355+313973105+313549015
2912+312944520+312881203+313586274+314256361+314472543+314713885+315212323
2899+315461766+315241655+315025749+315126326+315392520+315677913+316168836
2885+316977897+317669043+317818116+317531758+317211588+317121455+317144927
2872+317033769+316706946+316567007+317107151+317718022+317448484+316735727
2858+316447887+316426586+316112688+315350297+314499979+314055725+314061963
2845+314273250+314462409+314534447+314736083+315279087+315795379+315926873
2831+316091560+316729109+317446416+317706682+317621719+317528277+317598936
2818+317988111+318607116+319046373+319169664+319389706+319829721+320158232
2804+320588148+321482861+322552428+323314302+323766553+324297252+324873449
2791+325118204+324976714+324704351+324560000+324583059+324720309+324877999
2777+325025796+325149432+325059782+324940006+324987227+324871588+324652235
2764+324730270+324961342+324910571+324651443+324645169+324917706+325270862
2750+325712634+325983482+325729489+325253421+325127442+325273102+325228846
2737+324961583+324841463+325019902+325270448+325508861+325770437+325942293
2723+325994684+325895451+325734246+325749756+325784637+325820105+326179327
2710+326626856+326927207+327276331+327449979+327299045+327233556+327258614
2696+327176202+327216185+327270678+327044363+326815325+326794438+326789716
2683+326592940+326265014+326165195+326187048+325876942+325445923+325246631
2669+325090561+324817232+324602740+324527462+324344577+323954954+323560884
2656+323258292+323088987+323059862+323073235+323091882+323049142+322890798
2642+322697296+322533609+322462743+322574625+322788153+322890384+322816141
2629+322729833+322823448+322973451+322899208+322667275+322588895+322789600
2615+323086126+323312200+323560023+323902873+324269334+324586988+324883031
2602+325275205+325702122+326090159+326655671+327368670+327924600+328344244
2588+328723078+329023051+329298517+329513320+329584082+329664219+329880642
2575+330170205+330478002+330763911+330939800+331027900+331211440+331363408
2561+331283202+331206339+331152880+331039757+331095767+331234361+331214198
2548+331141712+331148537+331197756+331290888+331440237+331612024+331812557
2534+332119044+332589390+333007863+333191920+333228938+333240658+333453909
2521+333849392+334168528+334424003+334643217+334780158+334916581+335222447
2507+335694724+336063632+336285914+336535977+336814993+337039964+337231708
2494+337546122+337920924+338149755+338427737+338942926+339507094+339990055
2480+340414559+340750688+340936469+340948602+340771024+340517032+340394982
2467+340415662+340466640+340498661+340572904+340734075+340883148+341006749
2453+341107291+341103707+341093263+341115908+341152858+341457208+341988045
2440+342368741+342667334+343041206+343291338+343344901+343333113+343257628
2426+343137887+343189210+343453301+343707570+343826311+343870361+343984070
2413+344154099+344200768+344198286+344443076+344923832+345324071+345543492
2399+345737511+346028591+346448614+346953187+347364594+347445007+347155202
2386+346441341+344983840+342481071+338788201+334140127+329281076+324705626
2372+320038767+314767724+309243688+304329937+300744365+298889968+298651313
2359+299894357+303093580+308465924+315674363+323160301+327306145+325806593
2345+320769483+317097913+316350481+317410363+319545086+321559482+322711393
2332+323864510+326095364+329060896+331926025+334403874+336826885+339916363
2318+343529475+346664692+349105385+351479348+354023376+356547170+359054661
2305+361564152+363826026+365635891+367101699+368402304+369716040+371189087
2291+372613844+373852234+375110133+376342285+377371732+378248556+379066612
2278+379969184+381034167+382087190+382973665+383659779+384296811+385197315
2264+386267330+387177622+387934981+388599381+389163204+389811369+390648658
2251+391450412+392112605+392793377+393529676+394156127+394567258+394942508
2237+395449286+395961407+396317321+396593580+396946115+397372102+397949849
2224+398710035+399381121+399853432+400229027+400573600+400917554+401241791
2210+401687907+402320527+402836681+403165124+403541856+404036088+404642961
2197+405370023+406131553+406759037+407282360+407977850+408862705+409687448
2183+410388901+411113722+411868496+412481642+412934203+413425333+414316255
2170+415744252+417206337+418256189+419063561+419922117+420900345+421843623
2156+422680843+423692953+425029611+426399668+427587218+428689702+429726353
2143+430727399+431910158+433221241+434499958+435858468+437420614+439120527
2129+440701423+442083268+443476797+444949395+446416065+447976418+449793625
2116+451659741+453394294+455170553+457008750+458858494+460760836+462710433
2102+464737754+466859345+469055076+471346593+473874627+476752991+479772603
2089+482629700+485385738+488261758+491293193+494559456+498115042+501759209
2075+505423816+509348688+513688414+518149466+522280076+526282742+530811454
2062+535861456+540984184+546169231+551598308+557222714+562938598+568711249
2048+574427236+580077252+585853212+591885406+598324801+605138791+611888740
2035+618229144+624311109+630394245+636456771+642698803+649412906+656108879
2021+661858368+666631525+671582122+677455695+683450733+688636261+693331384
2008+698013615+702677303+707531459+712470681+716949140+720735210+723745896
1994+725809133+727402988+729889213+733629649+737338926+739999350+742131454
1981+744679444+747203239+748898912+750297750+751777655+752565518+752530292
1967+752767016+753898936+755207054+756094460+756998341+758341892+759798360
1954+760758216+761047125+760995492+761181342+761484727+761147426+761402556
1940+763484130+765603135+766723818+767575791+768662972+770271786+772190121
1927+773428339+773871249+775277600+777826212+779600403+781788895+786411359
1913+791437854+795312714+799793240+805772147+811561343+816081507+819825114
1900+823528462+827763923+832989710+838486068+842420902+845425521+850117955
1886+855981877+861440252+866450271+870461830+873790307+877774706+881871813
1873+883893689+883089626+882103643+884794537+889942771+892944013+893704370
1859+895697086+898057918+897895850+896144684+894305142+892038132+888755910
1846+884078574+880364747+881051413+883686331+884368102+882180575+878377615
1832+873005478+866970320+864023882+862718866+860667762+860089256+860279035
1819+858865583+856459324+853750162+849311893+844012000+841398590+841125812
1805+840243784+837822151+835123261+833965215+833740899+831318026+825839935
1792+823138908+826780283+830472947+830893108+829528807+827538159+826788142
1778+828010505+827571455+823072454+818153637+818584414+822789199+826882032
1765+828671664+827691541+827478944+829270300+830671894+831652087+830874289
1751+827368647+826053359+829406378+832711693+833547191+833408079+834778308
1738+836812661+835021030+832227560+836619780+843702480+849157960+853083212
1724+855619966+856490413+853401211+845882907+843180226+851306815+860735387
1711+865371915+865641797+864212834+864865722+865993023+864091439+864523251
1697+869313779+876514221+886530882+893807842+896818183+896991556+892836267
1684+890873606+899468474+908970187+913503518+915115848+917895324+920165092
1670+921750399+928886249+937106384+938555475+938151927+944247748+952165739
1657+952841926+943290442+937064884+948437643+956813296+957971962+963260963
1643+971942206+977211285+977445941+972679471+969879935+977789033+987308048
1630+990333486+988469817+985871434+984882832+988486293+992551345+990643695
1616+988302028+993369953+1000251362+1005387878+1009360488+1011652659+1012693308
1603+1014279168+1016603532+1018181877+1018949197+1020184244+1022312901
1591+1024330158+1024707648+1024574810+1026339970+1029917580+1033409504
1580+1033193736+1027060828+1021773964+1024259706+1026966593+1026532162
1568+1027790371+1029746689+1029517410+1026706155+1018173812+1012267563
1557+1020912961+1030662221+1037208397+1041485632+1044071951+1043087898
1545+1036479129+1027543927+1022613666+1032380987+1048984427+1055712799
1533+1055341237+1058830196+1062964667+1062133995+1060656020+1059165636
1522+1054025122+1049398591+1048946306+1053341421+1058643864+1057867307
1510+1051269222+1041156121+1038777642+1053430485+1066821535+1070725899
1499+1067290157+1064201506+1066046769+1065795913+1060562543+1057519803
1487+1061400867+1067202678+1069094749+1066477202+1063110879+1060134248
1476+1055588371+1050039070+1048844212+1051514494+1051640233+1048941204
1464+1046925188+1042687521+1030947544+1016279604+1014795425+1023322460
1452+1025968477+1020012733+1009664700+1002179968+998618420+993814242+985685929
1439+973791950+960376774+954860286+954759020+951465010+947611796+945286605
1425+941701136+939994571+940586864+939504302+942507198+954440676+969399662
1412+979996620+983560719+982540544+980746569+983364805+988697166+991087295
1398+992936694+996406145+999812106+1005708221+1011613987+1011014455+1007849010
1385+1008891382+1011270826+1013616423+1017646111+1021885501+1025454081
1373+1029591102+1032740486+1033898118+1035217818+1036134934+1035044790
1362+1033927760+1033747701+1031948831+1028220873+1026182039+1026793772
1350+1026840028+1024286246+1019246929+1013969648+1011035412+1009441211
1339+1007248307+1006156508+1007610424+1008685541+1006391784+1002221192
1327+999098142+998673086+1001474690+1004883822+1005923644+1005699604+1005305293
1314+1005891244+1010247549+1016913121+1022179442+1024626305+1024859031
1302+1026009425+1028735545+1031086863+1033244472+1034926703+1035675204
1290+1037011586+1040572858+1045674700+1050592828+1055789731+1060782999
1279+1064147599+1067330140+1071364999+1073741823+1072728197+1071168257
1267+1070580376+1068600758+1065254357+1063154584+1061954005+1058945525
1256+1055110579+1052779597+1051089025+1049249070+1047030521+1044658385
1244+1043802621+1043803930+1042786719+1041110210+1038848025+1035476325
1233+1031859284+1029326942+1028091550+1027643194+1027666081+1027113012
1221+1025702938+1024671526+1024554819+1025735820+1027671251+1029145504
1209+1030098467+1029606888+1026946602+1023975692+1022741610+1023382985
1198+1024660703+1025026199+1023985963+1022233901+1020607715+1019748917
1186+1018688346+1016686599+1016212392+1018819116+1021186634+1018893704
1175+1013535768+1009890463+1008076083+1006097016+1004439257+1004016890
1163+1004566788+1005499484+1006015190+1005609160+1003774375+1000548956
1151+998611664+998141387+995069487+989822399+986701555+985637743+983680529
1138+981227049+980047770+979025872+976906315+974418160+971474342+967385231
1124+964403292+965078859+966749302+965063279+961280517+958284033+954383805
1111+948677676+944312272+942825197+942368017+941786271+941535208+940160774
1097+936993881+934618298+932921866+930328860+928590309+928794358+930728134
1084+933318245+932875886+930354298+930465077+932167850+932670459+932958057
1070+934177387+935154064+935088230+934673791+934950153+936576753+937899692
1057+938339845+939868488+941932690+943545985+945191474+945860423+945045331
1043+944471581+945208156+945990504+944408368+940586450+938706512+941019089
1030+944485299+946562599+948331206+949756032+948533463+945685120+944639094
1016+944913457+944362388+943528614+942079453+939471144+938108222+937733282
1003+936215669+935778619+938095193+940612990+941712717+942302804+942317487
989+941949097+943938297+948514988+951946386+953526386+955681996+957960657
976+959483647+962703206+966208365+964429763+959785860+958569012+960590336
962+963728069+965864309+963576687+958397225+955811181+956679285+957266684
949+956029224+954493274+953353634+953181364+954966309+957334861+958079432
935+957062704+954780942+952223507+950292626+948120884+946100525+945345613
922+944561335+943275069+941830666+938431598+933175686+930330928+931028003
908+931683303+931565148+931037034+929593802+929442420+930483207+929964881
895+927702766+924612874+921671744+920067962+920569191+923294691+926220930
881+926625512+925827722+927458252+931533645+934569354+934860261+934890937
868+936757846+939930392+943597549+947436149+953006406+961555156+969487830
854+973036280+975870215+984238492+997582527+1009201592+1014368439+1016557001
841+1021640298+1027930931+1030697929+1030623272+1030208970+1030129832
829+1032747517+1039389031+1044607993+1045627410+1047584349+1051444042
818+1053062991+1051630720+1048523731+1044387951+1041716290+1043043711
806+1045317407+1044609165+1043250448+1042604868+1039807469+1035483701
795+1030735844+1024570260+1020832927+1022037435+1021949473+1017603854
783+1014265174+1012625200+1007252443+998121051+992352880+991622854+989570509
770+985192007+983047909+983030882+983353224+984469495+984402421+980620762
756+976143544+974730989+975072770+974431602+972126884+967555295+962144071
743+960746888+962287319+960814996+958275002+957629560+953931106+947001718
729+943733421+944743600+946630156+948791281+948858976+943369028+935476888
716+931187589+930018858+930698423+936208431+943759134+947250781+949108315
702+953324198+955018493+950551133+946115829+945756951+949734456+957539599
689+963606122+964437897+961856473+960219670+964405015+968011992+962158341
675+957444399+962780759+966143497+961235847+962238306+968590636+969361265
662+965869755+958275347+950882161+951164038+958096528+966337826+969779978
648+968690937+972638454+978760746+972480523+958912517+956738501+964722531
635+971019161+969758126+951998777+928268174+926443729+944054522+949894730
621+946175182+962838802+987886417+991057997+982737768+974707964+972672715
608+972952317+959734158+948507198+961149126+993462809
##END=
