##TITLE=Sample description
##JCAMP-DX=4.24
##DATA TYPE=INFRARED SPECTRUM
##DATE=13/9/2023
##SAMPLING PROCEDURE=Instrument type and / or accessory
##ORIGIN=Default
##XUNITS=1/CM
##YUNITS=ABSORBANCE
##RESOLUTION=4
##FIRSTX=4397.6552
##LASTX=599.8556
##DELTAX=-1.9287962
##MAXY=1.6538554
##MINY=0.25372773
##XFACTOR=1
##YFACTOR=1.5402729e-009
##NPOINTS=1970
##FIRSTY=0.28238732
##XYDATA=(X++(Y..Y))
4398+183335897+183953393+184027711+182790283+181820137+181999674+182133277
4384+181205738+180045259+180140107+181563534+182816190+183024305+182658672
4371+182206841+182048046+182862240+183966530+183920306+183431248+183394079
4357+182884143+181759556+181315581+181508216+181540451+181921234+182233426
4344+181480915+180778963+181413621+182477568+182352556+181516614+181292420
4330+181154754+180453595+180125150+180384210+180198907+180220675+181381076
4317+182105415+181238805+179909799+179082428+178898847+179270652+179421185
4303+179034694+178982104+179486739+179619161+179117255+178677691+178316160
4290+177970727+178276340+179070857+179249504+178272258+177292902+177548112
4276+178355728+179034327+179779059+180055727+179396167+178308092+177775711
4263+178307047+179096804+179500089+179715944+179714860+179270072+178320804
4249+177833622+178547900+179042124+178697233+178978351+179886793+180336612
4236+180621155+180698472+179865684+178955616+179232109+180279901+180932747
4222+181092722+181216650+181213148+181016894+180685470+179754564+178437302
4209+177850455+177754466+177300178+176928450+177143917+177782251+178595343
4195+179363526+180026317+180451486+180038700+178660296+177460656+177302519
4182+177471820+177384635+177671518+178176985+178020395+177517831+177248749
4168+177199409+177421455+177893177+178244241+178113134+177594781+177340365
4155+177747559+178023781+177527293+177063891+177236056+177577290+177816131
4141+178209587+178639206+178324383+177154191+176451678+176812706+176892035
4128+175949907+175054642+175154713+176133604+176954667+176504558+175481262
4114+175322738+175797691+175898749+175443435+175123833+175350213+175806011
4101+176384247+177023123+177426563+177534549+177788810+178414103+178372175
4087+177113269+175888533+175556315+175872570+176443667+176617071+176265795
4074+176313625+176825727+176944161+176809281+176753905+176593330+176513903
4060+176789487+177375928+177615214+177010740+176525996+176800845+176646365
4047+175473038+174820096+175630905+176732176+177184569+177297179+177383880
4033+177438831+177406828+177065981+176521314+176325969+176313605+175960607
4020+175741483+176240893+176999808+177318462+177066948+176769384+177164311
4006+177936615+178025368+177573091+177507325+177665675+177325834+176611847
3993+176335798+176981872+178022795+178685218+178830004+178577755+178103711
3979+177578722+177214114+177339397+177845076+178367821+178703115+178690674
3966+178539754+178623631+178985781+179337115+179595150+179935590+179970089
3952+179397367+178725831+178444906+177990927+177178164+177879498+180142719
3939+181397155+180697098+178562682+176771512+177493297+179273245+179105627
3925+177616046+177406925+178083511+178265834+178919008+181273652+183783124
3912+184489488+183266764+179977268+174779058+170496855+169961069+173105644
3898+177999189+180734151+179030418+176429330+177743225+179360488+178555368
3885+177892965+176744714+176459030+179657336+180737054+177884645+175016370
3871+173437049+174437108+176139312+176123736+177670609+181049632+182041467
3858+178569319+170356267+164729076+171739798+180780027+184686361+183573829
3844+179742084+175905560+173579030+173907591+176418669+178708436+180679723
3831+182667902+183622529+183580465+181301785+175502565+173244239+177202428
3817+180251633+183582555+187805899+188635437+184471842+179366486+178112515
3804+177390014+177818240+182009871+184795623+186602814+189717495+191888132
3790+192494134+192047566+190953182+190837922+190875884+190095995+191428735
3777+194825095+196461804+195114107+193185348+193631511+195761902+198433904
3763+200167859+199238211+199320017+203290377+206539009+207126185+215438534
3750+242177141+272055255+298318638+323915129+337092271+336851921+329480133
3736+320336350+318490423+326878813+337053458+342326102+344089352+346310625
3723+349985877+354619162+359564078+364469832+369611021+377927647+395194258
3709+420293468+449333162+480492006+508948065+528495002+537309122+536288786
3696+527914385+514706633+497716051+482148954+475209455+473380884+468623728
3682+459273919+447854338+434571049+420612606+414927756+413274562+407820581
3669+405182769+405717181+403186483+398236111+393154902+386758638+378663556
3655+372600168+366557018+356145622+347557108+349352516+355066040+357526038
3642+356918952+356233659+355566089+353527004+350441539+345852137+338583207
3628+335036507+336908690+335727257+327345349+314809347+307240859+304265818
3615+299204713+294763213+294285357+296040867+299060391+301602388+301532269
3601+299220869+296061164+292637329+289534083+287043902+283465587+277007774
3588+270877594+269179995+268774387+266762990+263530882+260034218+257199281
3574+255468963+253359275+248463543+242049633+239759944+241401761+242062926
3561+241233504+240161933+238715847+236540973+234373644+232932571+231045238
3547+228665286+227746995+227981811+227533172+226091847+224543600+223586883
3534+222768393+221346475+219617917+218261823+217358702+216670738+216248704
3520+216277185+216304331+215630957+214193133+212627454+211833401+211843695
3507+211258357+209503098+208448051+208919502+209112428+208379595+207829995
3493+207809117+207503891+206713689+206144101+205861010+205373461+204789535
3480+204497931+204398691+204106680+203606361+203266984+202957694+202362605
3466+201687431+201174670+201191484+201683774+201793501+201339870+200939583
3453+200741665+200212149+199280236+198803000+199076281+199439418+199537091
3439+199408112+199191368+199082338+198968083+198686695+198430227+198529603
3426+198839705+198635885+198034391+198096733+198804471+199207737+199152361
3412+199000473+198796499+198696776+198930489+199420998+199927703+199936681
3399+199447022+199436497+199986446+200269576+200408693+200740137+201037411
3385+201223023+201501645+202075992+202732882+203045112+203024235+203085203
3372+203406604+203566657+203437504+203639737+204381451+205030311+205035264
3358+204599183+204332073+204537479+205242837+206162328+206541098+206226527
3345+205872638+205791935+205863216+205826608+205708948+205763724+205688206
3331+205325263+204865208+204095342+203050452+202026595+201106544+200424423
3318+199872153+199235618+198545198+197637645+196462984+195502862+194969243
3304+194258642+192865224+191604886+191583274+192248231+192423589+191888771
3291+190956568+190121922+189563982+189159632+189284935+189756057+189755593
3277+189716760+190398628+191524124+192592213+193037272+192538482+191953589
3264+192175944+192511161+192201233+191927294+192206980+192584261+192862592
3250+193330735+193756948+193736303+193649679+193909958+194415173+194819929
3237+195048786+195750332+196870468+197351381+197331432+197654266+198092650
3223+198513021+199190187+199929638+200840150+202112155+203200269+203531442
3210+203600924+204423245+205683156+206482491+207056819+208012008+209292526
3196+210437332+211480635+212752040+214034590+215069534+215846656+216229297
3183+216321203+216623372+217499406+218743567+219680317+220103338+220634461
3169+221654913+222790838+223515099+223903409+224657313+225926377+227161754
3156+228252403+229248650+229882108+230127256+230245051+230559817+231073022
3142+231395662+231564828+231705668+231587215+231338603+231300970+231583384
3129+232050636+232307897+232045451+231493702+231320202+231598824+231557727
3115+230721224+229397674+228403014+228237408+228241665+227545846+226369656
3102+225302399+224410133+223673178+223046879+222463244+222183675+222314666
3088+222768277+223568444+224441575+224911613+224883770+224885550+225355763
3075+225928698+226231003+226427954+226816379+227508832+228084069+228138207
3061+227923707+227687769+227557242+227617165+227542402+227216376+226862681
3047+226474275+226082231+225682525+224922719+223740628+222596054+221633436
3034+220546540+219283939+218192206+217399160+216363345+214893035+213904180
3020+213715201+213391109+212663597+212040355+211397823+210445788+209402969
3007+208510451+207733406+207188700+207309939+208038671+208820611+209810434
2993+211873182+215134527+218607352+221326023+222969388+223828375+224360426
2980+224697984+225003907+225421355+225543891+224796682+223318690+221806432
2966+220546927+219638717+219268924+218988232+218207472+217165272+216432284
2953+216184563+216261145+216609151+217159990+217421198+217190232+216860085
2939+216531447+215908805+214863973+213778142+213164149+212914898+212652085
2926+212457301+212503583+212491471+212094996+211470903+210984128+210745616
2912+210545124+210459197+210864688+211640785+212365801+212801786+212898510
2899+212958839+213299125+213796001+214199693+214516006+214927263+215466241
2885+216082305+216775144+217334071+217575253+217595008+217461830+217285196
2872+217303209+217434278+217286724+216907586+216637129+216402391+216150238
2858+215938176+215575445+215151592+214834157+214320835+213551626+213043877
2845+213099021+213648293+214523552+215245491+215615091+216078686+216778201
2831+217544430+218346493+218951953+219119823+219002183+218924014+219119204
2818+219618614+220183655+220536537+220764368+221069149+221332118+221589030
2804+222137489+222939146+223730644+224288584+224610934+224960275+225383974
2791+225728729+225869917+225783835+225733121+225877366+225934909+225637906
2777+225176710+224878430+224688387+224426618+224025364+223502136+223215446
2764+223371029+223591004+223682001+223761215+223828568+223891916+223952942
2750+224033800+224165681+224220902+224089157+223709225+223153665+222728283
2737+222552307+222466553+222365146+222300115+222274536+222163358+222057850
2723+222081184+222018649+221809025+221649630+221548398+221517614+221663020
2710+221888858+222051310+222058779+221773772+221289009+220966020+220911805
2696+220856158+220634983+220358935+220169530+220065879+219909251+219613022
2683+219230633+218817789+218402507+218047168+217700245+217189207+216624746
2669+216302706+216144917+215905689+215593575+215262925+214976060+214848997
2656+214785766+214596845+214279526+213988405+213852828+213845940+213875950
2642+213894989+213933377+214014912+214079131+214119318+214197584+214291096
2629+214349761+214426460+214544758+214720870+215074816+215598432+216115913
2615+216471291+216698949+217044846+217566855+218003827+218275560+218642296
2602+219215135+219901724+220734087+221654255+222401464+222807923+223000230
2588+223349668+223953561+224457015+224631792+224636997+224791496+225214363
2575+225683357+225990866+226121799+226189945+226354274+226528567+226508367
2561+226393494+226405374+226451888+226277401+225994716+225956735+226150532
2548+226301084+226359246+226491998+226665382+226665711+226675811+226923475
2534+227159490+227284812+227334751+227161619+226909002+226856083+227018670
2521+227235608+227317724+227285160+227321323+227499583+227754541+228031151
2507+228269024+228371243+228482692+228842694+229346284+229727067+229917265
2494+230135886+230606350+231190488+231671072+232114835+232596174+233049476
2480+233426234+233600760+233464080+233133314+232811718+232599308+232434708
2467+232325504+232371090+232457385+232501036+232553626+232560262+232554322
2453+232510768+232360738+232409826+232734227+233046051+233395605+233830971
2440+234136410+234234372+234299868+234503281+234669332+234608867+234486699
2426+234465106+234572549+234849662+235242596+235516825+235486467+235292477
2413+235223325+235346750+235558154+235859221+236291819+236707295+236990134
2399+237256682+237609835+238264771+240102435+244884164+255147774+273839362
2386+303002269+342186134+388822993+440472102+496174150+556061058+619821852
2372+684660254+746203141+801459782+849042640+885435973+907687939+917612753
2359+910319598+876878262+825344472+765381524+708668930+678980783+689581719
2345+733050804+772032456+778408868+768165728+757936133+750974306+747067875
2332+745557823+743375905+736430331+722893418+704020359+681689450+657511124
2318+631428767+605602781+587230815+577681559+566816165+545063318+514018438
2305+483494309+460996034+444687803+429458844+413981603+398077799+381124908
2291+364134132+348715323+334991812+323094975+314415465+309534032+307305890
2278+306214680+305310495+304263709+303185869+302209319+301259490+300297916
2264+299313085+298265042+297172342+296054024+294874835+293637620+292448505
2251+291350813+290320338+289314301+288318693+287444904+286796122+286341253
2237+285927945+285497358+285120019+284809743+284551940+284364238+284295899
2224+284300871+284309095+284401620+284614785+284843545+285018709+285221639
2210+285567691+286046378+286596521+287169088+287646460+288000329+288450303
2197+289183388+290098505+290914093+291521894+292112340+292876131+293809262
2183+294763425+295660645+296574041+297498736+298318000+299110059+300082081
2170+301167119+302182734+303071692+303940566+305014188+306215918+307344394
2156+308455360+309549008+310584068+311671931+312838621+313951637+314968026
2143+316022377+317235967+318605954+320091066+321575616+322879102+324081915
2129+325489690+327176860+328907914+330486499+332050573+333804574+335612597
2116+337323837+339121875+341124198+343205928+345377319+347781012+350461972
2102+353431615+356797248+360731580+365285226+370420340+376233820+382675438
2089+389272387+395739622+402298802+409131573+416259258+423706506+431226119
2075+438415719+445423248+452527134+459279647+465400307+471452628+477789375
2062+484104800+490207738+496161187+501976060+507784742+513786447+519969139
2048+526265525+532914638+539918375+546701846+553172564+559602804+565972676
2035+572314996+578663817+585047698+591394816+597305001+602614602+607751225
2021+612831775+617387124+621714738+626606019+631652864+636048508+639947432
2008+643417510+646097889+648456615+651274487+654496050+657509421+659820820
1994+661408577+662777151+664202301+665371351+666618957+668401517+669914278
1981+670288095+670046236+670268514+670872582+671111036+670950364+670651697
1967+670462853+670786286+671473940+671869351+671852092+671783597+672054093
1954+672753510+673221982+673183671+673449445+674238332+674936511+676203002
1940+678890540+682010793+684879204+687721377+690680804+694035796+697912972
1927+701787593+705261077+709346445+714674001+720526837+727305703+735079248
1913+742374260+748625060+754837782+762108415+769973209+777280450+783548509
1900+789229760+795176321+801241141+806470793+810638354+814976417+820625007
1886+826473122+831184227+835028355+838498511+841226837+842884791+843719650
1873+843114112+840330294+837542452+837827884+839383290+838934167+836429126
1859+833887245+832275651+830269110+826956762+823257208+819378562+814206105
1846+806942515+800232686+797838861+796695970+793258088+788674452+784050338
1832+777493363+769280525+763799881+761047486+758395936+756131670+753732428
1819+750320241+746594063+743389991+740408275+737378109+735247349+734130309
1805+732629544+729707267+726060960+723822157+723456621+722408152+719340760
1792+718111651+721154974+723736172+723488198+722434699+721703394+721187402
1778+721420980+721207370+718556440+715202841+715797543+719742981+724039482
1765+726404748+725923971+725505419+726604969+727827499+728993918+728218034
1751+724982230+724052098+727232797+730640804+732636974+733894719+735246653
1738+736075475+734096874+732571885+737843097+745263722+751064858+754794906
1724+756701142+757589791+756001724+751865353+752430181+760898578+770076067
1711+775745167+777201739+776500464+777358387+778442535+777073341+777932270
1697+783643318+792931482+803645724+810761258+814147440+814545017+811603082
1684+812817021+823721500+834665528+840876315+843105443+845051461+847755098
1670+851254896+859471914+869058435+874466559+878199548+884378139+890362623
1657+890860427+884027463+880622241+889528848+895343605+898546748+907434471
1643+916872471+921186386+919945281+913754849+910488861+917921482+925771957
1630+927956738+928442701+929653699+930090361+933133220+937770568+937373223
1616+935128770+938823758+943679515+946019550+948134831+950228518+950919035
1603+950840712+950974605+952394415+955316305+958910447+961777077+962933822
1589+963607854+964733408+966271168+968709727+971644078+972610818+969932025
1576+968828219+973277884+975928273+974769826+976688446+983417082+989208699
1562+988615234+979109359+973291815+985470524+999304478+1007430635+1011860178
1549+1016956788+1021446080+1021127599+1016068139+1011456021+1020709822
1537+1037480680+1045148814+1045428751+1048006389+1051860191+1051771419
1526+1049390597+1047185461+1045917268+1047281121+1049541749+1053367844
1514+1059045845+1062281184+1060956648+1054648266+1051682028+1062462598
1503+1072514572+1072592973+1066057050+1063959957+1069362587+1071095072
1491+1064285867+1059624681+1065150214+1071838759+1073741823+1072832897
1479+1070887499+1067607657+1062182815+1054643467+1051700371+1055979768
1468+1058455321+1055157756+1050216555+1045096572+1035244277+1020799445
1456+1015139245+1020565867+1024432827+1022754131+1015110145+1005913926
1445+999954054+994193318+986075520+975891433+964573046+957904933+953403722
1431+943728893+933446360+929374304+930071787+933336614+935882829+937937741
1418+945239951+953658041+958585543+962603036+967066478+971802660+976513301
1404+980753382+984417876+987156418+988794636+990374653+994367302+1000949043
1391+1006902801+1010222424+1011729999+1013533456+1015322052+1016246921
1379+1017354443+1019251160+1021326195+1023689681+1027033605+1030598338
1368+1032290732+1030617841+1027384746+1026710172+1028126035+1028262714
1356+1027607411+1027828916+1028893870+1029074509+1026912715+1023604624
1344+1019074080+1011422355+1003383113+1000524919+1001833125+1001724617
1333+999044199+995920076+994519305+995719855+998104238+1000448375+1001690254
1319+1001870507+1003869772+1007905607+1011280258+1013647149+1016019458
1308+1018242859+1020315030+1022111908+1022613272+1022885238+1023919853
1296+1023990747+1023418102+1023966987+1025228369+1027846794+1033532998
1285+1039390400+1040960433+1040141285+1041214134+1043503630+1043776989
1273+1040798291+1035379486+1029123268+1023148535+1017738012+1012996258
1261+1009021255+1005355754+1001052133+996765461+993737849+991171898+988625605
1248+986911850+985499238+983818065+982948069+983422036+984181512+984353251
1234+984329723+984916841+985655962+985532827+985346847+986242693+987447268
1221+987684251+987119268+987408570+989303507+991217406+991637970+990979494
1207+990209105+989527720+989488404+990492990+990952793+989932341+989021558
1194+989060255+988516865+986324500+983519708+981378887+980532419+980781399
1180+980739218+979202929+976078729+972222063+969603793+969194916+969124641
1167+967993747+966326273+963988173+960780618+958002528+956888428+956700048
1153+956238775+954886453+951658157+947026768+943023438+940625280+939058652
1140+936940508+934339420+932138850+929848347+927101370+924865353+923288664
1126+921616547+919248030+915998450+912611958+908886012+904295023+900286973
1113+896939798+892644148+889040718+888280236+888078544+886258758+883096402
1099+878975664+875843105+875353582+876714030+878512688+880081483+881434655
1086+881598114+880867273+882468497+886269361+887787462+886084697+885419952
1072+889613982+896989640+901116105+900209810+898499383+898389792+899633218
1059+900702661+901466626+903347091+904900948+905308355+906941001+909326622
1045+909943227+910409686+912391770+913318419+912231330+911106472+910534911
1032+909770404+908823709+907750242+906058467+904704830+904022671+903108869
1018+901944617+899105617+893953592+889167878+886501468+884563035+881027713
1005+876294395+873184899+872767044+872985453+872685315+874123390+878473139
991+884535483+891899144+899874690+906909269+911814326+913795559+914132072
978+915061120+915572856+913363850+909608881+906701541+904659321+902768486
964+901005275+899724157+899052060+897746872+894977218+892425894+891815248
951+892591442+893071523+892433324+891078604+889279946+886657574+883552722
937+880699404+877634952+874679782+872867580+870321597+865404544+860472398
924+857276684+854199850+849974706+845899090+842896555+839477557+834410125
910+829185117+825754355+823208527+819796804+816553261+814715905+812531047
897+808716407+805324033+803976278+803567942+802945455+802692373+803766537
883+805273726+805733607+806402995+809222569+813215141+816390267+818615758
870+821416293+826141097+832109174+838188467+845710401+856732056+870607649
856+884694065+898545587+913853528+930438484+946504197+960569330+972607877
843+983883387+994322103+1003073533+1010042790+1015586124+1019835491+1021881503
829+1022293090+1023814364+1026917900+1028671901+1028268132+1028834508
818+1029858984+1028465721+1027183055+1027946478+1029276278+1031398369
806+1032522762+1028522993+1020759354+1015267798+1013016380+1010552513
795+1007604851+1003563133+997338570+992194672+988880389+983059131+973944409
781+965222854+957340956+947801955+938089667+931425114+926133856+920428999
768+917137162+915826943+912973238+910652629+911071567+912091632+913560975
754+915226591+913994154+910574537+908036216+906064271+903497546+901216022
741+900068642+899333855+897936257+895565806+893340315+891875539+889703296
727+886036789+881631703+879451411+881136530+881797560+879257227+877854909
714+879088738+882573057+888059041+892913482+896488353+901411908+906366885
700+908901414+911864014+918088113+925215797+929550222+931967420+933324540
687+932022758+930578336+931161894+932804291+935829968+939068945+939998149
673+939867429+940592929+937900901+928272123+921982006+920859393+919654122
660+917765686+918955091+923427124+927456458+930609062+931852953+928994604
646+925359133+924102859+924920845+927049980+927279765+923830042+921666467
633+924305556+926754021+921864443+913410906+912009129+914222933+911864169
619+911341211+912221346+908853197+910213103+916843293+922106534+928409112
606+930632590+925989592+923261421+919003849
##END=
