##TITLE=Sample description
##JCAMP-DX=4.24
##DATA TYPE=INFRARED SPECTRUM
##DATE=13/9/2023
##SAMPLING PROCEDURE=Instrument type and / or accessory
##ORIGIN=Default
##XUNITS=1/CM
##YUNITS=ABSORBANCE
##RESOLUTION=4
##FIRSTX=4397.6552
##LASTX=599.8556
##DELTAX=-1.9287962
##MAXY=1.7573254
##MINY=0.36038849
##XFACTOR=1
##YFACTOR=1.6366368e-009
##NPOINTS=1970
##FIRSTY=0.38299525
##XYDATA=(X++(Y..Y))
4398+234013583+233119606+231540570+230357463+230145323+231222924+232593552
4384+232112348+230412019+230009079+230769089+230615473+229739743+229597945
4371+229985188+230179866+230094263+230010536+230026342+229911312+229872235
4357+229876387+229322217+228896661+229259158+229222393+228667550+228977384
4344+230429391+231479222+230482672+228488113+227403501+227333814+227322342
4330+226231247+224393910+223710763+224661061+225552598+225710092+226042488
4317+226019872+225159000+224609018+224327117+223951893+224341812+224874203
4303+224202419+223107956+222891244+223482324+223987419+224210977+224858634
4290+225338309+224906143+224848036+225570662+225543129+224389831+223395775
4276+223032641+222476669+221735634+221627925+222383582+223495180+223993993
4263+223742374+223605075+224108112+225212863+226106676+225610413+223911322
4249+222880901+223576267+224201709+223168284+222034961+222196953+222711535
4236+222593920+222314604+222504038+222570812+222303770+222242950+222283448
4222+222549908+223374233+224154273+224097878+223784347+223975110+224227675
4209+224632217+225121233+224786215+224025932+223570695+223123998+222660148
4195+222413191+221983538+221776641+222865496+224043486+223532510+222481003
4182+222404304+222412153+221801206+221342309+221207049+221087412+221068383
4168+221150180+221260821+221375923+221315996+220930355+220608958+220861815
4155+221193464+220819769+220200647+220273994+221218302+222405160+222916556
4141+222729362+222609817+222743930+222650934+222237797+222129887+222431382
4128+222397822+222007137+222097529+222683656+222984386+222792731+222429197
4114+222404650+223060083+223651145+223279671+222489470+222280097+222547140
4101+222529149+222226052+222295667+222578678+222940009+224049313+225253325
4087+224997700+223567090+222683729+222991834+223831655+224566299+224782118
4074+224796831+224800746+224322219+224304592+225245768+225605187+225073907
4060+224725049+224461285+223778047+223401438+224041101+225064620+225461459
4047+225540926+226086191+226431989+226285111+226110245+225748040+225685436
4033+226239496+226730096+226882473+226935408+227335088+227967449+228204737
4020+228420920+229321216+230170179+229837491+228905092+228776024+229526491
4006+230359667+230849830+230733671+230115441+229634528+229588404+229978779
3993+230945593+232202449+233305288+234085729+234254331+234194458+234424462
3979+234242749+233474400+233250806+234147714+235371100+235995158+236350716
3966+236870634+237303182+237878438+238495157+238732572+238863426+238719097
3952+237990171+237379170+237919864+238425597+237592986+238087792+240754117
3939+242515029+242124563+239908778+237995816+239098437+241144055+240811532
3925+239656449+240404094+241199212+240452277+240962962+244272955+247447980
3912+248746171+248075570+243613335+235859588+230722290+231533942+236197156
3898+242492741+246255878+244719743+242264121+244184512+245148777+242353639
3885+241820155+242834460+244053130+247942750+248489399+244345174+240975089
3871+239542203+241331249+243248289+242140169+244372652+250985502+254227465
3858+250109953+238821289+231390506+241595596+254322573+259017307+255952122
3844+249840179+244588945+240772709+240733467+245058149+249388110+253200067
3831+257365925+259358316+258355228+254810569+248008432+245351085+249931627
3817+253383418+258009084+264777752+267337933+263701698+259011881+257272801
3804+253725939+252010914+257887499+263863927+268918754+274391033+277363259
3790+277946364+277307465+276371224+277004113+277217201+276130604+278886210
3777+284746734+287382940+284929685+281276588+281642453+285428880+290612157
3763+293910460+292275721+291582905+296284650+299580057+296917466+295865576
3750+307210926+321825536+338386011+368612563+399486426+417150833+423047430
3736+423156469+427568555+438673467+449325837+453919290+454598796+458078083
3723+467423849+481180281+496439725+508787689+514607807+517342617+528024996
3709+548721939+569241850+585160404+601750451+625621563+652287541+671269769
3696+678807406+676298138+667734069+661707383+663896601+668675135+669277287
3682+664382940+656635385+647646452+638712147+636179863+635132963+629934882
3669+629806250+634197068+634583036+629727731+621497842+611382762+601422790
3655+594416178+585212774+569389966+557703406+560580068+567869218+569437237
3642+564611176+558027316+551776071+545743376+540335704+532779931+521620026
3628+517395352+520720514+520627099+514281930+503832523+496255481+493518121
3615+490950947+488739478+487176921+485363657+485927459+487283447+485052165
3601+480759605+477157149+473261447+469722141+468823103+467323296+460544595
3588+453990854+455183939+458816150+459429591+458021524+456581846+454330315
3574+451574600+449360326+445043220+438573206+436411885+438997778+441000385
3561+441599550+441636843+440550101+438222345+435968775+434559179+432596924
3547+430145271+429794265+431205828+431106696+428733453+426262753+425092720
3534+424560493+423877710+422629705+420286981+417448850+415693054+415295760
3520+415240803+415263529+415437757+414462930+411747822+408937698+407153823
3507+405717131+404253962+404026125+404992939+405072005+403945457+402369243
3493+400345331+397935596+395872752+395153259+395025064+394306627+393533124
3480+392620137+391191056+390201552+389935512+389366429+387538451+384804041
3466+382518677+380912199+379562366+378593731+377548834+376007582+374472085
3453+373210969+371598009+369464330+368309011+368325691+367869543+367200308
3439+366823662+365680252+363559976+361500664+360343415+359962436+359438257
3426+357835713+355560911+354242398+354220219+354141444+353260579+352168847
3412+351308558+350508979+349656884+348529535+347359903+346647001+345977839
3399+344983783+343875444+342998038+342695687+342382120+341286564+339938333
3385+339130378+338768920+338288736+337626493+336815552+335489063+334194186
3372+333713055+333463330+332741906+331818285+331165220+330763664+330361307
3358+329646075+328314669+326791518+325825287+325091408+323722127+322110478
3345+321241994+320688098+319582199+318103370+316836354+316185364+315880975
3331+315203545+313827927+311934905+310227656+309110577+308006827+306515287
3318+305148920+303956180+302164458+299930517+298066849+297073321+296917593
3304+296315606+294349600+292146506+291053008+290649978+290080440+289718362
3291+289548194+288738801+287381320+286418748+286535070+287114915+287177956
3277+287113986+287323213+287425387+287328093+286823217+285599503+284329737
3264+284396456+285584170+285707922+284125809+282683089+282687805+283276099
3250+283087831+282308939+281735267+281588334+281604322+281399447+280948216
3237+280360232+279917413+279727652+279505223+279610675+280345264+280931209
3223+280902128+280733963+280782164+281168205+281871456+282321430+282191069
3210+281943492+282202468+283058933+283711907+283607512+283357987+283525314
3196+283948940+284465725+284875439+284908598+284925442+285124217+285155082
3183+285166736+285366949+285843200+286641304+287150878+287069318+286945038
3169+287331608+288268395+288959973+288791554+288620403+289304187+290495434
3156+291677157+292463734+292750952+292861539+292906680+292833387+292675674
3142+292584572+292723729+293054231+293106183+292351472+291361204+291104159
3129+291362260+291428925+291476907+291849965+291919707+291332815+290607768
3115+289898144+289268169+289210445+289615752+289600911+288774783+287463663
3102+286215384+285620589+285616037+285544874+285113419+284649550+284854243
3088+285863213+286724995+286837311+286666561+286831739+287490740+288203077
3075+288526879+288506011+288559091+289043373+289644177+290087323+290509546
3061+290812825+291002950+291108056+290978513+290843472+291003151+291295322
3047+291402886+291321671+291309708+291459572+291663700+291812180+291645909
3034+291072948+290609607+290812625+291551712+292085486+292072540+292059429
3020+292399418+292832440+293227167+293562167+293615248+293444861+293570033
3007+294416247+295950651+297780486+299785260+302283839+305339009+308963736
2993+313487374+318866093+324795467+331183757+337614001+343312297+347887177
2980+351538106+354694612+357813752+360983843+363659654+365480931+366515704
2966+366980628+367394894+367945476+368166212+367907200+368064967+369302994
2953+370544298+370734988+370465925+370459551+370557482+370188157+368976898
2939+367050917+364731975+362417039+360516004+359008113+357707263+356782877
2926+356132324+355104945+353519190+351613676+349305623+346635675+343995117
2912+341599221+339447333+337601619+335918880+334104923+332410312+331152764
2899+330279656+329874494+329796922+329775143+329962556+330382503+330877874
2885+331557088+332660364+334078702+335163477+335556912+335411308+334786978
2872+333874245+332985841+332132726+331301172+330528434+329335712+327294210
2858+324818921+322363626+319991184+317547871+314733886+311655244+308946327
2845+307078689+305717894+304303454+302932388+301821737+300875298+300212673
2831+299923124+299645885+299175188+298545995+297848044+297422269+297310991
2818+297138766+296933545+297005964+297176623+297203628+297323355+297648850
2804+298005610+298221265+298263384+298404999+298853772+299280948+299285355
2791+299056007+298841626+298555846+298254916+298011710+297787479+297616983
2777+297458288+297261461+296977521+296504311+295947501+295455462+295109409
2764+294953135+294713262+294237429+293794811+293714781+294098145+294421145
2750+294220112+293824511+293484048+293102887+292690515+292311448+292101183
2737+292008096+291771828+291540968+291638207+291892065+291902700+291613023
2723+291248414+291095637+291383092+291833267+291957692+291938936+292106245
2710+292238027+292290853+292549574+292842018+292756980+292239448+291664774
2696+291566188+291938026+292156849+291892648+291534413+291424700+291364026
2683+291176851+290929748+290551155+289968925+289384072+288867706+288359533
2669+287963623+287611342+287253507+286998101+286712248+286293958+285911231
2656+285700456+285512206+285246585+285100781+285091221+285053254+284933709
2642+284701010+284414720+284229967+284176722+284212067+284354156+284556390
2629+284725010+284835159+284937843+285160235+285526683+285884226+286084076
2615+286109023+286160082+286528369+287139370+287601236+287838687+288119004
2602+288590266+289122165+289533135+289878842+290267342+290642312+290979096
2588+291352281+291727178+291951811+291945947+291770990+291680671+291851859
2575+292063708+291981474+291579536+291280955+291375681+291485192+291242897
2561+290828540+290583149+290530396+290451440+290426602+290598827+290739605
2548+290754992+290830689+290953056+290922100+290731028+290575738+290576065
2534+290734269+291013749+291360530+291685843+291951902+292230398+292521258
2521+292785514+293070001+293446391+293906690+294404046+294962040+295413781
2507+295555578+295653946+295972739+296359491+296741107+297108356+297218068
2494+297144483+297363835+297951291+298474159+298664848+298713104+298841572
2480+298967909+298925699+298829790+298844813+298851714+298759010+298521776
2467+298212962+298234467+298663902+299020589+298963684+298714251+298684824
2453+298847380+298992729+299269094+299689588+299883500+299834444+299848811
2440+300003027+300265736+300512547+300557579+300508213+300586441+300731152
2426+300800130+300875590+301048762+301257097+301467981+301746659+302099322
2413+302344404+302480501+302798676+303258502+303610564+303818462+303906942
2399+304042930+304384213+304797095+305186159+305576151+305809378+305692765
2386+305097424+303629375+300848694+296843663+292138367+287320992+282715028
2372+277975863+272667906+267248070+262416309+258475283+255836728+255172246
2359+256777085+260303298+265674150+273229505+281169188+285278670+283454607
2345+278308295+274984444+274801840+276031144+277789452+279642359+281087719
2332+282197660+283912284+286625553+289568880+292106081+294665862+298069252
2318+302164075+305842374+308565093+310970312+313630209+316378749+319049135
2305+321663107+324047822+325988298+327528092+328941112+330440955+331915487
2291+333150928+334258502+335593658+337231966+338692841+339482768+339833374
2278+340321680+341039243+341787179+342550594+343374865+344177940+344844298
2264+345392695+345868509+346276948+346766856+347427860+348109150+348717966
2251+349280275+349784059+350227788+350746831+351409256+351997459+352382444
2237+352621863+352797038+353089118+353504477+353874166+354096358+354174586
2224+354334392+354661107+354964623+355279756+355810271+356410201+356710767
2210+356863545+357246199+357749072+358225687+358679031+359073303+359549772
2197+360167730+360741401+361299413+362002736+362767535+363471660+364157028
2183+364981554+365958093+366832075+367618507+368495403+369287516+369930056
2170+370716160+371765937+372847508+373808932+374684007+375480163+376370680
2156+377499887+378691261+379862750+381065414+382298779+383640709+385035229
2143+386292521+387456180+388581236+389712737+391163414+392910032+394559338
2129+396109039+397699383+399278401+400806541+402353401+404049287+405871147
2116+407637103+409242197+410910805+412887081+414933573+416893606+418985075
2102+421200952+423429648+425866514+428624633+431424233+434063079+436715692
2089+439692106+443070258+446580829+450054836+453653796+457520836+461517455
2075+465532174+469885044+474754808+479679054+484319561+489105415+494494805
2062+500101617+505588136+511372563+517596312+523923563+530299361+536851209
2048+543413071+549725755+555970809+562583076+569633244+576826139+584024423
2035+591197287+598085099+604531077+610807815+617292761+623937914+630346562
2021+636033094+640776302+645525483+651451798+657948653+663813638+669062123
2008+674092459+678663405+682576624+686230832+689840463+693303908+696416347
1994+698715477+700611376+703078762+706145313+709530239+712726223+715071605
1981+716514088+717608260+719050379+720581142+721651860+722240318+722147741
1967+721908031+722507342+723463413+724025503+724531290+725030376+725002989
1954+724843473+725210067+725449995+724978515+723987336+722361666+721692867
1940+723853387+726983744+729102236+730467657+731861702+733709674+735895396
1927+737727271+738508822+739621640+742226180+745362874+750086489+756556248
1913+761835470+765573296+770018232+776112075+782783304+788930463+794750071
1900+800923161+806940305+812257257+817411126+821806824+825654344+831341677
1886+838011522+843031369+847320141+852475830+857452994+861032615+863433136
1873+864143743+862131449+860183470+862868132+867855129+870695154+871115064
1859+870756702+870238168+868893215+866975756+865134777+862471966+857796789
1846+851132261+846225168+846201350+846611865+844484268+841433522+837894180
1832+831889346+824477355+820057912+817560517+815217465+814816419+814665936
1819+812908866+810467847+807315202+802671272+798225825+796712398+797038712
1805+796023788+792157768+787241861+785371382+786393954+785242313+779873354
1792+776973020+781571426+786151040+786196855+784874190+784231832+784371608
1778+785206987+783769457+777741096+771739539+773539802+780263984+785752616
1765+787467513+785769951+785330374+787556230+789719590+790915735+788978901
1751+784427912+783639660+788392919+793206416+794820141+794375028+795003765
1738+796061664+792707185+788850852+794167731+803101526+810711636+815933244
1724+818168859+818273746+813888901+805053583+803260094+813194172+824180540
1711+830692691+831757728+829234912+828420147+828593501+825385353+824731851
1697+831366297+843190520+855983415+861981840+862388640+860901507+855621338
1684+854950500+868890156+883434950+890169839+891524844+894025517+896991916
1670+898206853+905081664+915523277+920155917+922490301+929698272+936881989
1657+936243492+925458229+919314420+931312289+938411368+939271293+948894134
1643+962949749+970469612+968972865+960600651+957565494+969311052+981524448
1630+985855321+986385071+987633150+989652364+993268914+995286161+992853009
1616+994578104+1004818902+1012576000+1014674170+1014572852+1014213907
1605+1015223659+1018254520+1021930652+1024249230+1024079444+1024079372
1593+1026644506+1030288298+1033664483+1036123565+1037839919+1039850684
1582+1041243127+1038368868+1029597357+1024973676+1030643237+1033031740
1570+1030562460+1033314060+1038160625+1039226972+1034833459+1020068622
1558+1009881869+1024238158+1039881786+1047828917+1051731721+1054542028
1547+1053650273+1046287739+1036332465+1030855997+1039992135+1054845689
1535+1060530474+1062456164+1069456474+1073741823+1068864593+1059703180
1524+1050239344+1044660320+1048218819+1053433361+1057819518+1063530014
1512+1064704307+1057020922+1044525643+1044362122+1060303438+1071260088
1501+1073101286+1069060819+1066343963+1070192648+1072670741+1067714992
1489+1063026412+1066547108+1072232620+1073591194+1070748328+1067665680
1477+1064387389+1057423789+1049151363+1049013408+1055814434+1058246275
1466+1054028083+1050374604+1048540253+1040427998+1023757355+1014245737
1454+1019470477+1025125907+1023719261+1016748522+1011901811+1010472148
1443+1006841467+999216789+987159921+972917186+966996189+966042084+958216082
1429+948131084+945495806+947452234+947994731+944261859+940215928+946074941
1416+958183014+966624424+971960897+977639199+981928553+983312329+986139243
1402+992101103+997390377+1000250360+1001472654+1004912863+1012630264+1017043079
1389+1013523184+1009636405+1011499017+1014981619+1017727246+1021296233
1377+1025493666+1029065567+1031998460+1034837466+1038400189+1041956648
1366+1040808794+1034612615+1032343858+1036623525+1039519490+1037998050
1354+1035915540+1035851151+1036502541+1035868341+1032790865+1027063324
1342+1018883548+1009816315+1004681676+1005062545+1005925675+1004286384
1331+1002484883+1002897728+1005409837+1008955224+1011574186+1011932403
1319+1011808797+1013471032+1016526512+1019707928+1022249755+1024298832
1308+1027716171+1032421649+1035394239+1036329187+1037101415+1037820908
1296+1038465015+1039592036+1041188353+1043173843+1045607432+1049302211
1285+1053565781+1056247456+1059653723+1066154074+1071713140+1072357610
1273+1069264983+1065923833+1064753764+1065446745+1065428025+1063071863
1261+1060372779+1058649943+1055818732+1051400162+1047447246+1044796964
1250+1042536729+1040180567+1039028052+1039007075+1037359844+1034256000
1238+1032069987+1030314957+1028112409+1026370344+1025016723+1022643517
1227+1020167900+1019774867+1020551028+1020247949+1018621914+1017360579
1215+1018295528+1020787533+1022000212+1021718038+1021861893+1021237234
1204+1019030827+1017438880+1017837522+1019991705+1021923659+1022236425
1192+1021526328+1019656286+1017165665+1015794418+1015495782+1014874693
1180+1013348446+1011553573+1010275340+1009196245+1007587182+1005375312
1169+1002265640+998596865+996721288+997055687+996786259+995769805+995113754
1155+993476284+990671804+986980303+983234319+981577402+981171403+980098791
1142+978316009+976292352+974077350+970507124+965600468+961258087+958178716
1128+957516182+959963392+960381191+954940341+948387546+944788477+942807721
1115+941178919+940813564+940438885+937013680+932959811+932452421+932654401
1101+928388500+921258392+916368270+914762703+914691831+915255524+916268700
1088+917106410+916935459+916133659+915873045+916419257+917734929+919852110
1074+921672257+922595770+923188598+923751126+924823082+926014857+927595149
1061+930352066+931728631+931835557+934422106+938387186+939143754+936319316
1047+935086096+936970342+938514288+939689310+940656307+939374504+937217554
1034+937050609+937357621+935637480+935144075+936952423+936524136+934510531
1020+934222967+934151950+932776477+931824704+931108051+928557630+926047197
1007+926141449+927119372+926426974+924535081+923960681+925503534+926712353
993+926305772+926734277+929509768+933211539+936976241+941568019+946384648
980+949930910+953026815+955068098+953958922+952996514+955382467+957369341
966+956004722+952978669+949767534+948232183+948967628+948993267+947036693
953+945111222+944769612+945261050+945410222+945929484+947160008+947285289
939+944908368+942135427+941251320+940235376+937327102+934288011+932679457
926+932307692+932089834+930611223+927137217+923323567+921670145+921509829
912+920440568+917852635+914682144+912400349+911372387+911099755+912053859
899+913902414+914661822+912989608+910600596+911003171+914161790+916710608
885+918397463+921966596+926922563+930733154+933380086+934741063+934432376
872+934534713+936660926+939460162+940997261+942114814+945352024+951420300
858+958670154+964656560+968189639+971532173+977728207+985534105+992728675
845+999326337+1005503579+1012571411+1020632971+1027417535+1033063278+1038413008
831+1041601126+1041644246+1040764290+1040523561+1040681911+1040112318
820+1038652281+1039740553+1043003985+1042825750+1041017038+1042790133
808+1046270476+1048215323+1048192524+1046032150+1042417057+1039366676
797+1037364433+1034094518+1029365004+1025464458+1021948060+1018910790
785+1017573266+1015694775+1011377305+1005029695+997374207+989937888+984153826
772+980284601+976957290+972707413+968455861+966151050+965928894+966503367
758+967959034+969747788+968738982+964892410+961429329+958257818+954050989
745+950385200+948571681+948724640+950043445+949390816+946197746+943256258
731+940318047+937724360+938116593+938411732+934491447+928526091+923685062
718+922008332+923943491+927511895+931289345+935647604+940717928+945586198
704+949188473+949722812+947536799+946443355+947419967+947840460+947064590
691+945895832+944651542+945591078+948866456+950482512+948909722+946478609
677+947570013+953003798+956406059+952040224+943328076+945987608+958783344
664+963046623+958552011+952377391+945514526+940243607+942591174+949650775
650+951994409+949941763+950011979+947317702+938886781+938195112+948022555
637+954414014+953405499+951742026+953955499+959432840+963196014+959482516
623+948076164+937300370+933212631+939268816+957568844+973834362+979266472
609+987994499+997194880+989228010+967578310+950734094+952427722
##END=
