##TITLE=Sample description
##JCAMP-DX=4.24
##DATA TYPE=INFRARED SPECTRUM
##DATE=13/9/2023
##SAMPLING PROCEDURE=Instrument type and / or accessory
##ORIGIN=Default
##XUNITS=1/CM
##YUNITS=ABSORBANCE
##RESOLUTION=4
##FIRSTX=4397.6552
##LASTX=599.8556
##DELTAX=-1.9287962
##MAXY=1.786173
##MINY=0.40271977
##XFACTOR=1
##YFACTOR=1.6635032e-009
##NPOINTS=1970
##FIRSTY=0.42241547
##XYDATA=(X++(Y..Y))
4398+253931257+254070800+254076605+253746908+252809664+252010117+251277001
4384+250502250+250920252+251759069+251280136+250235902+249891568+250571654
4371+252165300+253252801+252253122+250858945+251215713+251661770+250903304
4357+250136740+250088637+250807134+251687138+252315001+252924967+253194307
4344+252673668+251075345+248986679+248013640+248434383+248844019+248471880
4330+247726599+247220955+247654042+248794465+249324760+248557103+247121274
4317+246684317+247803815+248412777+246884414+245078721+245292667+246181074
4303+245920978+245831921+246819632+247479456+247583796+248164201+248812380
4290+248670203+248014751+247747954+248047822+247830097+246831044+246423792
4276+247017848+247151694+246392404+246213590+246866768+246804512+245547102
4263+244660236+245218444+245836668+244826759+242954063+242091365+242532424
4249+243547654+244714573+245424686+245503030+245573527+245628599+245500342
4236+245915998+247063246+247814815+247740484+247833035+248165921+247632203
4222+246841399+247469657+248483292+247765673+246048984+245239960+246103608
4209+247711586+248172729+247386260+246627310+246288584+245960159+245388210
4195+244682146+243995521+243895678+244487424+244802591+244433248+243913217
4182+243675999+243498404+243523074+244456896+245665863+245854960+245417466
4168+245777422+246775381+246840755+245869901+245021356+244749633+244990578
4155+245257893+245018114+244615734+244451665+244399083+244619550+245332027
4141+245827836+245589884+245255994+245043536+244621252+244278136+244526300
4128+245304330+246174983+246867090+247026645+246406199+245312034+244274678
4114+243765003+243948618+244436114+244754632+245242396+246104306+246564804
4101+246512652+246664180+247042607+247096891+246988825+247416054+248118660
4087+248145999+247543934+246998428+246530621+246363452+246930547+247788210
4074+248097412+247507530+247150171+247913314+248555312+248177745+247438502
4060+247541927+248794859+249707487+249418709+248951457+248843929+248486105
4047+248093166+248304407+248593507+248548647+248290469+247844429+247840093
4033+248682153+249653938+250272897+250737300+251056463+251037311+250707489
4020+250539281+251083121+252285781+253415706+253844099+253916853+254259306
4006+254718513+254689508+254430040+254727310+254903848+254265110+253819375
3993+254298773+255426906+256767032+257692935+257685124+257075517+256653573
3979+256686251+256877623+257177832+257865819+258472613+258548431+258830581
3966+259432664+259538239+259543793+259852583+260033564+260618233+261473120
3952+261369372+260580360+260312381+260346779+260167750+260991160+262491252
3939+262718097+261941214+260748442+259796185+260923655+262845225+262557485
3925+261720997+263100394+264352250+263828529+264002488+266136247+268205852
3912+268895953+268387926+265435737+259620095+255178867+255546886+259731672
3898+265739081+269226797+267542714+265215987+267384198+269116456+267264505
3885+265539611+264026297+263980702+268006973+269908066+267577111+264665375
3871+262547184+263982512+266613442+266156617+267239352+271833899+274011856
3858+270244786+260265981+253004063+261425143+273314141+279173587+278092805
3844+273006319+268028275+264579345+264427244+268239067+271847031+274323351
3831+277337796+279569661+280130484+277993966+271058431+266777171+270517816
3817+274967105+280356129+286340678+288244153+285219210+281240469+279744927
3804+277122417+275531458+279655457+284080668+288308075+293196041+295516658
3790+295593372+295026081+294243644+294702797+295295600+295277308+298158767
3777+303054902+305183001+303150750+300183422+301024873+304656718+308613835
3763+311663896+312073728+312615096+316162166+318354150+315887308+315683466
3750+326690938+339566698+354067995+382464868+412802086+431218327+438138293
3736+439472489+444818157+455065155+464453791+468742953+469312591+472130289
3723+479935060+490761980+502376747+513296147+521668980+527704821+536997645
3709+553624066+573096527+590873797+608334538+628841793+649216258+663349716
3696+670689798+672239265+667324498+662022902+665546072+672747489+674163092
3682+668736948+659392563+645758228+631361988+629138830+631895867+628600150
3669+627971320+631664686+631214293+625732110+618001472+608890991+599397836
3655+591973337+582785031+566922773+552737469+552665879+557873097+557358674
3642+551739581+546866378+543867412+538758084+529869538+518609603+506647313
3628+503189282+507374463+507343612+500390252+490585585+485378904+484650034
3615+482398642+478812660+475252047+472078262+471731743+471734537+468171953
3601+463604243+460910950+458469153+456064046+454823727+452178734+446284281
3588+442433187+444255398+446194453+445186247+442925538+441058969+439464176
3574+437767946+435011555+429262288+421756417+418696432+420833452+422805615
3561+423279190+423474540+422994515+421037150+418931231+417759994+415540419
3547+412241979+410975397+411819033+412200416+410999654+409327287+408939992
3534+409097218+407578960+404656421+402064170+400119669+398710336+398072154
3520+397808152+397300107+396412041+394886939+392742538+391051252+390358464
3507+389495515+387644568+385950560+385328358+384936835+384271779+383646854
3493+382512953+380073557+377360664+375898767+375495850+375387426+375180181
3480+374133205+372132915+370472480+369729206+369039284+367885425+366461150
3466+364889110+363212265+362082914+361947402+362046080+361469347+360012252
3453+358228273+356277142+353927717+352448801+352487033+352305012+351301965
3439+350771633+350691480+349759664+348198588+346828347+345428007+344264008
3426+343524532+342488306+341180374+340286790+339930238+339600272+338914112
3412+338090326+337318387+336193659+334427416+332994972+332862900+333088956
3399+332640355+331971537+331507815+331253416+331082969+330358578+328874430
3385+327618095+327347788+327493942+327477459+327084897+325935947+324604689
3372+323948520+323611531+323070701+322607194+322495331+322108537+321028203
3358+319934074+319326849+319059730+318967681+318740872+317918591+316760361
3345+315778203+314677122+313436123+312374779+311317914+310269218+309366927
3331+308912234+308851680+308138468+306743611+305571191+304608669+303443093
3318+301773915+299865298+298266976+296538104+294532171+293142760+292345364
3304+291226368+289409980+287683419+287126752+287295354+287076804+286391522
3291+286269697+287349189+288412880+288561184+288514962+288485671+287798687
3277+286649181+286361424+287233545+287928376+287661365+287010320+286633290
3264+286671432+286853667+286683740+286087211+285577482+285593946+285653730
3250+284894332+283577013+282875661+283492613+284924125+286141208+286369647
3237+285693520+285256223+285515566+285750670+285724800+285916620+286328889
3223+286507542+286389031+286247697+286451073+286908256+286930560+286551739
3210+286816457+287842597+288613640+289184066+289752003+289789947+289942712
3196+290878272+291874637+292255303+292198278+292224363+292362437+292367740
3183+292435998+292735902+293214816+293881770+294278364+294159943+294435750
3169+295695131+297289530+298228225+298224535+298124405+298681915+299463814
3156+299902760+300150798+300352131+300489740+300614180+300749083+301162463
3142+301908102+302621242+302945296+302395006+301321623+300942892+301374581
3129+301685915+301135088+300117261+300116454+301163753+301394145+299946097
3115+298028164+297366280+297979273+298176611+297421531+296748772+296326309
3102+295626408+295013809+294980092+295185456+295138267+295006463+295185402
3088+295537117+295786876+295952593+296199414+296553709+296770270+296874878
3075+297130370+297473933+297595704+297350980+297086566+297162850+297570443
3061+298240694+298870116+299244189+299805873+300606691+300837191+300328877
3047+299809671+299549647+299359350+299197699+299038234+298989916+298971230
3034+298389733+297324698+296685190+296780034+297077806+296969525+296556898
3020+296415527+296525564+296743254+297141656+297297502+297139542+297288151
3007+297937584+298824575+299670253+300614538+301950275+303399344+305364412
2993+309074118+314220316+319435058+324347604+328877799+332557800+335421541
2980+337936899+340239171+342144903+343547571+344456025+345028602+345708240
2966+346468032+346693408+346395296+345953502+345588494+345592112+345866791
2953+346186366+346562661+346944797+347288808+347526581+347298877+346057519
2939+344063069+342147483+340274070+338231356+336505136+335492737+335002392
2926+334672606+334308242+333560024+332108196+330249186+328544680+327057809
2912+325719887+324889365+324459145+323899145+323291132+322742921+322039563
2899+321406074+321223409+321320725+321281455+321226526+321716548+322665204
2885+323357885+323635431+324031683+324898251+325780190+325932830+325380892
2872+324655713+323918745+323133692+322344125+321569534+320892691+320144794
2858+319077323+317876060+316476653+314704497+312841260+311002209+309239441
2845+307750170+306706096+306319876+306330769+306124240+305563918+305149714
2831+305345565+305824157+305990376+305735547+305300131+304993814+304972781
2818+305221985+305417298+305221913+305046378+305398415+305969845+306319482
2804+306492079+306647405+306867048+307122593+307354598+307674352+308119191
2791+308597532+308970997+309049144+308881276+308609930+308226970+307882170
2777+307736052+307551739+307225213+306998583+306705989+306059386+305453451
2764+305394331+305702153+305897610+305826988+305682303+305648478+305725156
2750+305872600+305821935+305387487+304984391+304868944+304849308+304834904
2737+304841605+304828634+304750057+304674956+304706666+304880732+305092635
2723+305151828+305053472+304970022+305093782+305500497+306001161+306171716
2710+305857945+305535074+305604801+305828851+305961281+306167308+306302068
2696+306039607+305729958+305724332+305809108+305715124+305458898+305279278
2683+305206936+305136671+304972244+304545320+304060135+303770300+303431018
2669+302983491+302699246+302500528+302166943+301770404+301449539+301200157
2656+300974781+300795627+300667640+300533919+300435850+300382498+300183422
2642+299871085+299709219+299644366+299570608+299611598+299748400+299901344
2629+300131629+300344661+300369742+300341167+300404928+300499432+300674734
2615+301030032+301454448+301881623+302503395+303177838+303386982+303209727
2602+303250968+303750342+304443847+305007071+305391894+305788398+306292465
2588+306686246+306804989+306852035+306993065+307088733+307066482+307021407
2575+307055948+307301819+307534182+307433855+307322350+307420061+307429054
2561+307233597+306912302+306579936+306419951+306417515+306317511+306074901
2548+305978158+306060497+306129005+306313068+306684598+307008293+307177235
2534+307255705+307372728+307564172+307733723+307945197+308254846+308499105
2521+308606526+308771885+309131375+309511934+309784427+310009158+310291720
2507+310743295+311183907+311384810+311506599+311763255+312164882+312518245
2494+312697399+312899628+313207200+313512263+313835421+314170188+314488939
2480+314738859+314736709+314526346+314321108+314172123+314102325+314085520
2467+314076813+314077745+314034425+314018552+314081794+314088566+314074986
2453+314144677+314232964+314336981+314523516+314711126+314809087+314948147
2440+315227197+315544228+315786086+315931021+316074738+316200648+316253498
2426+316421437+316709409+316936326+317180369+317459635+317606935+317709196
2413+317929090+318077035+318040846+318114693+318421262+318754273+319062454
2399+319409439+319766923+320173674+320673764+321139887+321374149+321242722
2386+320672403+319522772+317441683+314065347+309594345+304854576+300385275
2372+295883798+291127995+286532480+282335923+278748562+276328676+275525779
2359+276729586+280073424+285299453+292334041+299588040+303253190+301486194
2345+296918251+294123575+293979696+295069454+296613887+298137376+299497728
2332+300875781+302728519+305169672+307692375+309889412+312322645+315721053
2318+319611346+322979118+325490785+327709500+330121629+332623335+335124432
2305+337462750+339400085+341038305+342621847+344224487+345797423+347302495
2291+348652062+349878300+351151117+352404908+353508533+354516668+355427164
2278+356125292+356626457+357135792+357928190+359012071+360023897+360813751
2264+361599771+362417466+363024046+363418829+363922180+364714148+365680899
2251+366485838+366948987+367243480+367513358+367878832+368425538+368968554
2237+369368891+369748913+370222560+370835589+371512970+371966158+372106973
2224+372274733+372754221+373349478+373672886+373782851+374086553+374542285
2210+374777012+374959714+375451420+376124895+376690556+377119164+377633264
2197+378294629+378928368+379460814+379963162+380590452+381358807+382094342
2183+382845785+383814972+384853922+385717373+386448249+387089836+387742744
2170+388631205+389709138+390748196+391716810+392737951+393819181+394887477
2156+395891241+396876731+397985766+399164097+400358588+401654481+402929233
2143+404106776+405359708+406725828+408064395+409412780+410831213+412191136
2129+413650703+415397633+417101101+418512799+419851867+421397249+423155574
2116+425037766+427070590+429112229+430955544+432703908+434624295+436812697
2102+439097089+441363602+443668526+446102906+448760046+451474408+454030075
2089+456653606+459697217+463148045+466882438+470821067+474599962+478089022
2075+481736167+485814714+490243687+494906170+499691373+504525413+509575835
2062+514973852+520513616+526154995+531952454+537797138+543777620+550048547
2048+556514142+563037712+569582852+576138633+582851533+589718827+596399229
2035+602883743+609572779+616485400+623165120+629624337+635948903+641623426
2021+646619672+651397207+656590165+662894951+669662887+675717933+681113693
2008+686148063+690544502+694406058+698225335+702053712+705944578+709827060
1994+712796573+714763182+716852977+719262957+721648571+724371640+727704119
1981+730799255+732714984+733834840+734894786+735998016+736488827+736053554
1967+736042662+737512011+739520184+740972908+741831557+741958254+741233039
1954+740736066+741135293+741474252+740989031+740236083+740254787+741790710
1940+744184995+745631413+745937121+746552336+748140715+750096360+752016102
1927+753765720+755004176+756536444+758970430+761620547+765438247+770935694
1913+776048390+780033062+784207063+789503499+795534754+801443109+806911175
1900+812024659+816741425+821513514+826899313+831738692+835663096+841294048
1886+848386540+853748976+857740025+861953870+865785472+868950622+872005985
1873+873728300+872134546+870269625+873540117+879287520+882711725+883748454
1859+883939074+884209309+884077309+882382942+879470758+876249856+872671793
1846+868167289+864791168+864949540+864702021+861384304+857592331+854820891
1832+850535456+843935925+839176233+836958809+835363622+834904271+834318796
1819+832525894+830217603+827430683+823890887+820416662+818540275+817912233
1805+816447756+812937270+808674337+806191764+805515422+803920737+800124607
1792+798525120+802311432+805721091+805611807+804546199+803646273+802917689
1778+803202329+802600228+799219306+795861817+797182254+801582491+805636243
1765+807160772+805815182+805731625+807932568+809660329+811053573+810315172
1751+806350280+804105624+806397576+809991118+812284074+812840025+813342803
1738+814015848+811719954+809915229+815910939+824130022+830092697+833092164
1724+833755321+833217644+828915655+821089493+820248615+830079654+840557511
1711+846367116+847007555+845023461+844803173+844518533+840615843+839905318
1697+845213579+853719452+865291509+874232654+878777146+879264301+873522488
1684+870135761+880489356+892800029+898823473+900649769+902948601+904583918
1670+906598397+915877355+926758595+930329420+930440496+934351642+939322807
1657+938940134+930433616+925130372+934984271+941838057+944135671+953289508
1643+965392362+971556191+969979062+961868618+957150204+966174979+977341503
1630+982490961+983538152+983185792+983072782+985641133+987756082+985361438
1616+984487167+990316336+996146078+999137949+1001049307+1003239429+1004863209
1603+1005112878+1005667252+1007600897+1009778477+1011678370+1014122603
1591+1017021673+1019313196+1020655704+1021872231+1023429151+1023481392
1580+1019871654+1013867990+1012983327+1018481348+1020110932+1018089646
1568+1018734672+1020425455+1021632236+1019662689+1007981276+999915693
1557+1012478328+1026360683+1036288250+1044413027+1050510066+1051506808
1545+1044738872+1033097303+1024721353+1033316516+1048643569+1052252733
1533+1050851319+1057186204+1064525856+1064799890+1059722809+1051858881
1522+1045367631+1046161713+1051506091+1058598009+1064582540+1065019532
1510+1059173093+1047350292+1042388157+1055856021+1067681904+1069073930
1499+1064263932+1062121968+1067353550+1072094538+1069100875+1063853097
1487+1065642272+1070995106+1073741823+1073415978+1071880126+1068332734
1476+1061296068+1053611007+1053734336+1060174922+1060531438+1052816280
1464+1046527258+1042869436+1033070286+1016866239+1011011988+1019186355
1452+1024305429+1019063455+1007534251+1001187041+1001884308+1000040312
1441+991027219+976734171+962834258+957958690+956748541+950549025+943375270
1427+940805198+940101697+939433595+938421161+937814258+944486024+955728510
1414+963674491+969514409+974814142+977240030+978086712+982077331+986944801
1400+987717958+987386308+989866444+994292121+1000427643+1006408806+1008516374
1387+1008295083+1010095437+1012552713+1015049259+1018874698+1021411662
1375+1022305497+1026210982+1032081213+1034541571+1032628421+1027662631
1364+1023098074+1024470179+1030073542+1033133205+1032618460+1031562240
1352+1030812875+1029340802+1027424428+1025436894+1022380742+1017180833
1341+1010651172+1005586561+1003027955+1001454482+1000298509+999703861+999679138
1327+1000955001+1003430407+1006125384+1008664211+1010500181+1011703021
1315+1013236579+1015906977+1019723888+1023000400+1025021113+1026531166
1304+1027168668+1027965903+1029999157+1031309848+1032130445+1034121347
1292+1035157287+1035003143+1037252887+1041827476+1047007105+1053587215
1281+1059674437+1062571572+1063433160+1062852987+1061331827+1061716721
1269+1064343692+1065156119+1062163460+1058203368+1055010701+1052613907
1258+1051173294+1049448042+1047159672+1045262933+1043755961+1042205276
1246+1039996881+1037127192+1034612874+1032676148+1030978986+1029755723
1234+1028196940+1025759729+1024307507+1024098685+1023144511+1022104988
1223+1022511452+1022654059+1020733385+1018266005+1017345798+1018155646
1211+1019761726+1021143289+1021281525+1019421763+1016861939+1016225513
1200+1017790817+1019335697+1018857428+1016963054+1015825283+1015171514
1188+1014144890+1014325620+1015049259+1013692060+1011964371+1012020410
1177+1011931120+1010612833+1008547116+1005397446+1001877787+998904261+996373747
1163+995023857+995246295+995545267+994659673+992877378+991739607+991332712
1150+988947169+985055013+983103596+982713686+981705120+979911861+977921173
1136+975930844+973490265+970283768+966442993+962002554+958731417+958193382
1123+957490740+954389585+951464359+951102253+951080467+947553857+942709963
1109+939478599+936122758+932635204+928237188+922403290+919751094+919771876
1096+916724324+912331611+911218922+912782219+915737758+919648977+921977333
1082+920057089+915812358+913828980+915273535+919017351+923019078+925341773
1069+926396775+926047640+925491331+926586177+926905788+925595527+925299135
1055+927665687+932292303+934663657+932468375+931471849+933765737+935012720
1042+935524742+937500739+938675774+937245624+934622953+933170587+933123864
1028+931633804+928706715+928054881+928925426+929136398+931350025+935227132
1015+936677849+934570568+929048756+923716918+923498566+926716458+928968495
1001+928945707+927196304+924876403+924336433+926538665+929316842+932413339
988+936391633+939135053+941271142+945095435+949245286+952039228+953571998
974+953556519+951740041+949456114+948862326+949940905+950799554+950151017
961+947648880+945278817+945205292+946018149+945857986+945261116+944993532
947+944294903+942756472+941909432+942888544+944225749+943222559+940441516
934+939107607+938595871+936236127+933771255+933048333+931807656+929028476
920+926692666+925945881+926107907+926343387+925152873+921668042+918563733
907+916786239+914681467+913041921+912505749+913090436+915334590+917254118
893+916511417+914666704+914230644+915997245+920393110+925153303+926199061
880+924509352+924500538+926855051+929160261+931348448+935402488+941132835
866+945931009+948336473+949733014+953354505+960769258+968121952+972073516
853+974529932+977377835+981877825+989726417+999763770+1006642495+1008681482
839+1011878520+1018000714+1022821317+1025214743+1026368351+1028736552
827+1034090461+1038011067+1036952410+1032515267+1026658867+1024739555
816+1028991882+1032482375+1031842365+1030211204+1029692947+1032208986
804+1035214043+1033627885+1030925885+1029962395+1027304825+1023537002
793+1020426028+1017739650+1015221964+1010760170+1004761808+999811640+995538961
779+992574464+992439310+992852583+990354388+983455956+974193337+967260365
766+964749343+964962608+965088230+963955619+963567142+965304362+966499749
752+964059313+958824219+954072196+951302403+948808795+946430562+946734264
739+948373952+947725200+944884893+941582082+939264259+938346776+937548179
725+935111972+930311075+925056847+922554639+923398526+923995969+922120728
712+921540556+924852898+929086808+932511659+936149416+938635070+939197471
698+940637725+943923481+947836347+950223968+948685895+946450054+948144635
685+951337303+950804857+947286273+946757983+950598042+953047936+948903102
671+936607334+921668973+923266239+938709957+946049680+945802734+946018937
658+948281652+946553103+937443051+927126434+923384409+929171297+936954534
644+937801933+937238243+938876283+937737437+936609627+938587989+936767211
631+930865592+931765160+943499388+955279693+954609443+949102249+948672423
617+946461878+941608095+943051933+952036791+959879364+958889359+952536416
604+944620247+938520054+940466956
##END=
