##TITLE=Sample description
##JCAMP-DX=4.24
##DATA TYPE=INFRARED SPECTRUM
##DATE=13/9/2023
##SAMPLING PROCEDURE=Instrument type and / or accessory
##ORIGIN=Default
##XUNITS=1/CM
##YUNITS=ABSORBANCE
##RESOLUTION=4
##FIRSTX=4397.6552
##LASTX=599.8556
##DELTAX=-1.9287962
##MAXY=1.5657736
##MINY=0.2179393
##XFACTOR=1
##YFACTOR=1.4582403e-009
##NPOINTS=1970
##FIRSTY=0.23731875
##XYDATA=(X++(Y..Y))
4398+162743241+162710440+162255927+162176140+162296025+162032324+162044371
4384+162123147+161509367+161639766+163674543+165699173+166359999+166629065
4371+167008961+166987502+166080000+164348132+162975878+162669300+162576075
4357+162186297+161069967+159053420+157678836+157832840+158403630+158251925
4344+157694603+157507981+157203610+155861684+154407589+154859169+156000821
4330+155094657+153261738+152319727+151674464+150916448+150599131+151039051
4317+151757980+152306616+152584419+152387496+152019392+151933638+151618752
4303+150520642+149453627+149669535+151023049+152615381+154098651+154616549
4290+153425184+151872234+151628674+152866667+154723650+155920145+155887936
4276+155257377+154795906+154399118+153813562+153548410+153771288+153607831
4263+152435677+150808836+149850895+150296272+151672624+152567354+152640928
4249+152912344+153519992+153553335+152905753+152256116+152047790+152427768
4236+153083515+153564075+153820204+153854723+153840284+154011220+154130308
4222+154157172+154368442+154321886+154180409+155041571+156273146+157042136
4209+157739575+158103807+158210131+158392901+158063965+157168877+156530573
4195+156216454+155791442+155673305+155880620+155909324+155951996+156408512
4182+157349266+157946645+157692825+157173128+156600121+155989274+155934288
4168+156926543+157933913+157577182+156288965+155273942+155162018+155986310
4155+157343881+158430076+158844675+158937889+158770304+158443125+158316895
4141+158606531+159554939+160532357+160380785+159477850+159199025+159693074
4128+160120384+160442996+161271560+162415041+163217210+163525209+163375455
4114+163212172+163825032+164664674+164345230+163335358+163484171+165114823
4101+166856112+167940836+168559745+168651610+168519821+168657363+168895886
4087+169554014+170901805+172135005+172729604+172992508+173171640+173440021
4074+174128652+174821105+175022983+175182516+175622058+175895426+175167658
4060+174324461+175043277+176005317+175862543+176034624+176860674+176869380
4047+176314409+176710645+177806977+178388292+178090461+177621121+177900252
4033+178279321+177894264+177621060+177887357+177938654+177914456+178178913
4020+178410691+178518559+178664072+179125952+179602404+179801299+180717007
4006+182106408+182242683+181217697+180302704+180009737+180203748+180414782
3993+180757759+181705533+182852018+183868727+184653719+184596413+184009069
3979+183935802+184263308+184560750+185320462+186792818+187951381+187825488
3966+186899336+186186058+186393802+187167676+187401110+187295981+187236264
3952+186663021+186102511+186804508+187673006+187501579+188238340+190182958
3939+191029875+190085677+187786943+186378474+188183874+190490824+189991829
3925+188938681+190006033+190499939+189251799+189777055+193198301+196474156
3912+198003981+197509667+193423069+186566496+182256867+183178829+188022727
3898+194929412+198468089+195481154+191858970+193966698+195509828+193494926
3885+193528177+193723086+194229336+198929438+200570319+196785087+192486964
3871+189892300+192112187+195255037+195117802+197678785+203444420+205139664
3858+199676846+188283301+182949810+194351203+205801706+209631409+207312464
3844+202226099+197255837+193387324+193751208+198721796+202945201+205871908
3831+209069612+210890237+210647914+207332982+199995462+197678437+202925234
3817+207029613+212778020+219266968+220067452+214926806+210022536+209143104
3804+206763970+206470717+213147463+218400370+222065309+226716321+229941492
3790+231711414+232312185+232112166+233088839+233404266+232422484+235272613
3777+241330132+244404682+242579273+240292864+242701181+247791388+253187356
3763+256679682+256072677+257247591+263622969+267861355+266758033+270663844
3750+291669221+317590516+347124471+389337798+422371968+435725868+436819502
3736+434835256+441111924+454346143+464484294+467719826+468691124+473166744
3723+481114723+491157881+503212794+514321833+519520848+520902524+530555209
3709+551541620+572090471+584752572+593656561+607119473+623585016+637068201
3696+647383378+654271404+655680711+657163183+668900093+686380219+700642020
3682+708749696+711261262+710640871+712021035+721790171+731374719+734319390
3669+741511724+755536127+766771918+772785599+778374923+784621752+788340584
3655+790026733+787001131+775770899+769344223+782305893+802792941+818859673
3642+826705507+828253092+831660379+840002591+847261470+846628080+837249703
3628+835218738+847622635+860509178+865157738+860180630+857919705+867602351
3615+879794684+885949300+884988507+883489072+893954299+910955664+918618544
3601+917500876+916114989+916319606+917878636+922251376+928125758+932820342
3588+937486886+942306464+946026767+949938852+954737421+959244555+962906898
3574+965922854+966275273+962645302+959174251+963445132+971028307+973087067
3561+975156782+983195951+990135846+989510387+986096478+984323430+982919314
3547+982341595+984157398+988337701+990206232+986873254+984230318+985605577
3534+988634204+991973476+995480251+998312354+998621528+999071391+1001796485
3520+1002102061+999245189+996873086+995761548+996221221+997324175+998335571
3507+1001089685+1003554900+1002622556+1001747027+1002466088+1002084322
3495+1001959410+1002181685+999835496+998099398+999159843+999397159+996436139
3481+990043552+987699652+996380059+1005720914+1005338739+1001166611+995847466
3468+987873123+983804162+988969619+997432247+999584201+997486119+998504709
3454+999753747+996560315+991871535+988864163+989450955+992018683+991094105
3441+988336311+987212266+984678955+980977700+978426322+974397009+970839141
3427+973286616+975646129+969715668+961996217+960203631+962973932+965718809
3414+965330830+963009902+960269848+957443386+956986901+960659462+964752294
3400+962503714+955794350+952459738+952204191+951926327+954463481+961443433
3387+967588484+966259332+957962163+951476382+952632555+954810750+950136194
3373+944777565+947283981+953705343+955643933+951156581+943848654+938629570
3360+937002934+938524605+941923635+943100980+940427470+937751262+939100443
3346+942845842+942731558+937340474+932962912+932963157+931860285+926312816
3333+922014305+924017148+929202143+929634267+924127836+919462109+919041103
3319+921887349+925264062+924340873+917739991+910800423+911871822+919170512
3306+916677094+903834941+897456169+900971365+907631515+911702684+909078876
3292+904218996+903705941+905300450+905495094+905377784+905589677+904415602
3279+900260886+896097178+898474758+907572901+914399002+913657541+909574355
3265+906637696+905683443+905523869+904666571+902028948+898777801+898361455
3252+900860023+902315722+897608712+889770317+890367901+897291037+897481675
3238+892115361+891190456+898303985+907189255+904491301+889245981+877027408
3225+875670869+881276543+888890374+894797701+897613045+895867873+889607474
3211+885445238+887302814+889991121+888821133+886190132+883420322+880582905
3198+879771222+878968204+876964543+876405300+876946558+877555014+878956514
3184+880323434+878064145+873339641+873312173+877780886+879243534+874863192
3171+868458751+865052772+865328674+866499316+864810632+857874008+851109954
3157+850865444+852984044+851945018+849192293+846293728+844059699+842061351
3144+838005879+834573086+836258663+840622247+841654651+838422715+834399942
3130+831084214+827009857+821389632+815928736+812471827+811544715+812266393
3117+812108781+809651251+805167742+799614060+795230857+792762372+790461064
3103+788031165+786934506+786884721+786193944+784124475+780818802+776240464
3090+770388727+765090837+762972809+763811551+764684873+763761276+761567712
3076+759491540+757659714+754225368+749767447+746138948+742200376+738756874
3063+737007206+734491798+730520445+727003614+725153559+724142491+722071550
3049+718863730+716236326+715121600+713481476+709687844+705905903+702837464
3036+698305805+692513744+687692041+685012726+684279359+684012449+682813032
3022+681271659+680642031+680055647+677919021+675765392+675848653+677104028
3009+677316983+676658047+677656485+681256781+685833729+691517473+699591059
2995+709423305+719944039+729119353+733194691+731653400+727992774+724890900
2982+722406393+718514663+713025481+708927417+707151181+706405060+706192187
2968+706436942+707318766+708616364+709677053+710955276+713012320+715843278
2955+719356184+721844861+721402191+718437410+714039084+709815536+707026923
2941+703666887+698078789+692172116+687312318+683753101+681662827+679244945
2928+675724109+672505621+669179960+664781797+659812986+654527808+648716291
2914+642685238+637185960+632866521+629427720+625951355+623053690+621948202
2901+622226679+623065993+624016486+625426651+628347124+632172066+635064785
2887+636788907+638742334+641934417+646036527+650074179+653234993+654293067
2874+651742384+645583149+636591361+625635192+614276656+603087626+592149197
2860+582117769+572127544+560790467+548790244+537360832+526783527+517294707
2847+509022799+501579577+495162874+490372440+486830553+483615253+480349841
2833+477463825+475421251+473803567+472255859+471133572+470584016+470352667
2820+470007319+469420363+469028460+468683358+467547909+465381322+462429498
2806+459018287+455672680+452469969+449057123+445335431+441454287+437753154
2793+434471842+431499990+428650352+425700408+422604829+419695719+417027481
2779+414344243+411915897+410008495+408183332+406229292+404340610+402541157
2766+401136019+400453622+400030245+399193424+397903225+396485865+394989578
2752+393307066+391572890+389950545+388503756+387383880+386590713+385784017
2739+384812433+383787509+382668614+381544651+380748132+380256454+379517732
2725+378488270+377869187+377499315+376606537+375301051+374075024+373203460
2712+372547917+371603637+370373891+369231575+368190710+366866953+364939645
2698+362766518+360862672+359196715+357539913+355827318+354182370+352587371
2685+350801856+348896416+347229559+345805701+344312601+342810857+341596541
2671+340573026+339443422+338152937+336879741+335795222+334873444+334082055
2658+333536341+332991097+332051764+331008589+330318261+330025908+329946714
2644+329759427+329533310+329705923+330144035+330397701+330561137+330788214
2631+330915661+331008507+331291971+331811361+332419347+332985007+333715820
2617+334748981+335696040+336220642+336630306+337280024+337951733+338434766
2604+338634457+338403558+338050158+337804790+337399663+336752193+336010773
2590+335253698+334300630+332981860+331567280+330213051+328840367+327485300
2577+326032441+324573186+323447261+322396217+321075546+319797302+318827374
2563+317912545+316758947+315532206+314530743+313684991+312936316+312357759
2550+311783189+311133368+310693580+310525484+310275395+309965015+309985759
2536+310252035+310482505+310780561+311206656+311581637+311831134+312038204
2523+312415290+313051173+313727275+314404645+315190884+316007718+316856106
2509+317804432+318759850+319521441+319990863+320279886+320551782+320812274
2496+320875139+320692880+320491921+320381336+320176617+319759535+319298104
2482+318950447+318666145+318231099+317514101+316646012+315788815+315013510
2469+314292261+313573240+312915735+312410181+312046603+311632567+311014791
2455+310293257+309595920+309036983+308772996+308660265+308407947+308088432
2442+307828226+307593178+307449443+307359969+307125964+306801564+306587975
2428+306439519+306252356+306100405+306146021+306389796+306602792+306684234
2415+306675405+306707226+306976261+307347993+307613717+307826795+308033497
2401+308352256+308941419+309544459+309713556+309546523+309525738+309676360
2388+309621916+309147242+307909219+305360293+301587692+297318487+293041475
2374+288760744+284345577+279897690+275675552+271735795+268247311+265692336
2361+264709206+265916307+269190977+274043766+280537333+287146370+290409452
2347+288822669+284599509+281895486+281900064+283195270+284788328+286116725
2334+286966012+287871011+289707272+292524128+295558927+298057393+300201274
2320+302875582+305997238+308543773+310055020+311100852+312393913+314113477
2307+316217035+318457584+320395233+321961825+323385234+324684446+325758624
2293+326663439+327623394+328754694+329800077+330491978+330822774+330943741
2280+331202067+331768607+332445363+333006139+333328474+333498185+333713164
2266+334041507+334405126+334655808+334692513+334576389+334578637+334770113
2253+334873035+334872033+334925538+334965677+334990385+335090773+335185969
2239+335164183+335126252+335151124+335185744+335384271+335727493+335819583
2226+335690747+335704665+335887598+336131209+336461147+336864516+337236881
2212+337536981+337805117+338107669+338552034+339183012+339851859+340343047
2199+340657207+341067075+341737925+342431420+342894424+343284775+343804656
2185+344297887+344640168+345036977+345604558+346151294+346555337+346901584
2172+347268390+347807727+348666906+349609388+350303066+350866192+351572992
2158+352373843+353152950+353930135+354705317+355472692+356253965+357186391
2145+358316158+359364545+360200671+361084947+362202738+363345667+364298326
2131+365175285+366156720+367249414+368297514+369320886+370536653+371871937
2118+373141127+374404267+375734319+377075611+378444984+379947158+381543670
2104+383159924+384915641+386855579+388826173+390871077+393134944+395587202
2091+398277430+401301479+404553443+407870193+411323260+415108021+419115834
2077+423115105+427148383+431405448+436007043+440775160+445403446+450158565
2064+455443129+461034293+466836777+472892232+478914783+484866704+490854144
2050+496874284+502867692+508843728+515002514+521241372+527463595+533906662
2037+540405195+546581884+552529962+558270562+563535262+568667733+574157896
2023+579681289+584674093+589033630+593234861+597759040+602347146+606507502
2010+610214071+613659126+616931078+619989216+622811836+625490824+627941937
1996+629776215+630800894+631698904+633396375+635753682+638005001+639604742
1983+640427338+640708390+640961198+641543495+642152359+642549862+642546143
1969+641780198+640891794+640788504+641128415+641283370+641019076+640241605
1956+639291562+638474974+637661207+636812614+635990303+634925077+633364739
1942+632724564+634378219+636810815+638638145+640175675+641878705+643944618
1929+646519213+649226690+651506539+654443321+658591579+663108972+669143500
1915+676698676+683515335+689432471+695928225+703670238+711771047+719340897
1902+726721990+734152295+740719171+746375692+752264870+757824356+762904140
1888+769212363+775909464+780928999+784475177+787408894+789759987+791218466
1875+791642905+790469648+786789974+782788782+782647112+784481717+783909884
1861+780534888+776387530+772647689+768666445+763783920+758410903+752347355
1848+744679651+735555676+728516374+726296488+724462537+720089634+715016553
1834+709810712+702651976+694989668+691014309+689137767+687035108+686014394
1821+685163308+683402440+681598164+679742509+676762113+673506062+672294832
1807+672504027+671661974+668672014+665061827+663963737+664929762+663993412
1794+660071231+658707417+663561043+668380294+669201092+668083382+667200537
1780+667578216+669076262+668477697+663756831+659381557+661962324+668539091
1767+673936223+675927622+674845433+674919538+676829924+678477611+680295293
1753+679779990+675874854+674590949+679042576+684786936+688332951+689706330
1740+692023252+695316827+694762243+694235781+702252961+712691619+721301314
1726+727887645+732459443+735091833+733452690+728609895+730918888+743569503
1713+756530274+764842239+767997985+768409427+770880936+773645024+773069104
1699+775992929+786163942+801761109+819196968+831062142+838448303+843553184
1686+845726637+853897504+873378144+891607538+903082771+909916556+917325933
1672+924329347+929531672+938554525+948485769+952988325+955676305+961591888
1659+967145488+966596218+957571895+953086832+966014740+974908919+977214479
1645+985914832+998105775+1004860509+1004825438+998247282+993189815+1001252120
1632+1011717919+1014490264+1012450796+1010849257+1010145727+1012243236
1620+1014871540+1012303158+1008989228+1011422970+1013318069+1011837599
1609+1010296390+1010598861+1011986709+1013596259+1015275460+1016696253
1597+1017381144+1017642413+1017810079+1017260074+1016068668+1015016153
1585+1013140265+1009797069+1006297897+1001438098+993094578+988110521+991219099
1572+992127327+990372836+994909400+1003575092+1010961498+1013204683+1005208840
1558+1000985210+1015676928+1028302038+1032030352+1029438591+1024313109
1547+1018100042+1010046076+1000830051+994365444+1004811378+1024188851
1535+1034339836+1040216833+1049828685+1055947823+1054621940+1051353381
1524+1047897290+1045008045+1045824387+1046388372+1047087487+1050269147
1512+1049674998+1039299858+1021477491+1016256935+1033950466+1048999917
1501+1052159260+1047700439+1044920246+1048581363+1051293541+1048538445
1489+1048478360+1057458457+1066628130+1069757962+1070384485+1070690143
1477+1066819423+1058579968+1051534045+1052892219+1060319581+1062722830
1466+1058153158+1055502537+1056468399+1051291497+1037051686+1030369300
1454+1037591064+1042422332+1038602541+1029214763+1021603793+1017984613
1443+1014080621+1007161981+995551209+981682210+975481651+973667565+967431772
1429+960548039+956590174+952618494+950673119+951808773+954629022+964090048
1416+978453299+989853241+996005814+998829006+999156001+997680273+999213715
1402+1004055365+1007576937+1010402255+1016492045+1027331681+1037362413
1391+1039495564+1035625661+1033081069+1035181929+1039546167+1043971716
1379+1047272893+1048885632+1049622597+1053273495+1060360537+1064805134
1368+1064421814+1062062791+1059890564+1060572021+1063801586+1065333231
1356+1063539827+1060445801+1058039854+1056036520+1054358464+1054017981
1344+1053145803+1048397347+1041895135+1038205488+1036083945+1032133192
1333+1027448500+1025697769+1027966296+1031414948+1033399480+1034331252
1321+1034853790+1035165579+1037247393+1041539283+1045329235+1046812975
1310+1047001978+1048055882+1051172226+1055599083+1058881621+1059769657
1298+1059791648+1060080303+1059723388+1058257878+1057038923+1057843003
1287+1062352509+1069184331+1073391448+1073741823+1073271277+1072990879
1275+1071039946+1066778058+1062052899+1057673211+1052688419+1045595900
1263+1036152941+1027451933+1022732170+1021787972+1021112564+1017591647
1252+1013056391+1010885553+1009972338+1008346928+1007722777+1008865788
1240+1009877510+1009961956+1009518715+1009128692+1008948190+1008782649
1229+1009046534+1009835001+1010730394+1011500876+1012145301+1012683208
1217+1012475811+1011197834+1010145400+1010704643+1012500254+1014182071
1205+1014877753+1014426336+1013648088+1013498243+1013281445+1012003304
1194+1010613984+1010418523+1011021011+1010782060+1008594218+1005587664
1182+1003579424+1002181194+1000527009+999390047+998773335+997726869+996485025
1169+994912097+992408216+989740264+987525446+985606313+983519104+980444943
1155+977363834+975694770+974178903+971553134+968469654+965677117+962784602
1142+959202700+955880759+953447916+950691922+946658603+942044296+937963481
1128+934269011+931115227+929412074+928192873+925643785+921331049+916327046
1115+912503085+909472006+905234724+900855690+897827390+895264077+893171964
1101+892158770+891713158+890626962+889040792+888798570+889271405+888933701
1088+889209031+891304496+893976371+895212575+895497633+897469086+900267672
1074+901055811+901196582+903247740+906805199+910038198+911757700+912730674
1061+913704792+913991484+914666892+917315224+919874695+920463204+920932278
1047+922458691+923804111+923885451+922785931+921054329+919805536+919958488
1034+920721694+922208458+923882672+922967740+920302731+918056603+916280531
1020+915363146+914849683+914226675+913964916+913572113+912598323+911301216
1007+909860639+908833058+908601791+909051327+909701475+910458468+913022925
993+917294623+919795644+919777986+920452986+923452019+926758428+928461336
980+929531100+931658611+935353163+940070555+944043543+945408011+945204702
966+946053662+947444780+947558820+947641877+949110411+950908719+952329267
953+953706815+955296909+956852260+957549659+957623560+958014564+958331422
939+957686752+956403869+955327156+954526591+953835242+953772786+954561661
926+954699898+953255316+951861092+951698575+951343377+949135916+946477611
912+945634700+945601020+944417298+942782814+942259786+941884395+939915968
899+937360830+936159450+936676511+937910917+938768379+938917244+938009506
885+935928428+933082592+930358969+929319289+930216890+931518739+931758426
872+930865811+929792205+928802719+928195244+928946760+931267361+933927138
858+936462820+941215037+948810802+955794514+960755026+967672522+979566880
845+992237279+1000443625+1005543683+1011860816+1020262459+1027431578+1032179380
831+1036211309+1040067560+1043774538+1045459052+1044482891+1045705443
820+1051041428+1054342523+1051046251+1045981263+1046253977+1050700535
808+1051635414+1045283456+1035746568+1030771912+1031892279+1032103681
797+1028533305+1024170621+1020151772+1016867353+1013692886+1008846413
785+1002573506+996448319+991531542+987348542+982072152+975583265+968304113
772+959142042+950165460+945651132+945198080+943891327+939744786+936850472
758+936355157+932850017+926585612+925014238+928697181+930114704+926683628
745+923534994+923277568+923299231+922651454+922257343+920687277+917953763
731+916089239+914736215+912848065+909387069+903389737+896353461+891007911
718+889200120+890481858+893483508+897559009+901331631+904925305+909679566
704+914046011+916795629+918645439+919348315+919155470+919412815+920682945
691+922065970+922575346+922568806+922854518+923683450+923322039+921818762
677+924225526+930246810+931296954+924342999+916180307+917209605+924622416
664+929273673+930759293+930993421+932546565+936975221+942419523+943453808
650+938983460+933964906+930126149+927661915+927817238+929506739+930873005
637+931398159+933558778+938043268+939078289+935639855+935223754+939366289
623+940106442+935029192+931614548+934393841+938807537+938114716+936040751
609+940554671+949559375+955490654+953791179+947956854+947293382
##END=
