##TITLE=Sample description
##JCAMP-DX=4.24
##DATA TYPE=INFRARED SPECTRUM
##DATE=13/9/2023
##SAMPLING PROCEDURE=Instrument type and / or accessory
##ORIGIN=Default
##XUNITS=1/CM
##YUNITS=ABSORBANCE
##RESOLUTION=4
##FIRSTX=4397.6552
##LASTX=599.8556
##DELTAX=-1.9287962
##MAXY=1.6812508
##MINY=0.28627717
##XFACTOR=1
##YFACTOR=1.5657868e-009
##NPOINTS=1970
##FIRSTY=0.32244897
##XYDATA=(X++(Y..Y))
4398+205934142+204548774+202982207+202818595+204398752+206156815+206313041
4384+204753174+203273990+203257031+204034890+204645578+205020270+204948686
4371+204110605+203135045+202990734+203350999+203334116+203023414+202581362
4357+201951336+201341676+200893514+201113541+202442304+203874818+204074479
4344+203354672+203047606+203689014+204320772+203818175+202661703+201819035
4330+201210707+200857541+201282615+201565871+200437854+199650097+201048161
4317+202744403+202635436+201159469+199489759+198729621+199003303+198693305
4303+197780137+198485954+200363299+200986740+200461474+200287032+200899224
4290+201457266+201033258+200391393+200569774+200883065+200366059+199028826
4276+197775569+197720696+198666372+199593568+200222433+200681310+200905505
4263+200746424+200425577+200456411+200478585+199550210+197725492+196571608
4249+197693896+199819742+200068490+198621910+197826255+198127098+198335286
4236+198498079+199232675+199593644+199367660+199702706+200204979+200143520
4222+199921267+199486086+198741060+198619017+199545033+200543337+201247974
4209+201762829+201015728+199139791+197969177+197893101+198366158+199364957
4195+200085544+199747358+199268324+199230981+199121538+198909125+198766108
4182+198509898+197880120+197359422+197554895+197801112+197683523+197966912
4168+198854937+199338577+198862969+197904140+196958749+196731775+197428856
4155+198083378+197854577+196882539+196131060+196059133+196115072+196153234
4141+196724789+197326684+196757451+195843503+195870549+196190007+195945503
4128+195453032+195812174+197152357+198340767+198727013+198181400+197082085
4114+196163379+195793292+195976661+196275924+196634381+197378626+197956939
4101+197691574+197031114+196758383+196565346+196075825+196039909+196444712
4087+196284241+195725210+195734117+196416410+197157229+197551526+197585101
4074+197478685+197367777+197263645+197402875+197535196+197026336+196427297
4060+196775818+197651566+197945252+197660588+197530932+197390047+196362469
4047+195116615+195160449+196133611+196813580+196877685+196682231+196451774
4033+196063625+195801648+195911243+196253350+196755015+197019884+196774067
4020+196625302+197109551+197693820+197595798+197004181+196826104+197445510
4006+198197502+198155610+197406929+196767938+196206223+195779074+196163588
3993+196843311+197387001+198373752+199426492+199786472+199369087+198259190
3979+197202510+197162406+197783011+198024755+197687520+197320898+197538869
3966+198375294+199294077+200028615+200322473+200124963+199941119+199498800
3952+198242650+196941504+196835031+197019941+196312734+196681355+198793992
3939+200073782+199324206+197267052+195916953+197058122+198812835+198442444
3925+197333974+197707696+197706230+196402268+196899612+200396932+203268108
3912+203419710+202286001+199624878+194185956+189121764+188465567+191679784
3898+196563919+199430775+197735427+195025007+196361517+197807564+196395073
3885+195767198+195554194+195819387+199026162+199987636+196742319+193024059
3871+190384919+191350048+193561506+192950419+194278268+199367127+202126044
3858+199102714+189977413+182832790+189716560+199295466+203267880+201665016
3844+197169810+192557663+188839194+188458316+192424582+196292540+198596310
3831+200946408+202521731+202451155+200137982+194250746+191056533+194061077
3817+196594810+200487550+206119033+207919426+204303813+199636888+198063031
3804+195712400+194216600+198244058+202415429+205705513+209593932+212062208
3790+212382408+211038018+209630229+210029988+210013201+208680155+210278774
3777+214224065+215634882+213192376+210078942+210892127+214414095+217640189
3763+218989508+217185841+216296009+219892436+222945439+222142322+226521462
3750+247478069+272961001+298601339+328873315+348700572+352688384+345914151
3736+335729049+333012253+339680507+348049209+351725482+352103258+354616625
3723+360014206+366173772+371803257+376220197+379890721+386508080+402739462
3709+428338003+458340580+489456385+518273558+540130313+551015847+551312007
3696+544444206+531810869+513482915+495813632+488751652+488828128+485291828
3682+474893322+461370400+447103346+433630254+428403897+425873134+418274334
3669+414400951+415815669+414952541+410941546+405238592+397621406+389333063
3655+383456486+375949960+362408309+352117647+355626044+363433565+366619117
3642+365739201+364209520+362620494+360186535+356725036+350407492+340759361
3628+337508219+341146577+340651974+332986557+321627586+314058060+310562358
3615+306179640+302790487+302350662+303649543+306986563+310094021+309570658
3601+306844364+304631002+302001893+298524520+295529322+291529157+284562934
3588+278976141+278842222+279534240+278231496+276031553+273422390+270415486
3574+268017443+265830595+261191097+254829414+252601968+254524365+255608568
3561+255324627+254655601+253216368+251055729+249118086+247617660+245359456
3547+242796963+242087625+242954751+243263987+242376743+241334928+240625095
3534+239589580+237704812+235236764+233281400+232475810+232476800+232823170
3520+232995975+232643399+232064459+231361687+230042345+228673936+228319457
3507+227836749+226035766+224706128+225201968+226089289+226250978+225936317
3493+225344814+224164817+222696900+221997173+222189202+222426834+222422933
3480+222392289+222197691+221661081+220871326+220348268+220511841+220701852
3466+220339684+219657411+218975537+218673534+218755416+218803837+218736534
3453+218681965+218130224+216763527+215855708+216226727+216921238+217430897
3439+217843295+217777325+217286167+216979100+216848721+216676792+216666571
3426+216586592+216037610+215764404+216545480+217514244+217677494+217416698
3412+217417916+217630539+217686611+217642587+217879991+218331921+218291837
3399+217841772+218004146+218678635+219104793+219299791+219455675+219622408
3385+219796659+220034844+220574461+221366062+221788338+221478112+221204506
3372+221764699+222739573+223383456+223626475+223746975+223852630+223864830
3358+223862984+224070125+224353476+224415373+224279322+224056783+223851107
3345+223782111+223808111+224013520+224305302+224221251+223816067+223333417
3331+222951758+222861958+222569243+221698748+220694505+220131305+219819214
3318+218968324+217735660+216755895+216000286+215402255+214767832+213647333
3304+212100922+210431575+209095903+208906025+209518236+209628573+209128983
3291+208655792+208291758+207975898+207930256+208274647+208727358+208916950
3277+208876066+208808079+209006864+209894146+210795780+210462066+209367833
3264+209070664+209612756+209823761+209764586+210279574+211060211+211525674
3250+211998599+212517546+212555670+212320968+212332369+212695051+213297422
3237+213929542+214609455+215065972+214904435+214744231+215197798+215965873
3223+216966614+218152531+218725761+218553680+218765636+219753891+220617325
3210+220986878+221307268+221905870+223152865+224985349+226599823+227694227
3196+228639733+229804770+231319566+232663613+233337435+233622442+233840337
3183+234080748+234578149+235520153+236476222+237054439+237651690+238382079
3169+239182207+240246748+241229616+241989603+242941218+243835048+244261949
3156+244814604+245953394+247004155+247421140+247692861+248259392+248707991
3142+248868081+249239005+249822628+249949067+249590610+249412305+249400618
3129+249427056+249624642+249574394+249218468+248951162+248642288+248032018
3115+247233889+246573371+246186592+245817210+245197005+244299369+243194230
3102+242359613+242035131+241385234+240238602+239774185+240462416+241430724
3088+241867865+241930047+242104032+242458834+242827874+243013050+243000659
3075+243173141+243687824+244135567+244261016+244260731+244267488+244179648
3061+244048089+244097538+244322513+244465512+244466977+244402187+244130713
3047+243751510+243544559+243153193+242068687+240704636+239783055+238951122
3034+237375476+235467944+234324833+233704590+232782458+231859183+231452686
3020+231481008+231454837+230800448+229612703+228517386+227890633+227375474
3007+226565448+225813836+225307280+224955409+225011215+225479438+226390569
2993+228341497+231495759+234926595+237428617+238849769+239911264+240877212
2980+241755929+242507674+242668259+242021864+240949805+239899559+238760559
2966+237316549+236093364+235549084+235243083+234609764+233956840+233766982
2953+233758874+233686756+233709291+233871552+234083565+234216514+234132690
2939+233667894+232780802+231807222+230976621+230198134+229685906+229582497
2926+229608573+229546048+229194538+228658442+228374996+228307428+228038618
2912+227659491+227768686+228418754+229101141+229574084+229883454+230057743
2899+230041584+230015946+230385994+231105630+231738816+232229650+232735997
2885+233047403+233110975+233286178+233606682+233892964+234243313+234577883
2872+234648668+234588218+234500264+234269960+233904308+233376644+232769229
2858+232431728+232425143+232393205+232145789+231637691+230870034+230358301
2845+230560245+231142231+231693383+232204678+232637156+232910134+233245732
2831+233923532+234812889+235455763+235711648+235868903+236081563+236289675
2818+236316131+236162893+236205281+236570057+237087196+237667183+238180077
2804+238631322+239279582+240164371+240955382+241398024+241635181+241943447
2791+242281100+242514888+242642621+242537956+242260544+242129308+242159057
2777+242167813+242024244+241674847+241375869+241196365+240846435+240609392
2764+240860177+241251676+241427964+241383559+241242407+241076416+240940574
2750+241014557+241236963+241297318+241122325+240915659+240815391+240721956
2737+240535067+240331142+240200173+240111515+240002815+239906525+239874511
2723+239841868+239765506+239647918+239446582+239259883+239218942+239287139
2710+239341194+239264755+239115133+239034546+239093549+239240354+239200955
2696+238938084+238813662+238758865+238376731+237885401+237787607+237961935
2683+237832736+237278272+236655098+236066888+235520629+235113065+234730798
2669+234343524+234038342+233686109+233281229+233001894+232763158+232473373
2656+232210350+231928693+231635559+231443150+231387249+231462012+231555200
2642+231557313+231576460+231693154+231743098+231681696+231757126+232019254
2629+232192421+232223255+232275940+232318460+232439551+232921307+233607215
2615+234082461+234309397+234508030+234867305+235357226+235712429+235987766
2602+236523120+237236132+237790862+238248540+238924837+239699175+240202571
2588+240480821+240764363+241122191+241503831+241842341+242147980+242450250
2575+242811867+243196399+243341701+243270211+243397145+243733809+243826026
2561+243524251+243115983+242857928+242811048+242956064+243161682+243296934
2548+243339512+243324266+243397374+243547072+243625566+243705221+243826045
2534+243896983+243926180+244012763+244219657+244501066+244717172+244719665
2521+244603694+244654228+244952654+245292934+245489226+245616084+245762717
2507+245921875+246117939+246328791+246570992+246832511+246989804+247075473
2494+247242929+247588463+248119458+248725997+249273894+249750700+250205638
2480+250528597+250579245+250418051+250159558+249951408+249916025+249868099
2467+249693524+249662005+249814120+249926417+249932984+249845696+249807287
2453+249871296+249890330+249962961+250217991+250541102+250866099+251186184
2440+251453756+251675039+251840840+251888747+251836214+251753248+251763392
2426+251905534+251964842+251930125+252117700+252503089+252761069+252874051
2413+252948167+252971902+253066042+253357101+253698675+253910708+254103631
2399+254427923+254945062+256038666+258747374+265002678+277426895+298346634
2386+328483053+366335899+409195570+455021794+503273450+554240760+608069673
2372+663933110+719775115+772026421+816122962+846782877+859691133+858878253
2359+850697829+828872783+789231669+738655686+690588464+665175385+673485312
2345+707694814+734831942+735874366+726230651+716355794+709068648+707618908
2332+710707428+711706912+707307445+698878977+686818471+670533681+651311954
2318+629743289+608116001+594144117+590057560+585106884+567979560+539227214
2305+509043287+486813248+471896620+458510434+444398655+428832835+411142273
2291+393072526+376883284+362852778+350841454+341646890+335550058+331626465
2278+328692726+326142929+323909620+322055800+320534952+319127010+317809229
2264+316674074+315545124+314308940+313107758+312006102+310914343+309818816
2251+308817999+307945525+307087364+306264186+305611853+305043343+304500376
2237+304098523+303838697+303584410+303319274+303121326+303000864+303005717
2224+303030594+302910988+302847854+302981050+303156024+303364593+303657537
2210+303989499+304388611+304873793+305430217+305977257+306440645+306989361
2197+307726126+308528596+309299869+310086902+310986480+311836095+312467396
2183+313134005+314055319+315019515+315875126+316746725+317601916+318378576
2170+319274119+320343970+321378172+322349372+323356965+324328546+325288213
2156+326425614+327678395+328796648+329826624+331029386+332358263+333538223
2143+334648101+335945992+337303115+338565489+339900419+341383696+342864574
2129+344295966+345795230+347312349+348765781+350371062+352216431+354057117
2116+355912688+358059395+360330313+362418054+364484401+366783566+369378167
2102+372262458+375401226+378737104+382330429+386396582+390938230+395786163
2089+400931741+406354790+411959531+417859177+424319928+431258343+438257437
2075+445245834+452428068+459642544+466664478+473644043+480744547+488059101
2062+495707273+503587768+511343061+518746120+525903953+532968103+540026200
2048+547019280+553825983+560521646+567050880+573477447+580152516+586855753
2035+593152513+599154635+605098438+611075131+616906370+622378258+627674087
2021+632690085+637301547+642014115+646757098+651138750+655458505+659540875
2008+662764608+665435458+668346129+671601610+674533979+676859257+678965118
1994+680685970+682114849+684010885+685851800+687049385+688313053+689812661
1981+690975071+691725751+692210494+692461964+692821773+693258476+693017817
1967+692383394+692739472+693971241+694873502+695352993+695762440+696272308
1954+697164368+698212730+698934326+699148567+698744068+698172303+699274035
1940+702806034+706638609+709254186+711225366+713729178+717197301+721137757
1927+724756853+727725157+731294843+735926594+740507717+745841193+752375452
1913+758636924+764252704+769913937+776385538+783728947+791237566+798435940
1900+805016031+810430362+815085410+819901786+824119446+827890657+833314124
1886+839589528+844485921+848317049+851797277+854474370+856452859+858450457
1873+859217809+856393779+852257278+852701823+857045103+859751431+858226547
1859+854482059+851282384+849006745+846754555+843347568+838459550+832533753
1846+825236481+818869107+817187312+817008474+814394953+810065605+805087977
1832+797865698+789247505+784123624+781966069+779721416+777984804+776212029
1819+773607340+771021836+768407554+764704482+760623863+758214000+756967157
1805+754990191+751424084+747438861+745988436+746671965+745739555+742198877
1792+740187346+742564395+745385837+746035182+745173728+743741576+743201254
1778+743982844+743278378+738931138+734237642+735345236+740620775+745442937
1765+747134173+745543130+744970680+746934398+748992904+750611356+749740081
1751+745553788+743240235+745705218+749245896+751292677+752148497+753947006
1738+755995157+753869045+750948020+756037031+764265266+770556126+774228211
1724+775954088+776588510+773682103+766940836+765832709+774991376+785704466
1711+792506107+794046217+792315011+792044203+792440936+790260236+790843040
1697+796922248+806894404+818740670+825772615+827986510+827723011+824091505
1684+824629771+836044130+847565989+853775918+855836784+858025174+860707519
1670+863628621+872129187+882560963+887639392+890247126+895796975+901038482
1657+900221414+891864208+888053255+898851691+905806970+908038451+916281990
1643+926767212+931832013+930396053+923546905+919605687+927181684+935944608
1630+939178314+939561191+939400549+940042205+944668170+948592791+946190694
1616+944912103+952248888+959655640+961315585+960225958+960711844+961348018
1603+960987372+962935864+966507148+967958639+969154396+972638964+975758089
1589+977086091+979007175+982005019+984690563+986803960+986846062+983009148
1576+980205140+983545739+985989710+984872903+986394437+991278343+995319449
1562+993639176+981349736+974291676+988839017+1002941507+1011082265+1017661063
1549+1024131065+1026649037+1022066468+1012411105+1004779758+1014425224
1537+1032372243+1040043255+1041707692+1047050001+1051964209+1052499048
1526+1051769382+1048980677+1043538025+1042620460+1047888614+1056140528
1514+1062770639+1063074641+1056927447+1046768077+1046472602+1062125862
1503+1072673057+1072636589+1068156115+1067971567+1072634229+1073127043
1491+1066718557+1061324858+1063969213+1069974266+1073574329+1073741823
1479+1070874929+1064508926+1055871090+1048705911+1048120213+1052141143
1468+1052581045+1047839280+1043717777+1041536391+1034705135+1021479934
1456+1015082792+1019710660+1021980970+1018074088+1011258439+1005429103
1445+1001179391+995966967+987634809+975539890+962616331+956232132+953035121
1431+947243015+943387219+942690975+941086380+940620365+941658830+941720422
1418+945637353+954516990+962663305+968250688+971774541+972802195+972865081
1404+976170811+982004562+986780587+990513351+993629812+998411014+1005970947
1391+1009846309+1007669873+1006332887+1008842638+1011002325+1012212928
1379+1014014482+1016144249+1018878594+1023474487+1028620903+1031855599
1368+1033452734+1033530847+1031175953+1028069313+1027532037+1030493489
1356+1033232250+1032154196+1029532909+1027460852+1025717693+1024320333
1344+1021870957+1016618715+1009498987+1004448347+1002740438+1001274254
1333+999359869+998081355+997239467+997705025+1000055961+1002688667+1003880313
1319+1003633183+1004245070+1006985278+1010542629+1014333483+1019003910
1308+1023346430+1025096898+1025600827+1027248743+1028762359+1029196855
1296+1029853737+1030268438+1030383704+1032566080+1036382286+1039937734
1285+1043778227+1047977082+1051376151+1052563762+1051080752+1048794683
1273+1047339994+1045966541+1043089064+1038416505+1032941800+1027424460
1261+1022151129+1018822788+1018311930+1017655048+1014962044+1011556960
1250+1008094090+1004059837+999773047+997284234+997533800+998493086+998275800
1236+996570099+994261265+993057209+993481122+994588565+995471031+995502094
1223+994644295+994247942+995337264+996714905+997147802+997757405+999492494
1209+1000505455+999687092+999080002+999641945+1000183561+1000567047+1000969642
1196+1000522737+999167403+998043668+997282939+995259988+992403601+991587066
1182+991923501+990643388+988423326+986395427+984741039+983520995+982228700
1169+980235898+977715108+976301684+976144849+975596000+974361491+972424038
1155+969512073+965175416+960063717+957335463+957068918+955995127+954032017
1142+952442953+950576990+948413343+946994057+945920723+943765985+940275326
1128+936118269+931701443+927389606+924696906+923983684+922567672+919482046
1115+915793211+911099791+905847093+901504193+897873829+894967802+893722253
1101+892946069+892216403+893194037+893675735+890932635+887809627+887297703
1088+888172328+889050608+890315190+891608779+893053951+895937975+900141169
1074+903947021+905715686+905719721+905936397+906788411+906680529+906576454
1061+908510862+911329715+913273487+913910803+914285534+915073747+915436448
1047+916673394+920773655+925839141+927755581+925797268+923481278+923535409
1034+924542278+923350099+920483586+918427060+916599620+914245107+912721974
1020+911567633+908538270+904045539+900845559+899894267+899581281+898957746
1007+898072614+896343007+893811101+891375429+890211419+890733317+891359060
993+891597054+893809959+899223757+906477633+913902048+919779424+923332741
980+925497757+927036193+928220682+927769209+924328190+920622530+919093611
966+917880724+915915787+914839940+914696580+913821422+912139474+910343326
953+908531875+907810659+908660465+908999260+907249781+904367052+902108238
939+900556403+898024802+893837215+889678787+887669160+886869907+883937614
926+878927402+875034376+872666920+870086746+867275353+864891300+862385965
912+858997707+855163380+851244774+846615459+842601000+841640801+842115952
899+840240167+836454719+833497530+831549267+830348104+830556634+831545688
885+832471323+833912155+836679999+840194259+842662821+843844950+845218708
872+847201765+849871777+854182549+860512541+868158581+876135499+884336555
858+894175858+906605537+920353778+933605854+945709071+957605661+970827741
845+984962589+997716978+1006783066+1012723786+1019174602+1026554022+1030816449
831+1031014930+1030484049+1029314862+1025995733+1023904338+1026826125
820+1033734124+1039585158+1040272190+1036804981+1032771565+1030746101
808+1030395201+1029815137+1027772848+1022966446+1016856937+1014403526
797+1016383994+1017975571+1016297506+1011610634+1004596199+998242834+995155381
783+991761260+983966226+974695566+967636898+961495641+953648303+944650583
770+937772885+934727305+932761302+928697128+924487919+922778030+923093528
756+924343873+925488469+925850637+924984159+923019145+920552182+917745586
743+915650536+914778804+914810095+916056406+915497964+909457205+903104297
729+902325524+903340692+901480363+898314415+897698950+899624145+899135975
716+896089862+896182364+900470143+904508584+907266988+910542568+913601395
702+917493050+924413460+930839761+932822209+933511067+936017011+939201383
689+942216966+944809170+946485484+945208491+941056154+938469204+938931184
675+940922083+943070959+943635567+940355115+935946130+937066211+938752194
662+938390634+940310805+944887968+947209973+945803020+943676299+943230612
648+943903025+942871641+940633079+940403383+940282483+937990247+936823344
635+939031833+940211602+938843021+939275537+936252417+923581470+912682537
621+914548271+924817730+934290144+938588811+937872239+935220575+934292352
608+937144400+941787496+945112944+944918269+940944847
##END=
