##TITLE=Sample description
##JCAMP-DX=4.24
##DATA TYPE=INFRARED SPECTRUM
##DATE=13/9/2023
##SAMPLING PROCEDURE=Instrument type and / or accessory
##ORIGIN=Default
##XUNITS=1/CM
##YUNITS=ABSORBANCE
##RESOLUTION=4
##FIRSTX=4397.6552
##LASTX=599.8556
##DELTAX=-1.9287962
##MAXY=1.8410547
##MINY=0.4729645
##XFACTOR=1
##YFACTOR=1.7146158e-009
##NPOINTS=1970
##FIRSTY=0.48707876
##XYDATA=(X++(Y..Y))
4398+284074578+282708144+282937369+284317274+284803587+283846535+281903927
4384+280313343+280263250+281483855+282879020+283258055+282799518+283025927
4371+284257795+284706199+283315535+282020764+281990434+281778677+281809998
4357+282846465+282989583+281985897+281665976+282777148+283818569+282565339
4344+280471061+280557777+282023198+282059090+280526925+279814499+280707865
4330+281295128+280368355+279644074+280489190+281071204+280391281+280055925
4317+280683583+281739778+282517158+282514534+282103552+281476746+281242463
4303+281880775+282143442+281824581+281777078+281492737+280997612+281089959
4290+280987513+279895826+279296952+280518060+282117231+282292104+281733294
4276+281380557+281063261+281220684+281695594+281210898+279632516+278303174
4263+278102628+278669972+279722482+280517695+280035607+278883450+277892348
4249+277611309+278736577+280304322+280603924+279622400+278909782+279604758
4236+280651410+280837477+280321182+279126910+278460544+279081232+279049337
4222+278056793+277462525+277047354+277055836+278397172+280069170+280715043
4209+280364757+279310683+277835181+276418897+275842845+276652224+278543870
4195+280310944+280494022+279864192+279993300+280116569+279610702+279240775
4182+278878809+278360619+278509142+278935802+278447769+277429952+277368840
4168+278505405+279186198+279010472+279059401+278818252+277623146+276674820
4155+276919167+277586245+278191325+279307728+280437150+280427799+279879713
4141+279798056+279405689+278266516+277571523+277835389+278544166+279419855
4128+279814950+279241575+278769776+278888925+278603054+277761623+277003397
4114+276467009+276290327+276875036+277614751+277572253+277460039+277950975
4101+278140449+277750447+277764161+278366650+278929875+279440626+280111268
4087+280141007+278877766+277657126+277574165+277961091+278276928+278369727
4074+278082465+277592503+277398388+277877557+278546530+278671137+278290051
4060+277996358+278159360+278507874+278902326+279691682+280033799+278503528
4047+276434488+276345444+278005292+279441564+279878323+279893618+279754637
4033+279422654+279136835+278833878+278781908+279499462+280118237+279582857
4020+279024430+279677777+280238968+279586716+279012663+279721161+280956348
4006+281499011+281407012+281317793+281115509+280265040+279382103+279385492
3993+279671746+279801793+280211454+280722813+280995161+281147804+281331890
3979+281653010+282265720+282869235+282817473+282043134+281413408+282045863
3966+283209822+283036165+282197307+282480727+283109445+282750033+282193622
3952+282133413+281987288+282195499+283139010+283780643+283973732+284191763
3939+283923204+282942167+281932710+281446207+281933649+283160181+283722276
3925+283545786+283911976+284458532+284329719+284359667+285445514+286423024
3912+286252408+285441221+284233861+282330361+280315272+279407306+280267317
3898+282810347+285196405+285048420+283154219+282916755+283319012+282555623
3885+282175128+281887675+281885225+283426393+283622559+282125800+281646405
3871+281863203+282206310+282322383+281704963+282724152+285787301+287223104
3858+285285536+280817385+278018259+281741881+286491367+288370568+287388922
3844+285316336+283638498+282370460+282413044+284063107+285355097+286394118
3831+288219750+289408895+288911719+287380701+285031891+284347187+285569860
3817+285680753+287413308+290746980+291717172+289837762+287532979+287033248
3804+286747394+287142038+289489996+290924826+291850626+293738344+295366176
3790+295997953+295654393+294778478+294543899+294597434+294166342+294981805
3777+297334091+298630948+297795879+296853775+298150076+300626813+302625145
3763+302711287+300700092+300551412+304158006+306935614+305595373+304136731
3750+310166805+319246296+329591045+346526034+364069578+376195775+382492444
3736+383935617+384440580+385730936+386800618+386806389+386928997+389618029
3723+394805942+401025995+408035646+415257385+420764906+424792128+432141829
3709+444299104+456682440+467671759+480101260+495293457+508989815+518446655
3696+523651463+523176883+517272406+511142702+509919786+510713870+508365651
3682+502568347+496048432+489029534+481065647+477844189+477060221+471454982
3669+466066314+464698506+462434274+457741034+452269353+446365989+439267970
3655+432473882+424857308+413830481+404843076+403540762+404215123+402761243
3642+399438661+395444116+391354981+387263761+382970883+377614162+370753329
3628+366862029+366288202+364082579+359871115+355512987+353339902+352344438
3615+349957771+347508358+346024721+344370261+343149152+342140304+339618897
3601+336586931+334621449+332433173+329998429+329338599+329287775+327276372
3588+324923842+324731187+324993750+324631662+323803337+322349074+320607047
3574+319094940+317340224+314469695+311091319+309541807+310023027+310715499
3561+310919626+310472439+309537218+308418555+307385895+306680595+305685270
3547+304348540+303831410+304160648+304284229+303868606+303264640+302678854
3534+302211539+301758373+300972979+299929925+298916558+298300911+298282556
3520+298239798+297755137+297172132+296640263+296182473+296054129+296012136
3507+295348968+294189007+293565643+293762747+294092888+294252275+294274280
3493+293980500+293129614+291971356+291244868+291137469+291298959+291630056
3480+291876559+291766639+291556151+291545931+291760555+291967046+292043941
3466+292091983+291926999+291480629+291133941+291112805+291149445+290905828
3453+290766273+291182991+291499766+291062277+290387551+290191959+290657675
3439+291438757+291995099+292115830+291962561+291849826+291756280+291485165
3426+291192047+291122886+291476979+292101786+292448161+292464048+292460641
3412+292501731+292659762+292999845+293406847+293920396+294401059+294349193
3399+294199297+294823913+295633744+295989401+296258603+296361918+296221824
3385+295938196+295553790+295824730+296855444+297703792+297975497+297982172
3372+298241362+298677843+298787380+298765410+299021089+299238634+298867995
3358+298202498+298019855+298334944+298509244+298340471+298323368+298694876
3345+298870671+298358235+297616677+297090822+296639463+296292288+295986064
3331+295604265+295053520+294070014+293098502+292548382+291986861+291267690
3318+290625710+289801139+288581230+287404948+286123804+284577751+283630711
3304+283298189+282674633+281640530+280906829+280899911+281444434+282452221
3291+283628208+284507183+284797295+284364134+284208954+285071503+285878692
3277+286065542+286105467+286505411+287706097+288939355+289566943+290359967
3264+291101942+290873412+290414249+290917839+292009317+292786924+293180959
3250+293261678+292982672+292487756+292077139+292272471+292969567+293156312
3237+292823737+293177552+294264372+295098746+295464832+295715471+296320203
3223+297488159+298489811+298824506+298970127+299168866+299368230+299839820
3210+300953408+302610336+304057750+304705344+304707430+304687059+305036424
3196+305656069+306735103+308372946+309632329+309861137+309869237+310568036
3183+311626177+312277943+312625048+313140648+313573965+313605877+313863816
3169+314844889+316072220+317184174+318179047+319020930+319697864+320081192
3156+320283997+320668473+321305638+322085990+322789205+323158489+323281792
3142+323473995+323763811+323930429+323964740+323880718+323477124+323030910
3129+323171768+323505142+323064803+322192538+321812721+321746707+321600043
3115+321430540+321178337+320953422+320567278+319609358+318619317+317949996
3102+317294407+316641633+315976136+315519702+315503676+315594025+315791963
3088+316422767+317156816+317275635+316963813+317123930+317764120+318071213
3075+317980205+318334993+319229471+319730402+319589474+319451848+319459357
3061+319241360+319166516+319805315+320494033+320358911+319679196+318923977
3047+318205988+317978988+318191701+317980900+317236040+316352442+315250604
3034+313910294+312805154+312323969+312212832+312084071+311829678+311361877
3020+310628036+309898020+309352420+308625741+307712316+307038616+306554267
3007+306156930+305798526+305295927+305100283+305770299+306794442+307710092
2993+309237008+311766028+314393391+316340414+317872579+319400469+320635552
2980+321088892+320809574+320261089+319642521+318704798+317774097+317443226
2966+317031114+315979856+315040846+314488119+313990770+313661150+313551369
2953+313475761+313456572+313500268+313688265+314110597+314148488+313448541
2939+312748630+312408164+312025670+311503952+311114192+310944829+310840541
2926+310729995+310601339+310316632+309764149+309103067+308712786+308686853
2912+308752798+308789473+308832996+308800701+308739971+309124794+310036723
2899+310652822+310498928+310186272+310549229+311491959+312297549+312921574
2885+313491890+313673525+313472910+313271321+313367962+313905323+314519163
2872+314523195+313941893+313504544+313636642+313937618+313702379+313130046
2858+313013278+313250464+313112525+312425093+311367612+310151127+309432374
2845+309725980+310740250+311839273+312465627+312497330+312488222+312967982
2831+313638624+314134131+314605061+314904507+314919177+315091078+315585543
2818+316211792+316836791+317164290+317161335+317446806+318210855+318874266
2804+319181186+319440655+319925455+320546004+321022496+321375928+321944437
2791+322693712+323085661+322905208+322688671+323033656+323556035+323558816
2777+323395362+323438120+323330355+323038175+322841036+322793481+322791499
2764+322903226+323186681+323301746+323231977+323261977+323367030+323629766
2750+324094544+324572774+324845626+324651928+324189619+323991646+324108344
2737+324354186+324661871+324781767+324621059+324468138+324451348+324578614
2723+324814687+324959265+325050761+325169823+325088061+324926901+325034596
2710+325257077+325438677+325573244+325495932+325383822+325562711+325937904
2696+326286817+326482010+326524907+326504953+326361522+326097395+325870465
2683+325753141+325757695+325663940+325273763+324835545+324485485+324026200
2669+323527390+323408432+323632269+323580751+323101165+322560432+322077856
2656+321680414+321533681+321493843+321246854+320972472+320915740+320905832
2642+320942715+321176042+321409022+321447574+321329485+321110723+320975914
2629+321067687+321099808+320848821+320630025+320712621+320967605+321207190
2615+321378083+321583704+321865769+322101077+322275656+322494800+322852264
2602+323371827+323891877+324184405+324317650+324600306+325056601+325560799
2588+326172309+326782359+327260103+327696166+328050015+328283586+328475163
2575+328710263+329017357+329191865+329233546+329398008+329558055+329419457
2561+329086082+328970462+329165272+329341449+329483316+329793364+330128302
2548+330496995+331031785+331334498+331149456+330830856+330756673+331074334
2534+331674581+332270379+332553139+332389093+332025719+331804281+331853331
2521+332237389+332895238+333483666+333754120+333786727+333822116+334044388
2507+334337889+334552480+334781566+335061509+335371071+335753078+336059685
2494+336283557+336799087+337544295+338091842+338411033+338632680+338848765
2480+339146924+339414910+339520032+339555838+339600369+339590322+339544088
2467+339556394+339635236+339679940+339615317+339490588+339424435+339525073
2453+339796535+340143848+340405333+340502599+340649715+341041560+341501679
2440+341759688+341780823+341741194+341866826+342100501+342176075+342135159
2426+342195890+342394906+342586205+342646310+342714966+342903693+343042917
2413+343033462+343027413+343191319+343564079+344015925+344299345+344409890
2399+344544561+344721572+344926881+345219513+345530291+345672992+345559770
2386+345249722+344566496+343163787+341208490+339110667+336774962+333956960
2372+330728654+327307763+324208148+321917218+320242247+318974522+318386859
2359+319057153+321501108+325471528+330554110+335434722+337735976+336624335
2345+333588302+331185818+330452499+331184080+333008669+335203202+337041592
2332+338280742+339544192+341181063+342809069+344500760+346608699+348938842
2318+351096040+353042403+354844048+356656366+358574641+360321153+361879772
2305+363463143+364934334+366135455+367159077+368158226+369231384+370341183
2291+371347006+372379354+373714032+375214598+376519416+377519642+378301455
2278+378912444+379472193+380190285+381092516+381973820+382674322+383343678
2264+384227832+385240260+386109223+386883458+387738898+388576226+389251040
2251+389819305+390505242+391314970+392005878+392533923+392934354+393258412
2237+393624011+393990792+394394109+395051471+395790561+396195998+396396057
2224+396805840+397444152+398076277+398604982+398969365+399215763+399675777
2210+400398354+401029958+401390933+401588177+401833427+402313222+402988661
2197+403622107+404194092+404784710+405340009+405950129+406712718+407561379
2183+408454606+409429873+410438443+411370500+412242869+413003129+413651453
2170+414514263+415619473+416541449+417277410+418195875+419326774+420490351
2156+421686430+422982731+424190873+425188701+426204432+427390882+428764008
2143+430183334+431384106+432423302+433627169+435062659+436484453+437838390
2129+439166706+440462972+441932391+443673827+445557165+447413805+449102611
2116+450666967+452229410+453855365+455614392+457565378+459654719+461802497
2102+464098085+466620535+469075372+471244250+473618541+476575108+479655846
2089+482434705+485091374+487845656+490802848+494168397+497841874+501545386
2075+505227484+508856222+512606385+516786146+521290068+525953482+530987640
2062+536279703+541456179+546651497+551897776+557135435+562715784+568638720
2048+574550531+580409990+586380620+592541123+598840052+605212677+611564932
2035+617811995+624199221+630831593+637295297+643366321+649036532+654660508
2021+660719574+666677829+672251260+678079154+683931313+689177558+693812744
2008+698091196+702486868+706907708+710828730+714724584+718939698+722626281
1994+725590564+728800133+732190538+734698943+736541783+738698599+741526473
1981+744367141+746280340+747738426+749685206+751909183+753420178+753718859
1967+754095756+755852245+757841296+758742762+759091292+759464435+759747195
1954+760202030+760889288+761382640+761849920+762177871+761769270+761940372
1940+763952714+766327979+768036913+769478799+770854358+772150172+773647888
1927+775580067+777650672+779775297+781729447+783322481+786142222+791118500
1913+796312601+800106669+803400503+807529823+811915831+816002810+820003091
1900+824090904+829120022+835172691+840752450+844932593+848374655+852723466
1886+858081369+862966013+867348822+871931170+876366957+879767513+881604164
1873+882563267+883790459+886088133+890023755+894565639+897454835+897598405
1859+896446439+895969287+896271166+896329150+895377695+893696850+891698691
1846+888545924+885434038+885349843+886243453+885210862+882738262+880024409
1832+876452543+871625953+868064725+866706199+865529621+863944026+861828856
1819+858594327+854757848+851607654+849493804+847818382+846237445+844715326
1805+842977540+840591846+837715999+835822476+835909521+836101550+834131897
1792+831740294+832075475+833387697+833563735+832842966+831607361+830592291
1778+830611688+830358686+828346274+825508874+825161317+827901590+831332319
1765+833085331+832636406+832346207+832898725+833289666+834788286+836276685
1751+835608198+835035379+836464125+838402006+840442784+841803951+841877023
1738+842310861+842503655+841833986+843601391+847786470+852287751+855302301
1724+856278298+856370836+855660287+854285006+855188627+859549675+865071588
1711+869816416+871471607+870489213+871254827+873549511+873384389+872949716
1697+875752979+881887202+890153073+895953991+898626755+899999533+899486575
1684+900594253+908011150+915160512+918298818+918980931+920728382+923125547
1670+925118074+931106433+938808801+942392138+944537274+949241638+953879119
1657+955583186+953385906+951895560+957430753+961709205+963995616+970206734
1643+976916001+979480236+978800695+976224641+975422110+979512843+983663925
1630+986958176+991201587+993794049+993353606+994310761+996226533+995521476
1616+996334367+1002265575+1007250475+1008028672+1006986556+1007840119
1605+1010755387+1013898838+1016578137+1018072167+1017750265+1017524447
1593+1019392524+1022027465+1024330146+1026686569+1028293022+1029635279
1582+1031502799+1030703953+1025028458+1021047297+1024958863+1029588349
1570+1031042611+1032031331+1032846864+1033447215+1033559638+1027511348
1558+1019086334+1024399045+1033641747+1040213563+1046172095+1052426528
1547+1055785159+1054129274+1048288517+1041367197+1043624477+1052894712
1535+1057329248+1057763921+1059511371+1060359650+1059505948+1060216497
1524+1060156497+1057683132+1056860717+1058073656+1061766565+1067138651
1512+1069776930+1067157493+1057529481+1050853725+1060239302+1070332230
1501+1073154959+1071442550+1070020061+1071897871+1073051853+1069350323
1489+1065011106+1064679817+1065300470+1066644465+1070603657+1073741823
1477+1070480180+1061727214+1054125867+1052840482+1054639937+1054106608
1466+1051166798+1048159269+1044149672+1035041571+1020322912+1013207895
1454+1017442824+1019144735+1015652337+1009857467+1004357107+1000348692
1443+995079712+987615747+979407095+970729009+963924422+958193168+951311478
1429+945783377+942344444+939489663+939349152+940944968+941910188+948121376
1416+958979987+967387828+972439194+975385053+977104902+978803128+981686693
1402+985735920+990098984+993474232+994836443+997748026+1004040836+1008661840
1389+1008617065+1006403586+1005911764+1007994466+1012588493+1018868998
1377+1022935536+1023379317+1025194763+1029881329+1032453906+1031667992
1366+1030009047+1028374992+1027903749+1029162993+1030123972+1030048607
1354+1029764804+1028528713+1025867838+1023036487+1020174823+1016309838
1342+1011550062+1006714712+1002259040+999414062+998562794+997797597+997205241
1329+998225526+999329380+999240805+999255266+1001209277+1006703380+1013087477
1315+1016351484+1018809971+1021230705+1021160693+1020305600+1020470306
1304+1022135160+1025968372+1030441008+1033092010+1033823487+1034821037
1292+1037086382+1039505378+1041839205+1045146735+1050027694+1056543055
1281+1062405643+1065021326+1066316862+1067184469+1066534128+1066657188
1269+1067794276+1067295570+1065506196+1062644601+1058104247+1054291476
1258+1052894433+1052950471+1052757677+1051247586+1049254572+1046626861
1246+1043357570+1042040272+1042031512+1039999355+1036944550+1035450241
1234+1034620734+1033086935+1031824493+1031187641+1029753263+1027969729
1223+1027520456+1027217325+1026039913+1025765705+1026662791+1026236531
1211+1023691903+1022306888+1023076047+1022356738+1020766414+1022211708
1200+1025124612+1025965799+1024493461+1021456106+1018770272+1018592843
1188+1019828865+1020509379+1020155217+1018469852+1016468495+1016363582
1177+1017652860+1017486416+1014877546+1011172192+1007709064+1004916578
1165+1003540810+1003262291+1001745456+999536149+998730350+997645545+994875863
1151+992709731+991728937+989848693+987109046+984434892+981936776+979603852
1138+977631209+976762628+975226674+971670313+968659447+967424816+966706619
1124+964434043+960822965+958887865+957678333+954221392+949486993+945579598
1111+943823804+944982792+946252882+943507673+937972828+933369831+931008750
1097+930244597+929447002+927443976+924321800+922001322+922016965+923273636
1084+924896288+925837940+923796258+920253176+919711643+921839050+922551824
1070+921736847+922812822+927370905+932040854+933394026+934304461+935336565
1057+933330202+931499391+933131777+936214601+938997771+940755720+942232856
1043+943777918+943745658+943004796+942031371+939564820+936526213+933654051
1030+932725887+934856562+936161205+935331698+935055126+935512464+935640599
1016+935376055+935951656+936936761+935047270+931048101+929380466+930619617
1003+932582387+934024482+933677551+931352970+929256155+929823134+933411060
989+937558665+940458360+943184380+946297656+947877689+947343387+949085623
976+954430177+957914649+958367885+958790113+959239664+958842813+956971051
962+953897891+951371617+950366767+950332839+950620535+950873746+951333170
949+952691556+954025957+954088877+953741042+954534187+955613986+953963940
935+950123706+947491337+946477031+945774339+945354683+945084577+943884570
922+942140317+940613540+938223953+934981847+931830053+928313738+924874596
908+923548609+924887528+926652777+926213655+923304297+919961239+918906400
895+920145273+920138042+918178469+917186273+917196771+917068636+918332329
881+921557958+924490886+925243568+924629728+924899139+926328650+928249914
868+931533388+935592279+938206920+940436737+944679453+950241343+956527618
854+963724954+970395287+976948053+984516375+991578345+997650551+1004241139
841+1011388068+1017260598+1020459182+1022912454+1028201248+1033728028
829+1034492182+1032446328+1030598135+1029779127+1028822249+1024286136
818+1020006641+1023674869+1032106836+1036612566+1037595655+1039370777
806+1040885943+1038140317+1031075636+1024842339+1023040520+1024307202
795+1026760196+1031404630+1033062671+1024455430+1012296209+1004919915
783+1002180268+1000558102+997705963+995917631+995617699+992707784+986591151
770+980308909+974945166+970448335+966947454+964563360+963326226+964307646
756+972353469+981978282+974925490+957143683+949550122+951795166+952078412
743+947584710+942701387+940945941+942643681+945431579+946825910+945929172
729+942484329+935573855+926320516+919623276+918708948+921656963+923902423
716+923607636+922809137+924289541+929713979+936535321+940315902+942365927
702+945614917+948566686+949763565+950121064+951361258+953524748+953708921
689+952109351+951500795+952117277+953666232+953061918+946841344+941458134
675+944676603+952182492+954816182+951712152+951810183+955967661+955203369
662+950740257+949069632+949746740+945672275+939010146+938175077+943599933
648+953513068+963938049+962227308+941004481+921349104+928439510+951293401
635+962949537+957703640+947643667+949421709+955458457+947620932+935236101
621+926016968+922461788+934212409+954159376+956608337+937903859+919033979
608+912869652+914533602+914086902+918966470+935125416
##END=
