##TITLE=Sample description
##JCAMP-DX=4.24
##DATA TYPE=INFRARED SPECTRUM
##DATE=13/9/2023
##SAMPLING PROCEDURE=Instrument type and / or accessory
##ORIGIN=Default
##XUNITS=1/CM
##YUNITS=ABSORBANCE
##RESOLUTION=4
##FIRSTX=4397.6552
##LASTX=599.8556
##DELTAX=-1.9287962
##MAXY=1.7215035
##MINY=0.33018959
##XFACTOR=1
##YFACTOR=1.6032751e-009
##NPOINTS=1970
##FIRSTY=0.35525802
##XYDATA=(X++(Y..Y))
4398+221582699+221163512+220448472+219853346+220277942+221857287+222714120
4384+221565263+220146281+220191041+221339953+222431873+223089605+223701127
4371+224265359+224165911+223097859+222327221+222365736+221684341+220894148
4357+221858793+223683970+224284394+223200504+222158847+222577811+223435759
4344+223106967+221766316+221078508+221423601+221724678+221441967+220489943
4330+219462878+219395253+220461689+221346311+220552251+219370772+219749307
4317+220678894+220923183+220686367+219829293+219007499+219338354+219750255
4303+219303613+219002871+219432449+219962701+219967070+219998280+220595190
4290+220835446+219850948+218400383+218031552+219097895+220616195+221492062
4276+221242048+220365289+219790499+219446706+218289913+216604056+216015287
4263+217005826+218473362+219347054+219646048+219712000+219650361+219286437
4249+218670268+218370456+217975936+217330249+217485685+218129736+218199183
4236+217871785+217923293+218252029+218374676+218690400+219082095+219130257
4222+219126261+218941176+218329859+217542696+217073562+217022109+217689637
4209+219268016+219803083+218647182+217891656+217877417+217693671+217317590
4195+217091797+217222604+217507285+217677778+217548365+217287161+217449419
4182+217883719+217863346+217347332+216976753+217250747+217751481+217593721
4168+217262476+217557585+217747150+217654189+218019191+218455015+218406220
4155+217996997+217424437+217150202+217256788+216951027+216197992+216156559
4141+216621306+216430663+216337368+217068320+217628704+217665305+217451761
4128+216461576+215318910+216015324+217836486+218269335+217122914+215626176
4114+214903663+215110738+215322070+215373541+215483584+215640656+215977069
4101+216087540+215886228+216106742+216873960+217652739+217696998+216601825
4087+215357536+215181355+215773842+216291120+216575932+216459066+215859646
4074+215309299+214998018+215192192+216351402+217257866+216807153+216564872
4060+217574464+218288128+217816726+217058858+216505909+216003335+216021904
4047+216680993+216800182+216422986+216870056+217612179+217335138+216309950
4033+215535911+215418766+215616584+215812655+216322721+217118676+217597346
4020+217683354+217422336+217143491+217701627+218429363+218203644+218122543
4006+218863290+218925078+218171244+217851282+217532918+216686849+216116984
3993+216165388+216591007+217386516+218410254+219076406+218917550+218193160
3979+217609373+217474291+217547678+217802302+218370865+218939391+219360010
3966+219684284+219582253+219378171+219596733+219797841+219814236+219825631
3952+219643055+219360567+219448398+219238088+218460944+219260525+221406593
3939+222028914+220471169+217547994+215641344+217137394+219453621+219231917
3925+218070160+218324357+218438954+217519646+217817098+220306159+222485761
3912+222692743+221597217+218874202+214092335+210214181+210187061+213222788
3898+217544350+220346738+219316401+216966232+217709657+218515836+217170203
3885+216847099+216386646+215792245+218151671+219300731+217388301+215315917
3871+213930356+215119735+216888068+216111631+216948945+220601585+222038152
3858+218850911+211093022+205946934+212748282+220893163+223905841+222390347
3844+218552734+214495016+211230762+211078449+214753618+218305657+220382744
3831+222132321+223329321+223530281+221467079+216002721+213146539+215569853
3817+217643241+221168736+225809275+227126337+224368283+220732206+219301568
3804+217686180+217998930+222519536+225300882+226534631+228550674+229999900
3790+230637947+230354752+229457397+229701184+229754737+228690254+230008804
3777+233337131+234518369+232640438+230618689+231711724+234548612+237337523
3763+238640830+236789946+235583391+238313730+240491306+239368696+241519300
3750+255151570+271930131+290473587+316368328+335610931+340465367+334064785
3736+323350727+319427422+323313848+328033332+330169102+331667848+335880760
3723+343082688+352231863+362573372+372272466+378092941+380790564+389175830
3709+406642905+427131861+447220793+467086108+485761058+498223057+502984588
3696+502126585+494656463+480892718+468891971+466332645+467920132+466338222
3682+461247156+454360450+443859787+430788088+425945660+425625679+420681685
3669+417462545+417914169+415821784+410851022+405465702+399552805+392057181
3655+384875551+376694015+364373696+354685569+355488737+359459183+360127993
3642+357094849+352169294+346928034+341861914+336665786+330124676+322153969
3628+319376527+321736585+321508988+316633064+309489857+305540454+304682841
3615+302483944+299439052+296817474+294539317+294127305+294530878+292888983
3601+289720496+286689583+283484794+280816075+279991643+278495239+273760048
3588+270051792+271630839+274109324+274030714+272051328+269693259+267709579
3574+266417201+264994817+261246001+255699036+253521999+255486291+257136142
3561+257353125+256921929+255508969+253296931+251612171+250703979+249125135
3547+247027100+246684553+248141047+248946538+247961074+246139243+244799261
3534+244053680+242962820+241308601+240006204+239341167+238875936+238827681
3520+239446340+240122159+240141286+239154316+237447511+236277501+236256310
3507+235991537+234801953+234353118+235021185+235103401+234552311+234553501
3493+234809556+234120224+232474091+231164240+230848702+230891474+231013377
3480+231243873+231294917+231314881+231299006+231149407+231131525+231012819
3466+230477473+229839519+229614339+229763957+229897552+229906084+229782248
3453+229435314+228653691+227847958+227845950+228419235+229181731+229944897
3439+229958243+229421986+229249523+229360180+229462565+229629842+229671498
3426+229251902+228566474+228390534+228977649+229676350+229932108+229975252
3412+230319304+230696779+230573538+230372634+230814276+231618076+231903055
3399+231655197+231676611+232174650+232702375+233051614+233243260+233344474
3385+233629676+234194466+234598949+234724830+235049755+235549467+235938987
3372+236331612+236539170+236382581+236350535+236662764+237018156+237399311
3358+237837235+238035090+237967986+237934006+237955476+237967781+237901086
3345+237605047+237322950+237270809+237318544+237509113+237541419+236798013
3331+235644714+234958970+234831174+234731875+234072656+233011890+232327856
3318+231918074+231175709+230064829+228889522+228095648+227743751+227130687
3304+225632462+223482007+221694899+221244874+221784384+222126782+222066184
3291+222202920+222690791+223114737+223331980+223660864+224046350+224211341
3277+224173644+223971067+223919968+224590247+225544706+225827677+225725125
3264+225972499+226534018+227091800+227454906+227658616+227961644+228581344
3250+229153830+229062357+228662520+228818458+229677893+230600881+230678321
3237+230154927+230350310+231180393+231537756+231551195+231824705+232300568
3223+232869763+233488218+234069106+234777695+235653618+236266887+236526846
3210+237101227+238313730+239634009+240604286+241292150+242161139+243588989
3196+245096490+245949195+246391320+247224843+248512443+249614865+250208300
3183+250469579+250815621+251691785+252989088+253981486+254291001+254351042
3169+254792758+255887113+257232727+258262599+259110082+259910089+260446458
3156+260840792+261155866+261435119+262151126+263306209+264353554+265179771
3142+265912024+266262341+265852002+265090194+264719783+264841630+265213863
3129+265499715+265483394+265274386+264889551+264329965+263745843+263235555
3115+262789786+262547877+262505142+262172056+261596113+261022512+260012381
3102+258789227+258000428+257319238+256670094+256756158+257455379+257949552
3088+257956151+257810009+258018775+258613716+259113892+259298791+259464154
3075+259832316+260295631+260686638+260841666+261044911+261543973+261634591
3061+261085230+260708796+260812649+261029966+261150363+261081456+260773855
3047+260397626+259953382+259213285+258224270+257487444+257199213+256550700
3034+255075153+253562113+252674740+252135509+251424279+250414018+249438796
3020+248898915+248608694+248158538+247479932+246576554+245645610+244971613
3007+244544209+244160526+243757994+243655925+244105244+244829783+245666336
2993+247424297+250530660+253701693+255903991+257556946+259038814+260024984
2980+260392719+260520365+260547672+260225646+259374688+258133020+256673217
2966+255153150+254013978+253398869+252904009+252391601+252191887+252325240
2953+252405617+252259623+252026711+252091621+252490436+252641671+252292395
2939+251682862+250990128+250345222+249867110+249513020+249244956+249051655
2926+248880902+248776287+248592039+248029665+247148891+246421341+246220121
2912+246308379+246449744+246819486+247351876+247829691+248236498+248503707
2899+248586053+248681300+248977934+249472943+250035428+250520901+251020855
2885+251589400+251984775+252205698+252368644+252416993+252468204+252507611
2872+252309310+251972042+251822368+251980872+252147219+251934735+251439354
2858+251107440+251115173+251195084+250858374+249861032+248843726+248618546
2845+249054574+249680259+250242577+250685818+251174265+251650649+252052790
2831+252628938+253277394+253678606+253950257+254268286+254413220+254377697
2818+254696767+255261390+255429559+255600034+256306616+257013626+257327342
2804+257568267+258044148+258785342+259651041+260359241+260606002+260555627
2791+260610965+260665912+260664109+260884661+261217914+261331675+261226799
2777+261171721+261178358+261053945+260905387+260739076+260361676+260065321
2764+260282954+260666712+260640744+260430583+260470214+260670318+260851741
2750+261108502+261413148+261386362+260992994+260735600+260725972+260552690
2737+260217523+260121086+260262618+260413333+260545441+260652529+260709577
2723+260746809+260696583+260531611+260421363+260386361+260385004+260535347
2710+260784135+260889252+260783744+260702067+260714205+260553378+260253603
2696+260141366+260216222+260244588+260214567+260128763+259797555+259313030
2683+259050153+258966784+258620482+258040895+257667287+257485493+257175512
2669+256699240+256264272+255940108+255636671+255391658+255170642+254841924
2656+254535457+254424912+254415562+254332918+254206703+254136494+254040931
2642+253969533+254124616+254270275+254114932+253991858+254116921+254192241
2629+254155733+254169879+254238935+254319330+254462721+254769411+255097459
2615+255257672+255473056+256032419+256693125+257040821+257183412+257306895
2602+257470845+257967620+258802016+259671823+260411604+260940091+261349984
2588+261766420+262180179+262527708+262725043+262934404+263399932+263937862
2575+264268754+264402181+264467482+264630335+264879940+265003721+264914459
2561+264700860+264522281+264402720+264236001+264233919+264685859+265195404
2548+265237804+265075714+265167875+265480420+265816480+266108299+266185999
2534+265969109+265860832+266121646+266455475+266619666+266685358+266800420
2521+266960670+267044895+267167150+267463152+267661100+267624890+267688927
2507+267982252+268291451+268580166+268928011+269202562+269329223+269522766
2494+269840776+270070696+270243308+270623218+271280485+272032944+272613887
2480+272874013+272888252+272802541+272644037+272439379+272317402+272218214
2467+271997124+271801444+271766089+271839160+272067592+272385361+272499587
2453+272402593+272413541+272666269+272964037+273168342+273392667+273659113
2440+273916506+274213531+274488527+274653332+274659448+274491855+274353018
2426+274404099+274591042+274820163+274987329+275070214+275111741+275134419
2413+275173250+275296825+275583217+275851764+275844421+275787782+276034265
2399+276498529+276906005+277129400+277198754+277250950+277363075+277347591
2386+276867081+275656846+273478322+270226857+266181798+261778428+257317342
2372+252839005+248123090+243347470+239222406+236197310+234401764+234153423
2359+235771246+239167979+244087288+250621967+257511869+261252823+259853116
2345+255401770+252289532+251845938+252934104+254696489+256331320+257517799
2332+258695356+260697476+263462705+266041511+268249702+270750474+273952587
2318+277505351+280766705+283432374+285610247+287765405+290200114+292732412
2305+295125019+297163088+298813255+300329548+301805839+303181270+304536754
2291+305981073+307410150+308649030+309739630+310778629+311714201+312506662
2278+313234770+313969235+314688011+315325891+315912652+316588564+317375039
2264+318144041+318779467+319313140+319910572+320538042+321040189+321492036
2251+321997789+322446253+322722514+322986841+323400916+323843283+324153635
2237+324302751+324400117+324579049+324902636+325342772+325716436+325878676
2224+325926708+326146943+326633365+327038406+327166517+327320020+327689781
2210+328160030+328634072+329076922+329579812+330201260+330827652+331416495
2197+331922174+332374430+333020451+333929722+334846539+335570223+336256618
2183+337169197+338266693+339251024+340007349+340689952+341364079+342079993
2170+342997962+344102708+345253442+346450015+347640676+348666236+349617032
2156+350655566+351729195+352788288+353880134+355049530+356288633+357535283
2143+358758995+360005050+361252443+362479240+363808423+365279472+366787140
2129+368227667+369611313+371057045+372560772+374084092+375671727+377264530
2116+378793798+380401918+382308344+384530922+386784506+388759933+390603642
2102+392669185+395012068+397532320+400139827+402832432+405677944+408704843
2089+411943537+415384473+419060181+422983524+426939285+430878985+435066729
2075+439528132+444254345+449443818+454823896+460030656+465385752+471178791
2062+477203664+483401483+489926607+496633005+503291185+510005279+516943921
2048+523970002+530836224+537590171+544543089+551910193+559444705+566749873
2035+573813168+580638383+587187078+593790385+600455888+606628019+612435110
2021+618386522+624283395+629873522+635327508+640867596+646191835+650771646
2008+654744061+658364041+661914724+665769884+669721853+673507269+676710572
1994+678809648+680586551+683155989+686163890+688863297+690924231+692359255
1981+693714053+695115098+696025037+696416509+696798389+697021301+696608416
1967+696400672+697106882+697758963+698084483+698626001+699073461+699138000
1954+699022306+698946093+699129821+699501366+699397940+698522724+698738200
1940+701456122+704501126+706199883+707492520+709347717+711822280+714646081
1927+717212396+719256748+721945375+725710121+729712056+734951829+741866789
1913+748374143+753572055+758539545+764344480+771273567+778745139+785302383
1900+790478361+795571881+801714605+808154073+813178072+817540473+823300201
1886+829522334+834589830+839036474+842980115+845723317+848080698+850615636
1873+851501708+849433413+847389507+849233997+852596341+853852769+853041125
1859+851722092+850600021+849031086+846634743+843709077+840041660+835181388
1846+828992788+823581853+821658696+820534321+817750894+814767753+811598430
1832+805733789+798435016+794410626+792691571+790387947+788337424+786374265
1819+783576041+780461517+777496072+774114916+770741196+769252339+769008533
1805+767724149+764903917+761842184+760273174+759892037+758644681+755984309
1792+755076674+758072902+761219249+762034462+761247280+759643771+758542891
1778+759132292+759053923+755774780+752160749+753623954+758304067+762144059
1765+763548153+762799933+762999498+764958120+766547875+767406213+766586465
1751+763729724+762341319+764810529+768695505+771285984+771879326+772541668
1738+774167112+773253530+771472909+775978664+783225762+789073004+793019693
1724+795106204+795623780+793462841+789105273+789247735+796702576+805259636
1711+811367562+813451099+811988340+811592184+813147736+813132419+814019160
1697+819065391+828101511+838153227+844078615+846866429+847709153+845028036
1684+844994354+854561656+865517289+872089850+874387972+876659252+879531606
1670+881809577+887997211+896408686+901470456+905862078+912818453+918093173
1657+917606528+910328276+907195833+917980081+924370179+925028506+931353395
1643+941034310+946365464+946089091+942037861+941706913+950013995+956604030
1630+956870365+955690522+956091734+956248843+958211927+961627955+962944609
1616+965058705+970388000+974069247+974372387+974873010+978382797+982122338
1603+984272793+986478790+988290416+987975603+986764680+987783845+991220320
1589+993692801+993688488+994492994+998290382+1001897201+1001951405+998818962
1576+997180357+999828014+1001103551+1001027041+1005502608+1011678939+1013608564
1562+1008833426+995988022+989430406+1003468516+1019599160+1030646991+1036719227
1549+1040206560+1040990619+1036294743+1028453262+1024531035+1032468208
1537+1044466502+1049009136+1049266845+1052581752+1055481989+1054590489
1526+1052676999+1050518291+1049077095+1050671459+1053937665+1059492325
1514+1065747100+1068003583+1064761840+1056355793+1053382615+1064181213
1503+1071537833+1070039831+1066410929+1067449054+1072310739+1073615794
1491+1067548093+1061068250+1063495226+1070409592+1073741823+1072792997
1479+1071170675+1068115857+1060747935+1052557885+1052305677+1057016722
1468+1057003338+1052170205+1047919558+1044882138+1039082929+1028794620
1456+1020839452+1021366248+1024358906+1024918715+1021196870+1015216758
1445+1009463350+1002062340+992400832+981219090+967753131+958774710+956713776
1431+953276706+947398756+943778256+941464892+940079089+940562685+941144874
1418+945343399+953942840+960738611+966391865+973703799+978410754+978781482
1404+980312348+984868291+990436410+995547849+998771598+1003678267+1011758200
1391+1015612691+1012987488+1010464224+1010695836+1010995704+1013102959
1379+1017344164+1019354462+1020558396+1026477910+1034028965+1036760865
1368+1035575446+1033460234+1031419748+1031535591+1033558381+1034711829
1356+1034246078+1032664056+1030321173+1027932564+1026254998+1024418166
1344+1021161478+1016301726+1010448758+1005454873+1002726764+1001874226
1333+1002825283+1004594676+1004395780+1003157346+1004484930+1008408718
1321+1011546143+1011024107+1009485805+1011335351+1015598861+1019524286
1310+1023185755+1026344519+1027730545+1028975968+1031183750+1033073001
1298+1034607436+1035649948+1036206708+1037549683+1039835461+1041956101
1287+1044237344+1047800518+1051574484+1054271884+1056021053+1057244095
1275+1058688712+1060248576+1060590156+1059552477+1056950845+1050810872
1263+1042872806+1037101330+1033139845+1030056252+1027801776+1025771848
1252+1023976580+1021618009+1018203543+1015623918+1015378031+1015988028
1240+1014950423+1011787272+1008868967+1008210492+1007343975+1004387303
1229+1002476564+1002956443+1003771953+1003719905+1002744535+1002239599
1217+1003211029+1003557815+1002666315+1003753290+1006998677+1008786509
1205+1008319122+1007257799+1006720148+1006985739+1006985888+1006137736
1194+1004850229+1003035257+1001105038+999754925+999413716+999971071+999827643
1180+999007522+998726912+997013730+993154927+989841878+987987574+986850335
1167+986064715+985481337+984542176+982731591+980319263+976589091+972123041
1153+970081440+969888121+968021994+964884494+962967956+961997939+960885237
1140+960082515+959225144+957650929+955513709+952298361+948916313+947177851
1126+946429036+944796454+941057731+936248614+932481265+928960845+924919578
1113+922133399+920160426+917114605+913907064+912009858+910742723+909330674
1099+908507282+907221039+903341119+899813412+900619479+903216279+903497633
1086+902157186+901811070+904241021+908355675+910653127+910961918+911290115
1072+911095903+909430903+908114100+909400343+912430997+915375994+917683038
1059+919366478+921071481+923381796+925824461+927051221+926516544+925712782
1045+926307462+927780853+928524018+927851192+926143587+925085758+925410088
1032+925357818+924090089+923554966+924908350+925591809+924098342+922950471
1018+922861321+921751891+919839367+918485760+916267048+912155293+908471146
1005+906741012+905571504+904205331+903366548+903810662+906153396+908359318
991+909241301+912858753+919929707+925711667+929124795+932135967+934342708
978+935090111+935021928+933929525+931543369+928741948+926684509+925852790
964+925956216+927241790+929035570+928901734+927008691+925916585+925692335
951+924518514+922222326+920257532+919199777+918397576+917378486+915650805
937+912995043+910127745+907767836+906108858+904328089+901421234+897859548
924+894926298+893095266+891156644+888298417+886127812+884857927+881127160
910+874579581+870151154+869743027+869669417+867306460+864446299+863052764
897+861916864+860383246+859910580+859966420+859214482+858606492+858638985
883+858632814+858996998+859887828+861180540+863647593+867019975+869787194
870+871475838+874084312+879792885+887926129+896508543+904065769+911429379
856+921155724+932207495+942686893+954916203+969160942+981615246+992062003
843+1002109406+1009702397+1014326002+1018893693+1024484043+1029558529
831+1032068112+1031781107+1031511798+1033161407+1034379170+1033924424
820+1034248234+1036110866+1039178770+1043378114+1045240300+1042173065
808+1038086218+1035938589+1033549979+1030723352+1028862876+1026202132
797+1023615519+1022458651+1018610629+1012876701+1009515398+1006063829
785+1000422472+994634712+990054827+985488475+979237120+972718539+967451255
772+961962992+955380318+949473742+945818816+943423366+940259991+935768810
758+932546325+934354530+940061095+943924955+943759295+940507738+934048268
745+927534668+925356926+926378544+927077319+927265731+926433863+921809961
731+916213142+914940654+916150982+915269817+912384377+909703260+907761367
718+906920204+907154493+906885704+906147670+907590428+911750438+916647292
704+922747709+929127918+930875599+928696518+928449218+931067952+933211641
691+932474202+928891250+926616476+929300344+933741559+936092100+937590028
677+939080000+939271460+937832049+932369289+922861321+923731704+935412359
664+940040946+938552981+939026539+941907444+945383327+948423349+946931815
650+940430038+934696483+935095538+940965979+947693271+953031711+956882038
637+959413481+958671581+953680149+947293174+939751264+933481545+934184855
623+940790133+944049869+945507349+959618400+979940952+982125461+969112018
609+959987343+953040039+941657839+936757490+943134502+956204603
##END=
