##TITLE=Sample description
##JCAMP-DX=4.24
##DATA TYPE=INFRARED SPECTRUM
##DATE=13/9/2023
##SAMPLING PROCEDURE=Instrument type and / or accessory
##ORIGIN=Default
##XUNITS=1/CM
##YUNITS=ABSORBANCE
##RESOLUTION=4
##FIRSTX=4397.6552
##LASTX=599.8556
##DELTAX=-1.9287962
##MAXY=1.6286092
##MINY=0.21402098
##XFACTOR=1
##YFACTOR=1.5167605e-009
##NPOINTS=1970
##FIRSTY=0.22997518
##XYDATA=(X++(Y..Y))
4398+151622606+152411205+151712400+149753291+148370565+148500482+148984684
4384+148879691+148938765+150151913+152079801+153098987+153405231+154439547
4371+155578757+155765822+154939939+153663385+153109587+153311988+153440058
4357+152510411+150182712+148656099+149173724+149938194+150078112+149817217
4344+148634446+147084324+146432371+146277815+146282815+146747035+146879555
4330+146475549+146050990+145381894+144640275+144275940+143937874+143251321
4317+142585496+142038575+141295630+141104006+142387035+144406839+145570954
4303+145498981+145335936+146025182+147039770+147098107+146500316+146702422
4290+147249657+147180022+147272057+148090237+148741021+148250040+146948463
4276+145893310+145548289+145505956+145043289+144214842+143810630+143950568
4263+144162292+144683502+145717444+146654882+146974871+146279062+144968211
4249+144479559+145142073+145665945+145569166+145874339+146548603+146794653
4236+146753273+146398615+145563350+144880392+145333441+146518393+147100642
4222+147566109+148667633+149317778+148904350+148279346+147910540+148162868
4209+149490185+150701889+150619649+149944993+149578771+149678518+149903917
4195+149617047+148860170+148855572+150010118+151040720+151144544+150713904
4182+150243269+149908240+149940965+150413957+150861141+150893797+150609953
4168+150854313+152092317+153100146+153441188+154099360+154527858+154146399
4155+153944224+153950629+153790934+153984641+154609901+155273142+155712309
4141+156037730+156327931+156089131+155673188+156086154+156892300+157217849
4128+157172696+157199261+157940016+159529465+160821463+161199101+161420021
4114+161757035+161908644+161982680+162282371+163312541+164929224+166127576
4101+166841962+167586942+168156989+168473293+168901438+169523947+170086802
4087+170389411+170729687+171174553+171301463+171489521+171848423+171862472
4074+172291599+173321307+173724832+173678186+173923853+174241651+174607961
4060+175073772+175416051+175628591+175906345+176525651+177590471+178617723
4047+178999595+179017200+179449726+180434832+181293027+181416853+181178750
4033+181122771+181079171+180992422+181257640+181692956+181757855+181540148
4020+181357691+181673661+182607798+183238441+183008100+182443613+182287072
4006+182618644+182956129+183452317+184183110+184484128+184434534+184496801
3993+184671910+184881404+185030852+185430093+186052209+186191518+186114947
3979+186524877+187148664+187416180+187314793+187221207+187260700+187334717
3966+187404234+187925768+189283118+190097084+189749813+189690317+189552344
3952+188191320+186911092+187386216+188225863+187654951+187549752+188952588
3939+190019275+190019314+189045703+188381500+189589205+190595413+189272213
3925+187846486+188210360+188113944+186804164+187009905+189981805+193152825
3912+194098220+192596158+188649016+183196295+179885770+180892390+185177961
3898+190657562+193032850+190134004+186880400+188730067+190644830+189670884
3885+189657091+189602939+190079144+193801015+194968342+191501217+187097675
3871+184363072+186638682+190128246+190481530+192514184+196873438+197766352
3858+192822806+182868162+178557284+189611545+200201627+203028579+200003745
3844+195046583+190730930+187496111+188413095+193944195+198419080+200699406
3831+202425837+203004667+202743320+200677714+194953782+193054994+197296238
3817+200248410+205091296+211258541+212648016+208718774+204740725+204653465
3804+203941142+204201428+208582098+211939014+215144773+219011277+221094350
3790+222197524+222674613+222382811+223000938+223443269+222955275+225488696
3777+230723886+233584968+232533588+231011425+232785798+236392940+240302671
3763+242757359+241941546+242201950+245744015+246726351+243256121+244937693
3750+260228817+275677444+287489260+304139560+318157725+321750169+317167157
3736+312601986+317634166+329763505+340166453+345292279+348213446+353903975
3723+363084501+374367670+386665181+397812656+405699709+412855361+426702799
3709+446570077+465316320+480714627+495222928+512739990+532114559+550510702
3696+566884919+579476060+590501477+607217227+630628575+651602977+664867753
3682+673582566+683020686+692238819+700761782+714245405+728690319+739897997
3669+754206000+771571335+785144948+792516421+796716992+800551154+804116208
3655+808955518+814657089+817881357+817944076+826868186+845726034+858300002
3642+858615638+856472990+859900111+866155696+871857975+876008717+874578766
3628+875048605+885543351+898115826+906066305+906818378+906249666+912686570
3615+923268478+928849171+931036303+937545514+946605671+956428590+965637292
3601+968063824+965151105+965129020+966830438+969764455+978020196+984434072
3588+982371669+982263523+989132068+996171085+1001403525+1006335105+1006693654
3574+1004239378+1005573208+1005120031+997108248+993657392+1002298168+1015725517
3561+1027499235+1030413839+1026550676+1023885216+1021025549+1018587228
3549+1023985110+1040774110+1057323318+1057765885+1050614005+1046453361
3537+1044209797+1047369696+1055297226+1055788757+1045959158+1039510544
3526+1044751943+1052431900+1052884291+1050842716+1050092608+1048668709
3514+1047816507+1048448722+1052667448+1058929714+1056168291+1048903550
3503+1052632395+1059039040+1056681042+1059697113+1070068465+1069092555
3491+1061436884+1062635767+1069755659+1073741823+1069134211+1054674678
3480+1040238880+1038088137+1046211604+1053971491+1058000725+1059498032
3468+1060567627+1064610537+1067942165+1065220668+1061108044+1058342612
3456+1053552031+1050193131+1051754178+1055171396+1058980094+1062766628
3445+1062322646+1058096139+1056338763+1058732520+1064634351+1071561371
3433+1072526671+1064640796+1053405845+1047531051+1046299787+1045568699
3422+1052359200+1065332586+1069393494+1062976240+1056012595+1055068830
3410+1055904684+1049115598+1039580336+1035867681+1038189760+1044934912
3399+1051640923+1057768557+1063089573+1056702892+1042388916+1040116273
3387+1052335307+1062493118+1060981900+1055335344+1050542956+1044469160
3375+1039094778+1036236604+1035177698+1036304510+1036927608+1034607415
3364+1034198801+1039753165+1045597544+1046139611+1044830617+1045899504
3352+1048496429+1049063647+1046973658+1044917228+1041563279+1034204853
3341+1028276850+1029636774+1032894523+1032654180+1033135416+1035310444
3329+1033039530+1026483713+1023448308+1023880186+1020350342+1012052081
3318+1003236746+996953809+994435165+995786286+1000377315+1004435943+1004882597
3304+1003815753+1002977383+1002093508+1000520043+998615144+998589757+998590229
3291+996677392+999106832+1007732754+1012331092+1008758729+1003861888+1000657347
3277+1004196858+1015390233+1017399662+1008048940+1005277535+1009734796
3265+1010612698+1006543302+1002987994+1002229084+1001511829+1000345248
3254+1000555253+1000510218+1000202677+1000422978+996431312+990097210+990269962
3240+994432728+994110490+990258487+991355668+1001205781+1009716641+1006093741
3227+996387849+989992129+988294013+990114266+993884766+998086909+1002018371
3213+1003462784+1001309998+998052406+994488766+991770884+992395554+994192307
3200+995335074+996146013+994278683+989049622+984787433+985661249+990915067
3186+996771077+998613100+995985995+994617661+994852502+992608625+988456861
3173+985200212+984673943+985288946+982709154+976976616+972827211+970851026
3159+967747166+963258939+960370663+962421198+966904710+967925418+967241173
3146+967337923+963633835+955437276+948728749+946125144+946769305+950494850
3132+954363044+954359664+952638284+952867859+954642212+955947905+953407097
3119+944337429+933909488+930072104+930069903+927537976+925353123+924901203
3105+923103193+922628167+925939203+927789715+923597396+916840141+911654858
3092+908184667+907901098+911010774+911470003+907299063+904433815+904720371
3078+905589000+905547109+903103365+898735230+895371693+892617578+888329375
3065+884879304+883818434+882355315+879680503+878447431+879033511+875882494
3051+867113372+860248285+859769251+861374861+860253237+857763436+857201248
3038+857490320+855655527+852293326+850135745+849107255+846628851+841963000
3024+837172026+833517059+831128724+831002659+832358967+832641750+831334171
3011+829233728+827145389+826643484+828080194+829199618+828980261+828959354
2997+830320850+833756694+839058298+844075860+846230219+843989878+838849629
2984+834135835+829868380+825459770+823219193+822281323+819076468+815630799
2970+816675165+821367109+824848224+825058622+823334963+820588472+817451051
2957+815577040+815459541+815967498+815103271+811005267+805846155+802924399
2943+801149810+798404734+794297140+789126947+784425571+781610389+779606618
2930+777047340+774699638+772640301+769242182+764151055+758519511+752829493
2916+746522192+740123878+735172178+731346740+727442943+724711228+724376179
2903+724375157+723272867+722270235+721763613+721562490+722339634+723879382
2889+724903077+725512108+726729067+728172223+729465970+731295261+732353459
2876+730546646+727258403+723239150+715676220+704325971+692686022+682789381
2862+674106085+666171482+658877504+651463668+643318785+633745011+622955613
2849+613758112+607995000+604118357+600538527+597342436+594514914+591759031
2835+589402999+587550758+585424812+582852959+581234969+581196340+580980716
2822+579068232+576240082+573884992+571734839+568958207+566110919+563364035
2808+559753789+555342270+551098315+547506342+544278970+540634692+536378005
2795+532384806+529200818+526161091+522524948+518768594+515832337+513335188
2781+510388045+507292947+504581864+502082160+499759923+498011310+496598099
2768+494677521+492483236+490983335+489782920+487922780+485869534+484421348
2754+483199751+481490514+479516766+477663189+475591198+473543846+472091456
2741+471014120+470018325+468884794+467592815+466283506+464702339+462812216
2727+461021082+459559025+458344227+457139528+455685408+453948702+452146565
2714+450463657+448887677+447133247+444949927+442563164+440235504+437759261
2700+435163593+432905215+431005228+429044920+426721426+424324406+422249310
2687+420193863+417934306+415830837+414130127+412507187+410714049+409083367
2673+407636400+406134181+404736650+403579304+402469115+401097284+399617386
2660+398476663+397605991+396838239+396336648+396042507+395706830+395353468
2646+395013742+394608862+394324231+394288982+394352879+394431199+394515295
2633+394696927+394882922+394813483+394917896+395746559+396815682+397342306
2619+397422905+397586028+397768289+397646507+397286543+396683329+395680972
2606+394527949+393483386+392478239+391403300+390021488+388239511+386323294
2592+384479306+382832119+381270207+379326325+376982239+374897555+373488627
2579+372438642+371203330+369756088+368338358+366858538+365372038+364214024
2565+363352509+362483841+361628102+360964488+360249355+359326261+358617494
2552+358370904+358274900+358068039+357898353+357849506+357812174+357903462
2538+358238904+358608613+358844083+359179407+359881257+360797632+361719822
2525+362620517+363350740+363836455+364250021+364657966+364968926+365108510
2511+365134093+365257211+365549151+365697420+365373767+364800773+364394242
2498+363990029+363277215+362502665+361872060+361220746+360625470+360262166
2484+359960874+359453074+358730042+358066781+357640445+357261854+356812175
2471+356515244+356421913+356364735+356342414+356311802+356111543+355783763
2457+355587709+355558236+355370827+354977343+354748672+354777123+354742581
2444+354562324+354543657+354728237+354884444+355057431+355326460+355512180
2430+355512415+355512573+355693930+355990585+356352592+356720887+356972115
2417+357268888+357696208+358056721+358387919+358908609+359627318+360208290
2403+360408274+360544125+360940045+361463054+361935329+362270771+362251948
2390+361946725+361689406+361094052+359580868+357376838+354640801+351078222
2376+346757873+342207360+337902690+333970874+330275824+326579674+323064017
2363+320611097+319967131+321270761+324440838+329265077+335577546+342155448
2349+345823382+344735554+341035159+338791124+338634171+339281398+340463540
2336+341873607+342914947+343814267+345759957+348816071+351770759+354216468
2322+356723599+359482468+362076642+364067288+365431220+366828908+368727637
2309+370786778+372714391+374578735+376335169+377876843+379276653+380601170
2295+381814082+382924821+383972252+384889609+385575309+386120166+386579473
2282+386806769+386914994+387232988+387669699+387971778+388328323+388752577
2268+388840171+388701844+388853257+389312642+389651818+389735717+389805392
2255+389921240+389997595+390110025+390275899+390304075+390207010+390268747
2241+390525201+390727307+390809046+390968357+391152072+391147003+391128651
2228+391256524+391464171+391801146+392183863+392386205+392460909+392591533
2214+392825706+393187713+393548227+393664586+393725930+394106956+394701250
2201+395247051+395751353+396258996+396725967+397116661+397504250+397915733
2187+398199067+398475248+398921666+399217575+399253453+399395120+399819178
2174+400403568+400927127+401400778+401978606+402517451+402926811+403352558
2160+403838941+404394763+405017979+405647169+406267949+406834734+407288972
2147+407840117+408802234+410020844+411039196+411597178+411848367+412417274
2133+413474058+414449458+415188876+415924169+416717228+417532648+418282559
2120+419108903+420124189+421030582+421749605+422559445+423515942+424587855
2106+425901094+427439506+429000317+430405904+431682360+433206783+435222107
2093+437470897+439757806+442017442+444137690+446321993+448784561+451481222
2079+454394962+457364112+460235411+463214463+466437945+469816966+473383552
2066+477280866+481614065+486280230+490916687+495306828+499685494+504368833
2052+509345015+514473160+519648501+524759905+529711094+534429879+539081740
2039+543985930+549187639+554344275+559110924+563721601+568563151+573312627
2025+577460146+581092949+584420608+587566202+590970530+594865721+598806497
2012+602242774+605046207+607614563+610330126+612959511+615130846+616932707
1998+618635815+620185426+621236119+621870457+622780190+624380495+626340254
1985+627811506+628236664+628190686+628409691+628494730+628163886+627980839
1971+627748159+626845460+625709964+625136105+624959856+624606887+624097319
1958+623461685+622596593+621609326+620527313+619592155+618789271+617356254
1944+615284734+614359557+615693348+617633615+618705450+619464124+620729144
1931+622575962+625045839+627707211+629955648+632783209+636843684+641373252
1917+646796403+653469837+660235619+666148847+671531953+677533049+684570415
1904+692090432+699426537+706258614+712197935+717468808+723011225+728183069
1890+732565665+737732085+743530407+748078209+751136485+753721778+755917006
1877+757149449+757267969+755307268+750300552+745509578+745362213+747145212
1863+746531309+743211941+738876895+735132802+731911993+727858944+722427031
1850+715923322+708385622+699954772+693661461+691782026+690201566+686614270
1836+682594388+678123845+671488490+664007771+659504453+657227330+655553578
1823+655231772+654870551+653532280+652221832+650855110+648444022+645755298
1809+644667234+644825602+644395375+642435577+640024489+639716005+641361620
1796+641385553+638457508+637337495+641302950+645253039+646163558+646029397
1782+646304989+647005897+648180415+648128111+645152123+642296897+645175309
1769+651560733+656741104+658753127+658365106+659468850+662309104+664715594
1755+666948783+667236911+665004587+665000657+669536827+675024778+679062265
1742+682005400+685592303+689121833+689435661+690836061+700104259+711021844
1728+719823111+726643163+732160273+736580045+737361669+735343593+739516577
1715+752049440+764697838+773785425+778172029+779295226+782018610+785926258
1701+787923506+792839759+803141477+817328837+832397085+843083995+851176653
1688+857648924+860428739+867462568+885043567+901715933+911652185+917021537
1674+923028528+929262657+934666277+943875293+954421911+960186830+963350423
1661+969186942+974699886+973715252+965491027+963419665+974815735+980097925
1647+980479031+988481461+1000378101+1007312823+1006271207+997125224+990352014
1634+997877140+1007271010+1008102385+1003265197+999316601+997045844+996795677
1620+997314245+993543822+988251022+989196594+991443380+989484958+984933226
1607+981506656+979941207+979156833+978875621+979680509+980579396+979597591
1593+977003260+973594688+970556296+969071407+967951669+966332540+963820969
1580+959224910+951897215+946418223+947658054+948514264+947403564+951901459
1566+960211037+966471260+967891308+961095778+956925859+966351324+972332379
1553+972881598+972556216+971999137+968549696+959941615+949216272+943350280
1539+953763995+972020515+982377249+987906856+995501773+1000154184+998278994
1526+993853957+987165394+979350647+977857584+980082913+982030568+983913696
1512+981964391+972591977+958027913+954891907+969914728+981489051+983802642
1499+980707584+979889806+985759335+990091394+987872117+987535967+995132299
1485+1003453431+1008326458+1011016203+1011364692+1007608889+1000692872
1474+994992008+997585475+1005793037+1008628497+1005454687+1004369216+1003969641
1460+995649295+980972134+976574526+984897309+990158121+987326355+979844614
1447+972573822+966093220+959346339+952383008+943754335+933432104+926930282
1433+923042282+917005740+911929153+910866396+910802341+909813306+907363667
1420+905210173+910886595+923498053+934977354+942248461+946720027+950355737
1406+953790089+958402574+962303227+962643542+963126114+967831105+976475811
1393+985638142+990512505+990878834+990040701+990813129+993307567+995961945
1379+998690830+1002020336+1004720456+1006369687+1008136259+1010918982
1368+1013746346+1014156296+1012453464+1010858385+1010296433+1010810285
1356+1012293131+1014156060+1014016555+1010743323+1007064856+1004142235
1344+999679944+992900132+986549683+983792739+984242143+984402005+982249769
1331+979358899+978343378+980262424+984462601+988856279+990574752+989810340
1317+990124326+992116072+994586145+997766871+1001441565+1005531632+1009241693
1304+1010571200+1009808596+1009071536+1009111069+1008901299+1007919102
1292+1007679074+1008980130+1010869074+1013325315+1016405597+1019931747
1281+1023841832+1025649195+1023145011+1018198184+1013080099+1008014673
1269+1003016131+998079914+992354607+985206343+977977912+972436674+968445637
1256+965295798+962747837+960804113+959619141+959429571+960221412+961381076
1242+962161600+961701900+960573595+960729762+962120731+963205258+963098527
1229+962300319+962047009+962560232+963308532+963554455+963403710+964071214
1215+965143089+965568207+966316193+967616699+968270135+968359968+968733450
1202+969792828+970480295+969832282+969320317+969622985+969037454+966501912
1188+963166118+960525888+958676948+957167066+955527660+954070357+953805493
1175+953922285+952393776+949588182+947439089+945672517+943144362+940406045
1161+938092454+935957744+933827907+931946587+930125705+927514240+924341452
1148+921387236+918053721+913998394+910029284+906745913+903855358+900319542
1134+896573091+893530377+889753746+884887714+880679834+877423185+874403421
1121+871124687+867870868+866080010+865672732+863913705+859699616+855885574
1107+853344058+848806002+842965553+839979270+839361123+839244017+840768911
1094+843842120+846025558+846207819+845875049+846574620+848112089+849851232
1080+851062848+851587153+852746817+854899604+857427758+860196255+862720716
1067+865422565+868686287+870784451+870672846+870023183+871607494+874625529
1053+875210903+874405071+875479225+876633545+875708092+874855576+875811602
1040+877175926+877910079+877802798+877089944+877055677+877120203+876275467
1026+875104957+873602070+872495457+872840330+872874990+870998936+869318660
1013+869021887+867939874+865940111+865242112+865442292+864784062+864307071
999+865264511+866170629+866504106+867789365+870239318+873321880+876543632
986+878135803+878241199+879881076+884262258+890562406+897127419+901791541
972+904017342+904358050+904039270+904907898+907002761+909140457+911178888
959+913276737+914834877+915668609+916524976+917039614+916028415+914342088
945+913560543+913735652+914234649+914424770+913993128+913146585+912338003
932+911684645+910920312+909980870+908550997+906486708+904548799+902964959
918+900823333+898391929+896581579+894132255+890296599+886472261+883681364
905+882401136+882440905+882171325+879964701+877112579+875474430+873246979
891+869191101+865415020+863026528+861351047+860193190+859314659+858149650
878+857511776+858042211+857976349+856006531+853260433+851394281+851568133
864+853335963+855451102+858601412+863427440+869265923+875890196+883866691
851+894399477+907133149+919865721+931371824+942842401+954938278+963957016
837+968692031+973213268+978525167+983240769+987121695+990365375+993547909
824+996262884+997002067+996544331+997381207+997699044+993397794+988000540
810+987656139+990221704+991720898+992155133+990567364+987261593+983990562
797+979527328+973848784+970019573+967292889+962297804+956222672+951363714
783+947256907+942745809+937076696+930664943+924263015+917682361+910629512
770+903709015+897584290+893426160+893469545+896402383+897311095+894993495
756+893114847+894228848+895666030+894329999+892506524+892469113+892539848
743+891413429+890259031+889666113+887494856+883314249+880016416+878364278
729+877088451+874929691+870522573+864789878+860143047+857924555+857587227
716+857613242+859033840+863235590+867811214+870577354+872291268+873930517
702+876219272+880120319+884461416+886241036+885329888+883194470+881057481
689+881476863+883314484+883466408+883465465+885159180+889219459+893605199
675+893738102+890915375+887072960+883133795+887023446+895320449+898822234
662+899205698+898377782+896418967+893115476+890299979+891456971+894684147
648+894899575+893281389+892479959+890027648+886187591+886719048+893638602
635+900769968+901173630+898186718+898438928+901116963+900901063+892711420
621+880133601+874217937+878382590+887079248+895917297+904066385+909291437
608+911043706+912327785+910869776+905556540+904306099
##END=
