##TITLE=Sample description
##JCAMP-DX=4.24
##DATA TYPE=INFRARED SPECTRUM
##DATE=13/9/2023
##SAMPLING PROCEDURE=Instrument type and / or accessory
##ORIGIN=Default
##XUNITS=1/CM
##YUNITS=ABSORBANCE
##RESOLUTION=4
##FIRSTX=4397.6552
##LASTX=599.8556
##DELTAX=-1.9287962
##MAXY=1.6296091
##MINY=0.23469448
##XFACTOR=1
##YFACTOR=1.5176918e-009
##NPOINTS=1970
##FIRSTY=0.25754255
##XYDATA=(X++(Y..Y))
4398+169693583+169268489+168321082+168081888+168980381+169954475+169943969
4384+168953498+168018855+167842066+168091157+168522887+168891113+169055727
4371+169704226+170803915+170973379+170123624+169696685+170014504+170141886
4357+169336609+168215771+167810785+167937834+168330880+168536103+167390974
4344+165255139+164205101+164887934+165477956+164821150+163721186+162573239
4330+161319108+160853848+161305775+161103547+159884929+159343694+160366605
4317+161523024+161146738+159707423+158713899+158778327+159557409+160222266
4303+160021815+158934949+157697636+156823885+156389838+157022490+158399389
4290+158577395+157662751+157615349+158700831+159536821+159062969+158081954
4276+157832952+158134796+158388452+157961032+156662924+155280202+154639096
4263+155025103+155978078+157046761+157921140+157689261+156447442+155566268
4249+155814681+157029215+157773414+157277579+156932918+156873576+156306097
4236+155934278+156138538+156152490+155571786+155140291+155298553+155715035
4222+156261159+156582924+156609051+156743287+156972682+157026506+157075813
4209+157466650+157803870+158048788+158355433+158200687+158059283+158328138
4195+157875288+156811190+156983423+158251005+158670777+158162562+157874375
4182+157963290+157835642+157366690+157232818+157433769+157299032+157076196
4168+157465590+158392094+159331618+159858596+159519815+158320637+157226436
4155+157147114+157587769+157393033+156741578+156802226+157683606+158323661
4141+158300028+158262130+158414735+158381805+158095464+157736349+157606915
4128+157758843+157983761+158323631+158646840+158767065+159134074+159854246
4114+159979872+159341014+158937325+158858601+158763413+158993063+159456654
4101+159956543+160852797+161761148+162228371+162886463+163542404+163426323
4087+163093453+163124272+163335788+163726655+164177551+164155695+163795550
4074+163628963+163551437+163972976+165361275+166617606+166666599+165884866
4060+165424839+165674577+166007045+166313867+166630801+166491598+165899613
4047+165642628+166384598+167545887+168177243+168226865+168127425+168199354
4033+168330664+168455632+168995305+169897744+170445645+170588266+170499371
4020+169896036+169354792+169424345+169524040+169363570+169215588+169557933
4006+170556729+171298817+171123992+170641147+170309505+170042250+170120875
3993+170818819+171871185+172823717+173339473+173331520+173059278+172887301
3979+173031492+173415251+173558657+173628465+174544513+175840254+176285318
3966+176101892+176004888+176159506+176396284+176542832+176733661+176886159
3952+176793219+176630785+176948702+177638398+177923856+178426141+179582207
3939+180061242+179548608+179034227+179185920+179991080+180611578+180418137
3925+180372031+181248098+181983686+182141662+182636583+183834593+184630740
3912+184512626+184175328+183122825+180964899+179836658+180756810+182501267
3898+185022078+187161271+186989961+185644814+185991538+186703522+186345448
3885+186489345+186629786+186887713+188679652+189344567+188189483+187145405
3871+186597916+187584401+189084127+189390969+190194204+192233663+193725613
3858+192957704+189189694+187106858+192110738+197130464+198400894+196368740
3844+193344172+191674766+191352215+192566935+194750919+195573556+195991187
3831+198049340+200309926+200942559+199643911+196577949+195397435+197443373
3817+198749169+200550239+203513305+204376511+202492849+200936412+200910374
3804+199655320+199322342+202389031+204947720+206824588+208991605+210127740
3790+210594660+211232791+212199756+213841632+214963099+215243490+217055458
3777+220278415+222464854+223062376+223619859+225631473+228336730+231104707
3763+233161308+233706244+235509101+240073926+243879010+245785627+251320991
3750+265504299+281336100+299824539+325536619+345684705+356166453+361280258
3736+364498463+370610712+380569458+391053209+400586430+411119980+423148111
3723+435535906+448723029+462771964+477100053+490880241+503934856+516571958
3709+530718683+547451628+564891452+582356686+599252458+613111232+622800524
3696+628921767+631011613+630178942+632257163+638673268+645146831+650018320
3682+652216246+651362328+648838003+646739399+648943294+652257679+650687379
3669+650167480+655262159+659652513+660357624+659981308+659418602+657244083
3655+655835823+654838637+649061467+640783340+641850747+649294358+652425337
3642+650227607+648235080+647502478+645308283+641543277+638142373+635532078
3628+635274996+636636363+636585700+634969332+632971896+632688029+633580435
3615+633807041+634720654+635333827+632371841+629683942+631227105+632699615
3601+630810926+628023549+626637950+627413557+629621066+629275461+625034425
3588+622397188+625355876+629173508+629978648+629116837+629079291+629084122
3574+628313071+628409997+628529584+626754513+626915612+630426913+631886031
3561+630838300+631380467+632798466+631650666+629847397+630738546+632172018
3547+631350619+630906400+633383008+635662976+636078133+636886140+638206702
3534+638314233+638001775+638484678+638137896+636296767+635243224+636215314
3520+637777800+637850573+636916263+636508921+636526751+636866582+637596043
3507+638220291+638569234+639100207+639286991+637865143+635682848+634639123
3493+635048703+635827688+635917859+635177637+634174992+633244884+632592674
3480+632507922+631338326+628543212+627927761+630218961+631314645+630046355
3466+628617478+628003559+627780408+627537150+626958341+626279936+625649993
3453+624950773+624145514+622610560+620526605+619140064+618777533+618652526
3439+618132706+617128921+615582499+613667183+611736394+610357904+609483407
3426+608928987+609252441+609730632+609970199+610764774+611238449+610379583
3412+608603883+606402933+604205361+603187320+604723492+608411523+611416867
3399+611825858+610968995+609808314+607673186+605542300+605220259+606314294
3385+607244480+607118374+606505554+607070892+608157189+607328014+605154555
3372+604153010+604581598+604757110+604367481+604125950+603473544+601932187
3358+600400061+599732926+599799730+599761203+598790565+597330230+596610470
3345+596450078+595867145+595695443+596319376+595709149+594167282+593350753
3331+592918826+593230538+593938005+593420856+591794866+590185999+589426415
3318+588348208+585172497+582234939+581666302+580623951+578214971+576424544
3304+574086138+570348466+567972161+568701897+570565961+571969468+573464246
3291+574654225+574743611+573660691+572050528+571302452+571115158+569761803
3277+567439184+565846420+565825998+566693896+567164900+567342808+567036280
3264+564871462+561972705+560326372+559798893+559448026+558350929+556573776
3250+555202709+554350951+553487844+552863164+552314831+551233364+550270621
3237+549877574+548564003+545974366+544293393+543954976+543892571+544579224
3223+545492601+544963944+543875055+543234627+541164221+537433932+534830511
3210+534483492+534618357+533332119+531501830+530706940+530195249+528984102
3196+527708312+527092822+527101383+527568578+527884649+527297985+525719594
3183+523808245+522931706+523124734+522715821+521171795+519428378+518026677
3169+517053251+516627294+516459126+516646930+517420338+517421712+515809586
3156+514169065+513662244+513671905+513186174+511843697+510657096+510319661
3142+510090070+509597701+509164046+508574280+507093915+504937226+502783483
3129+501088922+500457055+500392372+500164391+499562176+498271068+496492306
3115+494602478+493026679+491744762+490112646+488199451+486604094+485271710
3102+483615951+481661755+480117414+479443407+478809459+477364165+476369885
3088+476323543+475377176+473407113+472086983+471805669+472646744+474037095
3075+473887896+472162427+470703898+469738837+468380180+466385375+464327380
3061+463001162+462501961+461862043+460738004+459697028+458444762+456752950
3047+455651847+456045443+457302147+457963154+457359918+455945846+454620846
3034+453687086+452637273+451393058+450546995+449966223+449374650+449577968
3020+450758757+452105396+453444888+455115885+457306977+459833777+462375304
3007+465043920+468313808+472548718+477886303+484682769+493663887+504948851
2993+517096059+528750073+540270205+551443358+560550975+566654073+569738985
2980+570082312+568886403+567745476+567416602+567924444+569422089+572065374
2966+575767189+580719071+586712793+592652789+598103559+603492513+608818315
2953+613730413+617725953+620448726+622081118+622585386+621979400+620331731
2939+616714628+610644166+603491256+596805854+590818651+585398240+580727083
2926+576642668+572747157+568620209+563699902+558007288+552327909+546955018
2912+541394990+535509073+530106295+526038100+523103448+520781497+518940329
2899+517895465+518447254+520465741+522946905+526096971+531148096+538307369
2885+546148189+553530534+560858092+568684695+576255237+581730828+584117147
2872+584211599+582991302+580367104+576164359+571453575+566658040+560368866
2858+552130954+542343949+530904209+518056682+503968199+489294663+475637832
2845+463693824+452688643+441885954+431687994+422634338+414722277+408185367
2831+403146102+398780608+394112947+389242910+384976778+381834920+379762433
2818+378322323+377168594+376252624+375738931+375831026+376290955+376581145
2804+376714320+377047122+377186856+376239743+374254049+372065863+369883372
2791+367273077+363990346+360351054+356818113+353458721+350448625+348139478
2777+346213479+343964538+341485651+339481578+337980163+336433701+334673357
2764+333072345+331970024+331146229+330285478+329363245+328368120+327382068
2750+326533786+325803893+325123936+324329458+323468315+322828436+322190364
2737+321199324+320023209+318925522+317966234+317045493+316092764+315180840
2723+314396986+313699395+312895040+311986670+311223140+310667561+310093210
2710+309326126+308598432+308154762+307626420+306727220+305857770+305091981
2696+304059508+302892995+301858558+300881303+299985068+299222127+298384036
2683+297359595+296140927+294633621+292987974+291534178+290349717+289288083
2669+288325124+287436960+286386715+285128048+283919964+282989189+282269409
2656+281436856+280428751+279562541+278953571+278469528+278075441+277622837
2642+277019561+276501665+276174362+275916042+275596535+275226856+274960976
2629+274872396+274986877+275286669+275626206+275835454+275920048+276080715
2615+276422647+276819876+277178185+277605792+278106153+278514476+278801564
2602+279084684+279415581+279675079+279879928+280249194+280742780+281135571
2588+281383778+281483827+281398466+281207893+280945567+280596841+280268458
2575+280015931+279640165+278914160+278060714+277437605+276941368+276330021
2561+275644645+274997285+274315894+273594288+273062568+272914410+272992878
2548+272851278+272363308+271840130+271485630+271321645+271359681+271508900
2534+271603901+271624579+271701594+271878519+271968220+271888593+271939511
2521+272308051+272792093+273188380+273466964+273675976+273933452+274390140
2507+275029273+275642976+276079026+276345495+276549735+276802164+277067514
2494+277273187+277526951+277899438+278230826+278400191+278514948+278641427
2480+278696174+278695349+278549685+278119977+277700775+277485557+277198863
2467+276827279+276648508+276607860+276450610+276096994+275648258+275309016
2453+275098492+274828331+274477621+274174550+274025469+274009877+273984193
2440+273886893+273653080+273192032+272649374+272222258+271906698+271687495
2426+271532424+271323078+271119761+271119879+271312514+271487810+271489341
2413+271344070+271223992+271207438+271248597+271408340+271659002+271859983
2399+272083015+272382257+272619311+272748873+272847076+272865043+272610356
2386+271930340+270602945+268233120+264779728+260808557+256679842+252187967
2372+247407925+242833989+238550635+234507535+231179503+228904130+227926797
2359+228892427+232042807+236965509+243312376+249608423+252679648+250981984
2345+246811443+244242287+243842918+244254756+245365128+246907761+248040224
2332+248942271+250845922+253598779+256055712+258156829+260540399+263433697
2318+266406680+268923995+270903090+272715098+274626506+276533339+278391551
2305+280195724+281835381+283270385+284557761+285760131+286865201+287903408
2291+288960820+290035119+290984471+291744997+292457275+293100649+293559302
2278+293912348+294268537+294624568+294879471+295024448+295196092+295415982
2264+295588294+295758622+296001526+296258020+296524469+296792116+296945458
2251+296967334+296889612+296621336+296319031+296368063+296627777+296714139
2237+296666167+296648651+296733992+296895660+296974560+296951290+296957829
2224+297042738+297238064+297479064+297557846+297478651+297470404+297668046
2210+298008977+298359510+298687363+299033576+299377512+299687829+299935505
2197+300166687+300641088+301319945+301854631+302369287+303059337+303683958
2183+304111545+304488725+304956764+305515720+306094254+306754319+307556513
2170+308390225+309234049+310108586+310896564+311600850+312269438+312896317
2156+313621418+314497918+315500603+316682216+317841679+318851001+319943896
2143+321116006+322188989+323208836+324272984+325436630+326736711+328075888
2129+329251532+330331271+331597793+332996705+334348882+335760872+337260599
2116+338707856+340111835+341538474+343018799+344608029+346305929+348106959
2102+350093124+352247810+354439727+356759478+359364393+362224465+365268258
2089+368349674+371492474+374919455+378630736+382588377+386772507+391045040
2075+395453538+400146531+405021202+410070128+415478640+421065138+426692873
2062+432669668+439061856+445569154+452030149+458547186+465180551+471910686
2048+478728046+485528557+492234656+498894845+505720688+512803417+519860108
2035+526758646+533553345+540121949+546390151+552350845+558134298+564123582
2021+570207436+575665511+580369343+585108364+590268669+595216977+599340862
2008+602810847+606245055+609774657+612881130+615538081+618213726+620760163
1994+622757677+624462371+626445040+628701051+630627560+631716410+632412842
1981+633475811+634466242+634700703+634643482+634765308+634722225+634322620
1967+634108070+634334088+634419468+634239086+634006471+633449773+632680410
1954+632207207+632141700+632202416+632062525+631606523+630881972+630557418
1940+631380270+632990826+634719437+636205418+637628129+639567480+642289193
1927+645606288+649212748+653107120+657197190+661700219+667762355+675229294
1913+682346780+688597584+695030695+702112364+709159158+715999532+723092904
1900+730563457+737976513+744910436+751215752+756916103+762639311+768529430
1886+773623795+778090653+782638178+786677586+789664157+791483450+791820100
1873+791180889+790121926+788759852+788045079+788173581+787762548+785868086
1859+782815928+779257775+775481340+771547184+767268602+762234090+756417176
1846+749992941+743828694+739621668+736347852+732147896+727089033+721958615
1832+716560040+710902418+706835126+704112313+701220233+698823389+696417825
1819+693327651+690904729+689125809+686431745+683398674+681705527+680858403
1805+679530026+677636742+675916025+675028058+675063561+674850778+673266732
1792+672202899+673514232+674963257+675312160+675554476+676009024+676379528
1778+676850492+676926133+675875731+674503760+675181302+678006932+680859817
1765+681993713+681784152+682554378+684536812+686232394+687485916+687966464
1751+687350424+687346968+689552473+692378260+694188049+695378420+697223005
1738+699175827+699286106+699471240+703642841+709366835+714238678+717727790
1724+720383288+722701979+723830848+723963749+726216775+731580555+737360709
1711+742048203+744681866+745998697+748409287+751460738+753675669+756853501
1697+762489837+770855347+779468672+785122366+789235451+792929568+795967981
1684+801146469+809026248+816523192+823278736+829300735+834938799+840406495
1670+846897573+856299268+865580552+872166357+878475836+886441937+893516066
1657+897497978+898411080+902787295+915196455+925548484+932420041+939430546
1643+946943357+953038246+956398935+956626248+956690185+961195373+967401642
1630+972196745+975973729+979039240+980823422+983260247+986558570+986998979
1616+985385478+988775464+995143853+998503834+999544260+1002029077+1005900474
1603+1009978448+1014301173+1018587453+1021258268+1021497363+1021474899
1591+1022907900+1023578372+1021462410+1018251588+1015637484+1013863120
1580+1013112844+1012047676+1009560660+1008406184+1008887203+1009793157
1568+1012359741+1016598264+1021528310+1025464115+1027406726+1034075398
1557+1044331600+1049152388+1050387373+1048647177+1044478796+1040145467
1545+1035392307+1029901754+1026136630+1029973702+1037848847+1042416873
1533+1045196317+1049625394+1053587591+1055276811+1056765030+1058262675
1522+1057627313+1056379210+1057319647+1060868375+1065044689+1065944203
1510+1060625038+1049514015+1044501260+1054501636+1064200629+1066459232
1499+1063641614+1062546677+1065348743+1066734381+1065441899+1065603312
1487+1068338299+1071309868+1073287353+1073741823+1072984164+1070249177
1476+1065264227+1061543089+1063146300+1065910114+1063682223+1057960586
1464+1055760421+1056723401+1052511269+1041021103+1033562804+1034620196
1452+1033512612+1027155220+1019334587+1013105539+1007435743+1001342581
1441+995276754+988040819+978746733+971975087+967267642+959282060+950818917
1427+947710520+947457600+946222929+946948933+953378195+962220011+968288588
1414+972847659+977533190+981342850+983183743+985096663+990798192+998353025
1400+1002427857+1003353056+1006270585+1013840184+1021993776+1025576201
1389+1025390046+1023954060+1022791101+1023367868+1026306212+1031222669
1377+1035936242+1037580925+1037575506+1040214116+1045366449+1049147203
1366+1049696950+1048085177+1045746457+1044579414+1044665343+1044806570
1354+1045062396+1045070800+1043897788+1041531733+1038617267+1035133261
1342+1029905131+1024586673+1022446518+1021705668+1018704409+1014262843
1331+1012530972+1013460020+1012994161+1012775330+1016295389+1021835270
1319+1026278328+1027679911+1026817314+1026846847+1028574712+1030649987
1308+1033185152+1036927890+1041013798+1043328326+1042755330+1040648400
1296+1039209272+1039762396+1042064592+1044679796+1047078369+1049558787
1285+1052306420+1055568689+1058682506+1060707119+1061521017+1061343660
1273+1060657321+1059373244+1057164596+1053594110+1047171996+1038950618
1261+1032529682+1028811294+1025904761+1021954268+1017507989+1014381448
1250+1012476068+1010437317+1008069691+1006439696+1005779827+1005550471
1238+1005093409+1003840986+1003051830+1003323758+1003112625+1002329674
1227+1001896177+1001715677+1001610660+1001971738+1003137760+1004219502
1215+1003659701+1002248771+1002217274+1003211280+1003427675+1002543478
1204+1001553321+1001119274+1000862819+1000505276+1000382115+1001008052
1192+1001593930+1000529704+998280448+996321971+994895960+993278846+990991181
1178+988791645+987334451+985730062+983624389+982622136+982999944+982490257
1165+980180520+977644412+975800299+974035596+971896619+969369387+966176474
1151+962351655+959231319+957224301+955050371+953476378+953309939+952050525
1138+948044264+943083113+939293718+936151546+932171520+928403097+926551050
1124+925811378+924353085+921449066+917886356+914490794+910807751+906755540
1111+902111246+896606633+892305665+890424478+889377061+888085207+887047923
1097+886381692+885307727+883953429+883638301+884951597+885944660+885073815
1084+884689959+886828072+890158834+891883635+891305769+891589478+894561597
1070+898428282+901605642+903547782+903693328+902747629+903429962+906336966
1057+908516237+909027810+910021972+912378287+913582168+911794923+911071039
1043+914578766+917745209+917075050+915898110+916314956+916541013+915361717
1030+913256358+911400070+910264053+909641101+909818616+909871634+908062082
1016+905240379+903188903+901428049+898039948+893043923+889519544+888974039
1003+889998677+891251336+891499150+890789876+890713371+892558899+896657845
989+901448864+905716920+909981914+914174252+918103459+922202012+926009080
976+928449125+929487588+929587734+929868459+931335628+932418784+932010499
962+931112949+930286876+929949912+930223725+930454573+930301879+930268889
949+930689898+930976985+931004319+930866549+929576424+927145176+925069429
935+923355624+921447024+919896124+918858840+918170459+917360645+916603065
922+916814355+916345511+913848048+910884727+908159243+905902604+904714039
908+904251165+903987642+903824422+903938943+903684453+902775906+903677933
895+907065406+909040220+908243445+907438737+907360583+907103187+905969212
881+904076242+904382730+908165292+911744103+912792934+912497756+911990268
868+912520142+914487181+916302075+917513025+919768958+924345388+930014713
854+935513121+943137938+953786401+964020846+972144983+979780404+988603133
841+998632022+1007255872+1013098235+1018468534+1023853128+1027468385+1028228479
827+1027264478+1029830120+1036146275+1037888985+1033783519+1030923329
816+1030784616+1029666979+1027670328+1027789169+1029337241+1029483258
804+1028718923+1028636920+1027588718+1022550514+1014589675+1008770326
793+1006715001+1004825566+1000868475+996450237+992447275+987186863+980827193
779+974806372+967793039+959389747+952295197+947695989+943785083+938647752
766+932671546+927953811+926137346+926336854+925090322+920694313+916314014
752+915443326+916557900+916679883+916244971+915716590+914537215+912394625
739+909105100+907185425+907789525+907612796+905345003+902871183+900819550
725+897589641+893088930+889789901+887667497+885171684+884420859+886812991
712+890083586+893936525+898564088+902261819+905237237+908161757+910761566
698+912184906+911988618+910935625+909596015+909035586+909648641+910663383
685+912002521+914031140+916315820+918538920+921405630+923170176+921074714
671+913625369+903202806+903031260+912489509+917594871+919484934+922683188
658+924577100+921566179+918697584+921440583+929015209+935814268+936383180
644+933458267+930506256+928605275+929902627+931468215+930344529+930229380
631+930392678+926867278+924268962+926112683+928920404+928540082+923399060
617+917080156+914675456+919983311+931400586+937335870+934848618+929959652
604+919589715+913375434+924512063
##END=
