##TITLE=Sample description
##JCAMP-DX=4.24
##DATA TYPE=INFRARED SPECTRUM
##DATE=13/9/2023
##SAMPLING PROCEDURE=Instrument type and / or accessory
##ORIGIN=Default
##XUNITS=1/CM
##YUNITS=ABSORBANCE
##RESOLUTION=4
##FIRSTX=4397.6552
##LASTX=599.8556
##DELTAX=-1.9287962
##MAXY=1.8027748
##MINY=0.42654982
##XFACTOR=1
##YFACTOR=1.6789649e-009
##NPOINTS=1970
##FIRSTY=0.4427394
##XYDATA=(X++(Y..Y))
4398+263697835+264290982+264995674+264108402+262456619+261510185+260994659
4384+259615612+258169557+258835641+261369743+263017408+262115971+260582992
4371+260673821+261973506+263591084+264511851+263592166+261919456+261292210
4357+261490606+261338787+260413990+259389951+259525564+260708789+261045301
4344+259717180+258437304+258850392+260271596+261657495+262663269+262122095
4330+259386525+256196616+255020917+256009704+257389319+258321589+259092703
4317+259746592+259521996+257742783+255463435+255008669+257141648+259508062
4303+259617387+258406525+258434641+259691637+260223084+259486744+258296348
4290+257594798+257801324+258513169+259157208+259034623+258155285+257565457
4276+257182101+256240140+255922904+257648884+259683348+259443255+257814087
4263+256866801+256658695+257034329+257758457+257964841+258010726+258545670
4249+259373425+259989081+259380188+258052830+257618602+257223566+256143897
4236+255972304+256674404+256565842+256210355+257341038+259181242+260058822
4222+260067875+259509464+258580639+257861676+257649807+258394188+259689152
4209+259541806+257841920+256816496+256897384+257235849+257778870+258062291
4195+257647677+257357031+257986177+258520074+257608981+256261547+256512857
4182+258449711+260158260+260348722+259575035+258704465+257790124+256777250
4168+256358837+256909473+257578202+257686390+257845292+258318696+258020684
4155+256884072+256170807+256150057+256199953+256243211+256371777+256286575
4141+256382605+256787616+256716916+256595255+257238050+258362291+258957285
4128+258355812+257771894+258290987+258949474+258710305+257896573+257286953
4114+256929459+256823774+256629069+255468902+254415539+255019657+256339400
4101+256978202+256733992+256019484+255966073+257178285+258206478+257725672
4087+256635868+256315916+256880149+257462451+257379983+256807834+256407810
4074+256589291+256775120+256473789+256459144+256733761+256347317+255859038
4060+256122029+256527732+256798461+257298242+257473013+257077729+256900935
4047+257095710+257405171+257814424+258056948+257748677+256799438+255758287
4033+255623668+256332016+256454955+255965044+256513656+257917980+258248937
4020+257421075+257003283+257228643+257859244+258938061+259325819+258854190
4006+258765971+258962130+258845173+258413092+257754943+257140405+256693769
3993+256427460+256773735+257868456+258840682+259013820+259228351+260132824
3979+260787299+260822250+260622167+260257005+260109890+260023623+259821801
3966+260088110+260653638+261222948+261680731+261440639+260832208+260796068
3952+261142716+261158443+261130219+261391718+261286902+261017433+261520143
3939+262339324+262765814+262831543+262431236+262090180+262325124+262063341
3925+261295369+261353271+261657158+261097417+260903050+262691191+264882213
3912+265372941+264468984+262909397+260583684+258157593+257218631+258849611
3898+262543561+265107253+264018318+261230758+260915049+262050614+262325461
3885+262247342+261365270+260473614+261928384+262956258+261537804+259612878
3871+258846646+260578448+262731449+262679245+262604587+264030886+264679947
3858+262637709+257407709+254055241+259231990+265343671+267753822+266895235
3844+264485758+262174778+260561248+260468005+262091848+263898805+265639854
3831+267257165+267414523+266121636+264434140+262488517+262692185+265262569
3817+266463740+267265029+268935733+269687801+268340509+265969976+264516395
3804+262922496+262698167+265778041+268110872+269109989+270427123+271342459
3790+271529992+271647766+271938127+272561859+272896774+272468776+273088532
3777+275133575+276232929+275436663+274405453+275244657+277604095+280495567
3763+282199855+281479170+281138646+283230160+285050252+284831265+286176889
3750+294014212+303447421+315204053+335227586+354240836+365619313+369374484
3736+366261594+362759686+363249278+365550300+366779161+367491094+370379442
3723+375675917+382297922+390231896+398718014+405458983+410101675+417337489
3709+430383015+445707125+460531384+476135667+492784455+506047494+513482646
3696+516053722+514010401+508120103+502431025+499894135+497992285+493493868
3682+486771573+480376347+473597464+464580715+459156543+456669000+450705003
3669+445992729+444280418+440546973+435352172+430550614+424645548+416659210
3655+410076221+405021116+397350451+389103431+386057993+385321776+382936263
3642+378760691+374315312+370101754+365815526+361656569+356889340+350297297
3628+346350635+346719275+346124743+343066453+338935470+335971648+334426652
3615+332401684+329570422+326897991+325083579+324523056+323892952+321467145
3601+318181153+315846760+314042324+312308605+311529895+310798507+307928620
3588+304625587+304088246+304334232+303471597+302199567+301163724+300151488
3574+299138863+298045082+296007228+292853281+290776926+290837793+291224805
3561+290974027+290323119+289566756+288490815+286876362+285484374+284782789
3547+284270459+283865376+283854691+283732852+283047171+282299382+281756201
3534+281135274+280237990+278996526+277718514+276858631+276639839+276838413
3520+276790487+276330680+275985541+275662999+274760763+273703548+273242446
3507+273025109+272541553+272121542+272104236+272156191+272060960+272044009
3493+272050913+271636725+270877221+270367393+270281481+270498249+270639152
3480+270128206+269453389+269393233+269549756+269573772+269727224+269707131
3466+269075837+268424539+268659626+269340727+269282186+268774950+269007108
3453+269818763+269960607+269081092+268249360+268156561+268423297+268963282
3439+269591203+269754383+269692487+269854797+269894646+269478168+269064371
3426+268940863+268748680+268667081+269165033+269912947+270335034+270246868
3412+269990445+270019574+270272517+270688125+271375084+271990562+272099070
3399+271947429+272009448+272228986+272587029+273036984+273134789+273002282
3385+273124050+273651486+274452083+275066762+275321392+275349615+275084282
3372+274830557+275074679+275457058+275434338+275432545+275926344+276301073
3358+275869915+275137018+275146586+276082104+276990215+276912220+276125024
3345+275679276+275753029+275570537+275061810+275145095+275829977+275893026
3331+275109967+274392690+273920742+273059510+271608289+270398634+270022325
3318+269896883+269237845+267795660+266282756+265575988+265228861+264209579
3304+262341259+260297973+258888945+258464320+258811749+259775082+260881625
3291+261233669+261327675+262141833+263368209+264369546+264689728+264557824
3277+264828163+265291183+265457043+266063912+267211103+267927829+268244958
3264+268756099+269228686+269184630+268911664+268985612+269293191+269462850
3250+269654501+270034750+270128064+269988564+270197220+270520632+270773327
3237+271059145+271307597+271526193+271653837+271930779+272671006+273581638
3223+274260964+274941657+275938893+276957785+277698066+278015568+277941602
3210+277862328+278337170+279635311+281051918+281897210+282714315+284061590
3196+285250104+285850210+286420495+287155416+288302661+289559567+289885163
3183+289854082+290378944+291198232+292210237+293237720+293704591+293829962
3169+294309081+294851871+295294620+296348143+297627610+298246443+298876547
3156+300060890+300850464+301048594+301502898+301976551+301866604+301721193
3142+302036689+302623411+303307619+303633552+303389484+303128162+303034866
3129+302840179+302492520+302210998+302201306+302250368+301986881+301437151
3115+300871445+300468759+300364174+300241163+299513929+298330509+297157703
3102+296227014+295669544+295216500+294657398+294502827+295027689+295668213
3088+296103648+296365769+296295956+296115097+296378212+297050100+297376602
3075+297134805+297071081+297450213+297907836+298376802+298868524+299272594
3061+299615461+299914307+299994078+299759204+299240928+298555726+297930024
3047+297504334+297355159+297263780+296830741+296105778+295305075+294387325
3034+293280285+292135508+291248910+290901375+290956827+290656880+289716854
3020+288707725+287965083+287448315+287163936+286816276+285843039+284453998
3007+283556714+283479287+283832485+284280363+284763973+285247903+285995533
2993+287600277+289891589+292175837+294402626+296346474+297466525+298179311
2980+298893765+299297693+299414562+299144933+298132414+296825238+295764686
2966+294736707+293661120+292979646+292717632+292442785+292197439+292195398
2953+292159453+292053199+292283014+292675493+292829105+292809899+292398498
2939+291394286+290442136+289970152+289586122+289048640+288541421+288124748
2926+287667444+287381574+287680455+287877840+286885929+285423011+284849814
2912+285213272+285989888+286781397+287318862+287744073+288263130+288624014
2899+288760213+288958609+289078265+289139770+289586140+290271608+290803286
2885+291280204+291878322+292351956+292352577+292071393+291961394+292104249
2872+292229975+292090351+291899054+291948525+291933863+291672364+291459856
2858+291219977+290784666+290341846+289866756+289262550+288818097+288810589
2845+289017079+289088951+289089714+289291891+289867431+290639023+291309439
2831+292056873+293048713+293885734+294147091+293944843+293718561+293764570
2818+294124832+294593070+294928198+295162788+295453380+295856332+296323611
2804+296868230+297618504+298477518+299065802+299266737+299410835+299768541
2791+300216774+300593616+300991331+301349357+301400514+301154848+300858487
2777+300695006+300688509+300724401+300630501+300378232+300216490+300351110
2764+300634584+300768812+300677327+300562233+300663339+300950328+301188929
2750+301343961+301425258+301361108+301345310+301536021+301721655+301778953
2737+301809093+301775758+301669859+301694780+301889218+302006371+301831849
2723+301500875+301315703+301354895+301522424+301605709+301642381+302038464
2710+302656178+302889064+302666190+302433943+302509134+302720009+302754232
2696+302670840+302633245+302558764+302415980+302352966+302321867+302193709
2683+302128530+302159806+301894224+301262629+300764836+300555701+300361334
2669+300081445+299703823+299244975+298805048+298474962+298286807+298133692
2656+297994138+297943017+297903292+297848656+297821001+297765495+297683453
2642+297572442+297290193+296898814+296768952+296981850+297155662+297089205
2629+297061478+297260301+297442083+297387039+297261508+297397991+297735018
2615+297868679+297818480+298049981+298687399+299242170+299458725+299718698
2602+300168458+300554316+300844997+301338636+302168503+302961734+303538054
2588+304102553+304531723+304678199+304770750+305015208+305396381+305731438
2575+305924562+306083677+306273393+306459950+306548418+306509687+306474612
2561+306557258+306720562+306761281+306671890+306724147+306896397+306978795
2548+307065807+307319461+307629490+307788746+307808982+307928584+308185149
2534+308354949+308475581+308669806+308870386+309082183+309242328+309309353
2521+309504217+309881023+310157113+310238481+310379668+310627925+310805926
2507+310950060+311186318+311547290+311974827+312354827+312627332+312807960
2494+313003925+313277352+313541762+313786434+314149039+314749252+315460617
2480+315939027+316099419+316140671+316162362+316182669+316152813+315981628
2467+315796136+315837175+316102082+316337523+316308093+316025578+315758079
2453+315745547+315938423+316136340+316301845+316509205+316664167+316695691
2440+316885763+317426014+317939214+318099962+318081395+318061586+318171532
2426+318456248+318602334+318501619+318464946+318580146+318687252+318786868
2413+318951130+319116848+319223599+319357189+319580666+319770454+319870140
2399+320021551+320250851+320522255+320915071+321261808+321377967+321495013
2386+321452944+320574512+318643125+315971013+312991961+309982023+306851382
2372+303247835+299153241+295279142+292145022+289826942+288476402+288072952
2359+288932481+291631467+295804234+301125631+306836082+310028139+308865522
2345+305267087+302957864+302746528+303498968+304807032+306381316+307580818
2332+308450233+310098075+312757300+315298876+317181804+319069454+321549578
2318+324418684+327035698+329018952+330747630+332746575+334943828+336941601
2305+338628672+340312228+342111836+343663683+344766659+345738778+346903986
2291+348231717+349552383+350812663+352030803+353072646+353894383+354669757
2278+355341078+355890666+356585595+357458951+358371925+359268321+360078344
2264+360827837+361599696+362334670+362936125+363395009+363863549+364530325
2251+365381919+366279806+367018827+367497485+367838257+368215489+368749421
2237+369352722+369843486+370233498+370617688+370884157+371033083+371409250
2224+371966222+372394611+372759346+373122058+373448347+373794906+374161558
2210+374558741+375018513+375467989+375973805+376621624+377213351+377678625
2197+378121569+378574808+379138561+379915923+380770783+381470966+382141967
2183+383068752+384202116+385242858+386050644+386741561+387325053+387980966
2170+389091645+390361510+391301430+392220014+393434674+394540916+395336454
2156+396237429+397387337+398479023+399381276+400350129+401635969+403109360
2143+404489455+405690697+406865526+408246898+409856932+411468102+412878337
2129+414124025+415392931+416806752+418398361+420119938+421843823+423439230
2116+424906373+426532808+428550994+430703019+432654003+434509347+436571448
2102+438878079+441225216+443491909+445794990+448345476+451131261+453928620
2089+456685614+459547549+462607508+466013706+469865546+473797547+477459741
2075+481152218+485256682+489716509+494344113+498999692+503691197+508658970
2062+513986402+519561985+525351780+531252657+537123748+542967043+548830786
2048+554886304+561493435+568489335+575228777+581718080+588270823+594838512
2035+601371410+607910946+614480730+620906309+627064496+633101128+638957203
2021+644555328+650099138+655758538+661622139+667443920+672713876+677665958
2008+682800017+687507285+691255036+694909137+699026310+702805373+705696561
1994+708127515+710678321+713607423+716797528+719996366+722998884+725569357
1981+727636144+729554609+731128361+731688280+731825597+732205243+732438483
1967+732784261+733845665+734965929+735386401+735695116+736525268+737496642
1954+738236550+738796611+739177251+739603758+740548648+741483385+741962220
1940+743098672+744988382+746393433+747129437+748301461+750457710+752738639
1927+754542436+756077776+757817884+760215113+763120146+766955017+772113713
1913+777019076+780904002+785428228+790993622+796201381+801176112+806595740
1900+811841981+816544492+821604354+827055862+831820357+836352890+841502711
1886+846878815+852157717+857130460+861722279+865765114+868477945+870003487
1873+871486640+872952470+874116187+875795873+877875370+879499746+880503212
1859+880893934+880471261+879262671+877866352+876431267+874654876+872722282
1846+870269885+867300667+865634329+864999645+863388546+860391211+856999746
1832+853178863+848572204+844694733+842231472+840428740+838921872+836746665
1819+833536254+830279621+827547548+825090962+823207004+821680681+819590960
1805+817731711+816199850+813738648+811715669+811466453+810723776+807918288
1792+805753802+806931861+808847628+809180697+808378875+807216436+806405100
1778+806594107+806613703+805008995+803045160+803972441+806798804+808745102
1765+809348829+809218470+809817440+811266584+812213604+812894013+813182137
1751+812458631+812252300+813850334+815735073+816290661+816012832+817133238
1738+819017267+818759460+818221622+821168546+825429924+829820737+833689547
1724+835781468+836302763+835405018+833250898+833923852+839743858+846355106
1711+851153966+853258740+853180141+853905139+855740177+856183156+856860725
1697+859897821+865593787+873312661+879104124+882289472+883370117+881427867
1684+882139232+890719073+899267033+903895489+905698080+907959482+910756451
1670+913305126+919177105+926768674+931936885+935514587+939502537+943597700
1657+945614076+942269543+937153589+940948415+945736270+948661964+955510216
1643+963951887+968654327+968754866+965539129+964257479+969678242+975454724
1630+977497797+978291950+980435774+981895640+982437169+983956818+984473994
1616+984133186+986617747+989963061+992477585+995747566+999479910+1001474702
1603+1001929681+1003320532+1006043446+1007439693+1007804216+1010192215
1591+1012956522+1013761042+1014994057+1018111314+1021579674+1023524196
1580+1022725001+1019435281+1017121692+1018366067+1019393887+1019669303
1568+1021772088+1023878068+1024367057+1022648816+1015728711+1011093297
1557+1021608642+1034177427+1040761127+1043325209+1046871813+1049935890
1545+1047382244+1040308065+1035294922+1038679926+1047060181+1054304977
1533+1059252657+1061559429+1062199864+1061108995+1057589514+1052591991
1522+1047942234+1048072238+1053305913+1059299305+1063872024+1065468852
1510+1062292735+1056352097+1055380013+1061411533+1066620783+1068758572
1499+1068382618+1069135874+1072884975+1073741823+1068261631+1063096331
1487+1065386987+1070175410+1072005548+1070828554+1068099818+1064305206
1476+1059579406+1054575706+1052494648+1053705652+1053165045+1049535583
1464+1046051247+1042248043+1033704201+1021862118+1018473990+1022178999
1452+1021587271+1016102393+1007963827+1000544793+997343257+996168961+991587153
1439+980956856+967604781+959579037+955269947+949458248+944830005+941994979
1425+938189717+936194215+937994036+943135266+951825514+959675457+964439314
1412+968033418+972402505+976746954+979097464+981115118+984597182+989265470
1398+993922894+995780369+997671427+1004183344+1011036282+1013382674+1012902774
1385+1013578568+1015669708+1017278322+1017797628+1017717964+1018244797
1373+1022090317+1028903708+1034273208+1034700993+1030485554+1026089628
1362+1026134075+1029126298+1030085530+1028125387+1025835939+1025162133
1350+1025284540+1023472578+1020157794+1017574470+1014543054+1011410532
1339+1009378891+1004757109+997699189+993644781+993320090+993889879+995177210
1325+997821099+1000337610+1001440621+1002843756+1006762905+1012060268
1314+1015622492+1016149183+1016153585+1018364292+1022196962+1026084587
1302+1029008719+1029798897+1029196021+1029498062+1030354982+1031571382
1290+1035160871+1040119840+1043643155+1045793440+1049606371+1055816815
1279+1060769891+1063823246+1066603813+1067465134+1065896211+1064875704
1267+1064738032+1061930484+1057262977+1054130881+1051514612+1048819673
1256+1047197498+1046375441+1045766744+1043923966+1039373825+1034248144
1244+1031201676+1029188921+1027209608+1026317188+1026389681+1025765647
1233+1023723356+1021176384+1019140625+1018071908+1017538969+1016621699
1221+1015480205+1014519127+1013757350+1013865769+1015348284+1017415000
1209+1018802302+1019070120+1018637791+1017658820+1015797511+1013999749
1198+1013474763+1013151990+1012506940+1012432388+1011682184+1009004570
1186+1006549403+1006539889+1007475904+1006972999+1006438854+1007604488
1175+1007526528+1003471056+997842541+994353023+994582216+997005715+997834234
1161+995587812+992868591+992071526+991011613+986600919+981681570+979899996
1148+979353780+978114517+977287987+976321441+973930744+970986732+968238186
1134+965917852+964261810+962648865+960833353+959025153+956726901+953693426
1121+950401434+947391461+945475339+944284286+942141172+939685225+938400734
1107+937246460+934663348+930071955+924084101+919156515+917086675+915387960
1094+911969017+910975917+914940010+919083454+919935758+919809091+920378241
1080+920427019+918786880+916411520+916491965+919673336+922754311+924840766
1067+926678857+925733470+921846768+921737780+927549195+932956113+935299452
1053+935561306+934116422+933844841+935363709+935961117+935423137+935429669
1040+935463679+934330492+934194666+935295476+933843279+931078119+930907289
1026+931246038+929068773+926871555+927040894+927355787+926859201+927853437
1013+929736117+930135785+929514308+928054585+925937883+925687248+926782093
999+926813050+926738143+927662372+929432798+931049080+931267836+930896710
986+931468203+934422795+939823465+945385806+949693973+952153400+951767435
972+949866649+948817600+947138908+943121563+939780225+939687568+942226658
959+945560683+946873716+945716318+944881055+945193249+945640063+945102935
945+942025013+938269948+936700457+936060803+935464247+935607954+935221918
932+933741818+931778125+928159738+924436766+924212259+925519826+925528275
918+924815560+922825597+919121298+914883280+911586531+909881355+908865890
905+908155731+907614343+906499404+904869490+903222039+902842464+904198667
891+904554811+903531038+903852036+904364242+903506045+903274296+904321712
878+905355000+905913215+906662495+908428803+912135871+917047340+919950953
864+921680411+926569301+934176561+941051793+947105892+954720891+963119535
851+969567338+975700248+984619263+994796641+1002414693+1006632688+1009904729
837+1015196979+1022602452+1029551882+1034895822+1037376478+1036297891
826+1035738327+1037975093+1038837621+1036637279+1036226535+1037961744
814+1037345734+1037055621+1039883901+1041721353+1041003597+1036757698
802+1028149244+1020753427+1017881197+1017569642+1017573050+1017744448
791+1019737819+1020614690+1016691919+1010256329+1002961264+994841585+988103173
777+984523340+981808875+977521582+973662074+971553964+969471982+965686955
764+960101254+954832505+951955518+951501321+951706302+951052661+949951709
750+949234167+947704223+943750921+939888289+938899591+938480468+937312846
737+938051334+940351717+939896880+935587222+931185119+928819699+925554190
723+918914399+912637498+911086324+912053296+911757148+912305707+916204195
710+920644355+925010034+931337560+937277913+940407808+942342817+944748495
696+945155689+941543196+938937932+940890975+944386741+946206869+945815295
683+945906958+946843754+945490107+944698368+948736232+954203076+952716443
669+940815216+933174372+938421466+942692074+946206585+954110915+958063436
656+949604298+937551483+932985224+936743058+945419460+954427370+957192742
642+951509912+944602018+942367383+944761417+948161190+944656406+936711959
629+937464364+948382431+949809067+934751887+929903610+940024896+939641345
615+928488760+929413060+942072868+943476642+933064249+928509350+931311786
602+937320017+943871482
##END=
