##TITLE=Sample description
##JCAMP-DX=4.24
##DATA TYPE=INFRARED SPECTRUM
##DATE=13/9/2023
##SAMPLING PROCEDURE=Instrument type and / or accessory
##ORIGIN=Default
##XUNITS=1/CM
##YUNITS=ABSORBANCE
##RESOLUTION=4
##FIRSTX=4397.6552
##LASTX=599.8556
##DELTAX=-1.9287962
##MAXY=1.5566441
##MINY=0.212727
##XFACTOR=1
##YFACTOR=1.4497378e-009
##NPOINTS=1970
##FIRSTY=0.22898504
##XYDATA=(X++(Y..Y))
4398+157949282+158295329+158508814+157832868+157530947+158824437+160441444
4384+161045749+160390442+159590002+160266082+161395147+161255235+160766337
4371+161332509+162635579+163393641+163152949+162689911+162130133+160552955
4357+157668494+155029411+154332476+154484835+154322403+154997682+155929440
4344+155161501+153839559+153603647+152741248+150804949+150538890+151572837
4330+151061758+149625787+149421337+150193994+150713871+150627059+150256991
4317+149769378+149017514+148323755+147588831+146734809+146929330+148074080
4303+148842533+149277818+149636764+149469173+149647649+151050205+151961201
4290+151238281+150134533+150058389+151379991+152729150+152503999+150833780
4276+149110874+148488962+148705428+148887347+148756121+148728482+149163757
4263+149733383+149934657+149438800+148441948+147865528+148281654+149119015
4249+149366676+149059718+149092434+149453683+149466233+149089731+148914822
4236+149439951+150129229+150109186+149976305+150734983+151933767+152948340
4222+153622456+153559192+153132109+153006896+153014595+153169287+154246764
4209+156025071+156598027+155622770+154586315+154010923+153794714+153884086
4195+153944678+153801128+153973242+154500468+154517428+153769707+152620116
4182+151788491+152048455+153306402+154277157+153968976+153459429+153725920
4168+154547698+155619255+155691040+154376571+153513936+153446046+153023620
4155+152688036+153014328+153898435+155466557+156924360+157240465+157196617
4141+158034245+158764544+158002926+156641608+155940592+156223765+157042511
4128+157432263+157377098+157567918+158297385+159325381+159975590+160317978
4114+161314542+162870443+163577277+162735558+161675010+162052098+163282694
4101+163963163+164487666+165628212+166755365+167452639+168228935+169141369
4087+169796317+169989913+170039579+170279880+170668912+171336173+172102149
4074+172588405+172561249+172222634+172710103+173971483+174625567+174359497
4060+173845982+173813194+174412288+175318668+176163707+176343766+175808419
4047+175590720+176052884+176652964+177424470+177937554+177532086+176641268
4033+175908717+175842421+176189383+176247045+176351002+176858124+177212733
4020+177180376+177269573+177683510+178425763+179201606+179269280+179282642
4006+180160942+180697172+179944476+179043379+178999140+179376958+179510620
3993+179651990+180487367+182003860+183663060+184804572+184820751+183979248
3979+182976661+182287547+182409964+183136512+183970655+184840568+185293912
3966+184985022+184622930+185241266+186103181+185994928+185853290+185975748
3952+185005435+183582518+184033375+185041554+184282876+184576266+187202531
3939+189076696+188679513+185804385+183137910+184557764+187182220+186661346
3925+185587261+186939524+187499375+185929721+186371821+190644006+194783249
3912+195984726+194510128+189189348+180283585+173852910+174049518+179684306
3898+188498323+193732887+190811217+186706633+189270919+190457924+186907537
3885+186530932+186710292+186659085+191618184+193482255+189142293+183938175
3871+180380450+183192078+187585858+187330581+189730985+196098386+197830091
3858+190723582+175343419+167465323+182960153+199507586+205556024+202535762
3844+194630510+186643133+180980613+181316515+188131277+194250883+198196335
3831+202222493+204493656+204151094+199755258+189625034+185926267+192624328
3817+197752200+204901035+213658829+215292641+209095535+203174531+201960206
3804+197799440+196018501+203968547+210665662+216017482+223126088+227286813
3790+228227297+227796360+226854436+227594099+227874867+226599015+229827396
3777+236825404+240135540+237614466+234398974+236406040+241225763+246267542
3763+249491462+248222763+248642867+254487728+256967832+251965687+252668286
3750+274400452+300989302+327803066+367126553+400031801+413032363+412290788
3736+408167004+413337265+427144239+439302496+444468111+445946327+450186300
3723+459139344+471655747+484839925+494482864+497898005+498887292+508928874
3709+529818160+551053298+565596296+574992880+588074354+605839710+621039670
3696+631553611+636688596+636708413+641317220+659102023+679977659+693878990
3682+699843081+699919389+695727561+695157720+708282734+721858359+728917977
3669+741472903+759089138+772362246+779467829+782558128+781971923+780564917
3655+783648638+782426481+770015947+765932743+785418928+808499143+822362320
3642+829537962+836167690+843364218+848365500+853124702+857164572+853716252
3628+851107481+857478108+863944532+866463427+865854857+869884860+881247066
3615+889848791+892417599+895343524+902277004+914446363+928164571+934354955
3601+930948406+926349466+927468592+935848136+946599305+948587418+940108789
3588+937203585+949720029+965076469+976256458+983435060+982944651+977956444
3574+976510132+977452549+975472906+971248434+973629679+985893189+998744466
3561+1004618847+1007462379+1011451021+1010434763+1001524436+990771869+986218731
3547+992823133+1005150781+1014786772+1021174256+1024470290+1022941586
3535+1014744260+1004527080+1001524436+1005493261+1009453206+1010987254
3524+1011894560+1015570406+1021812100+1026782053+1028910858+1027994096
3512+1024867452+1020313820+1015816186+1014954599+1018046296+1021140296
3501+1022148907+1023790674+1027774054+1032873927+1036945044+1037324363
3489+1034272382+1029207866+1022088633+1016423688+1018242986+1024345879
3478+1022666533+1012835250+1007564753+1012536022+1020380179+1022764056
3466+1022142164+1022449204+1021782827+1021088903+1022435143+1023299197
3454+1022356039+1021157235+1017574224+1011272997+1007766048+1006150922
3443+1004604128+1008207449+1014677408+1016853330+1014419129+1009344253
3431+1003951401+1002072898+1006106930+1011428573+1010463872+1005071019
3420+1000743186+999823382+1002517177+1003895321+1001903426+999986276+997676733
3406+994174306+993471420+995254127+993990444+993820890+999591581+1002089261
3393+996756682+991340641+989215125+989067443+989942351+989144656+985507950
3379+982040799+981574319+983430867+984865419+985182656+983948328+980879162
3366+978634004+977571945+977431992+979506938+979064879+971750437+964673798
3352+964428676+966885900+967176412+967615100+971693699+976871525+977121252
3339+971660315+966194855+962706242+957159870+953085793+955524269+957957894
3325+953678740+943623879+936228030+938709348+942582788+938633944+932359852
3312+930562509+933373150+937070458+938881369+938596530+937309331+934509379
3298+928628009+925224914+928497348+933447238+937066922+939775354+941224625
3285+940431534+936682094+932638030+931199037+931496703+931899375+934443021
3271+938283323+937709453+933467959+931386682+933973169+937332190+934368358
3258+927482324+927540624+936278518+943420857+942243679+935487483+928745513
3244+927128660+932369144+938569066+937137556+930502482+927106212+927430191
3231+926489008+924065168+922689244+918018930+911757419+914819678+923431517
3217+924522932+919078687+916368857+918764657+921559429+923453061+925710882
3204+924591346+919033297+913941975+913863858+919579292+925193174+924903073
3190+920176926+914394641+909958102+907687453+905379720+902078916+900100178
3177+899605657+899458058+900528257+900087350+895380527+890375874+887303500
3163+885694048+887196357+888831546+885214822+880130490+879558264+880982127
3150+880258355+878750701+878038852+875416431+868649792+861833241+860366373
3136+862364764+862405303+860102503+858113239+856550574+854945974+854822385
3123+855695566+854701016+850760231+844647060+838876040+835326661+833304999
3109+831989019+830018092+826400710+822751259+820964770+820287950+818141383
3096+814933498+813136812+811923700+809166014+805436719+802847025+800545294
3082+795836498+790947786+789633205+790573237+790357553+787366996+782433470
3069+778444006+777332774+777587353+776558925+772775360+766502255+760922827
3055+757733771+754297620+750062623+747680884+747279281+747022894+745987723
3042+743192870+738064134+732040181+727414106+724153759+720270615+716705860
3028+715832185+716390350+715368089+712285191+709243982+707080394+704677029
3015+703000808+704046586+705667796+704965321+704794698+708145496+711899294
3001+713811510+717572051+725075208+733507707+741847535+750002432+755620754
2988+758040729+758202965+755679054+749831068+741589914+733872224+729406741
2974+727954674+727626008+727479888+727412708+727807156+729451967+732445730
2961+735438918+736253388+735020541+735138949+737555718+738640143+736531812
2947+733341688+730474967+726901989+721549675+715345477+710313935+707212781
2934+704492673+700554355+696591944+694010061+692020222+689036326+683713450
2920+677251631+672266465+668215700+663129024+657195110+651632045+647232879
2907+644356990+642305479+640425373+639787077+640732906+642438853+645282838
2893+648776713+650944412+651653712+652558510+654738831+658107062+662056358
2880+665632338+667737749+668238683+666928295+662243920+653444971+641637910
2866+629266558+618358415+607817503+596326815+585110481+574736780+564321348
2853+553792113+543755671+534285904+525594304+518478484+513042872+508681202
2839+504828730+501196095+497826097+494721037+492261469+491045603+490555276
2826+489828379+488781738+487958757+487768892+487769427+487171299+485781848
2812+483594044+480661500+477341784+473948022+470561742+467102115+463507305
2799+459808764+456013523+452186377+448673877+445755846+443117966+440242817
2785+436998874+433755713+430963614+428656209+426698685+424917788+423018276
2772+420842847+418593043+416730041+415397903+414299170+413265151+412280715
2758+411162453+409761491+408162399+406652896+405625413+404818467+403406363
2745+401513018+400056510+399092426+397898473+396451545+395274120+394339309
2731+393512422+392843249+392021297+390867224+389720388+388789483+387976493
2718+387122348+386033564+384853343+383945750+383089796+381781874+379932851
2704+377937543+376387254+375230920+373842909+371987636+369903562+367719089
2691+365369295+363257059+361773170+360507390+359013387+357315292+355797114
2677+354580013+353208612+351680977+350399533+349350918+348280924+346984433
2664+345485372+344164458+343270741+342447123+341441843+340609940+340211668
2650+340085735+339952608+339628752+339153124+338785482+338716410+338903356
2637+339229966+339613499+340003487+340315913+340492847+340601779+340833190
2623+341310853+341971536+342861574+343926017+344732799+345140425+345562008
2610+346237965+346937151+347320088+347145805+346598371+346071494+345575329
2596+345073573+344498942+343667739+342712473+341695023+340405212+338835251
2583+337214081+335718741+334139364+332286147+330588135+329331791+328242514
2569+327145714+326089123+325078477+323993579+322802607+321685208+320748218
2556+319932617+319265932+318777928+318231728+317669410+317353222+317091326
2542+316879485+316936079+317003259+316891388+316802931+316876772+317194296
2529+317841699+318621222+319272551+319872879+320507392+320982178+321306445
2515+321928192+322987003+323963915+324510774+324929110+325522057+326159490
2502+326637050+326920018+327031252+326915598+326535293+325973675+325356182
2488+324949029+324869165+324746419+324377831+323931970+323328785+322447628
2475+321531400+320840519+320352474+319940799+319599696+319284680+318909000
2461+318574969+318225314+317560910+316718400+316162949+315909193+315555098
2448+314934090+314378228+314194365+314219774+314257270+314304921+314218623
2434+313905498+313550930+313250222+313005202+312920733+313042246+313353767
2421+313703340+313827176+313753787+313693308+313735984+314023680+314628037
2407+315231756+315565746+315743544+315869436+316063987+316526233+317073420
2394+317353592+317364488+317239624+316949523+316215267+314585833+311799696
2380+308020181+303600088+298700378+293407104+287833760+282089650+276609450
2367+271895309+268344141+266208552+265455856+266588590+270295724+276242096
2353+283871781+291479387+295310624+293392200+288238508+284967245+284839175
2340+285779392+286831913+287997908+289231989+290461793+292280557+295235221
2326+298568032+301517268+304488028+307857287+311108465+313461034+314944163
2313+316462033+318509350+320759730+323046084+325436684+327601176+329296433
2299+330782789+332220528+333521666+334618384+335502974+336377800+337453756
2286+338543176+339391277+339955054+340160871+340159432+340402972+340913958
2272+341308859+341508961+341703821+341969028+342259663+342556980+342846814
2259+342990076+342887887+342744871+342815485+343045765+343127500+342945261
2245+342888914+343100529+343239433+343325320+343457563+343495183+343484185
2232+343555271+343692119+343830838+344061899+344349328+344468127+344515162
2218+344704471+345041792+345434185+345794714+346208404+346697251+347063701
2205+347390187+347890834+348474613+349135234+349879317+350436906+350769560
2191+351131117+351586291+352054046+352514318+352869914+353078650+353379194
2178+353929506+354515300+354893097+355305841+356098274+356945595+357455204
2164+357894343+358544645+359286877+360081777+361019096+361922126+362611856
2151+363301545+364233272+365344175+366350812+367053205+367682251+368543961
2137+369581845+370638189+371606426+372425747+373191456+374082357+375150666
2124+376289238+377516864+378898132+380243714+381447905+382704187+384166039
2110+385664360+386933469+388155709+389675985+391498408+393565871+395842974
2097+398197701+400526938+402914556+405530851+408361556+411356594+414484841
2083+417717971+421205432+425026699+429029443+433083169+437302378+441820446
2070+446431885+450848730+455309403+460361872+465882959+471576849+477504431
2056+483329105+489000259+495004560+501205017+507270989+513278621+519106707
2043+524838011+531136524+537851154+544109088+549876284+555629131+561360353
2029+566812122+572032007+577112064+582084443+586935288+591406610+595690081
2016+600341934+605118117+609247204+612670569+615988311+619181519+621903847
2002+624472696+626964744+629009307+630397976+630952276+631640074+633657789
1989+636144821+638324484+640286490+641554037+642089877+642498140+642933374
1975+643399319+644016319+644043289+642667735+641129246+641166331+641988202
1962+642114504+641772970+641160411+640060033+639056438+638448361+637672785
1948+636281197+634354015+632483077+632490766+634945688+637396334+639085013
1935+641043523+643113453+645150163+647666427+650243129+651969962+654298911
1921+658336848+662558607+668005895+675968542+683943524+690512239+696960737
1908+704151755+711544397+719014745+726906429+734827140+741617460+747310775
1894+753348543+758863258+763186075+768718551+774959340+779591253+783291932
1881+786821412+789729000+791682660+792304633+790425309+784765050+778960152
1867+779321052+782916067+783330497+780047126+775615274+771301091+766952207
1854+762280414+756876049+750349435+741909288+730939228+722766487+722143938
1840+722243927+718578606+713743425+708617403+700597525+691215208+686268484
1827+684529071+683429351+684103170+684301258+682668864+680902356+678578752
1813+674256305+670216476+669608399+670591272+669743088+666145482+661916200
1800+660702923+661922243+660616789+655357681+653633232+659903048+665748197
1786+666936435+666272813+665141106+664784771+666234864+665582589+659588855
1773+653468817+656001239+664163578+671160579+673597822+672081740+672493744
1759+675354586+677520764+679425250+677787882+671832588+670104440+676029597
1746+682881054+686383439+687478020+690220987+693758937+691259282+688390054
1732+697898385+711597681+722659591+730201805+734355808+736144189+732669966
1719+724786011+726113585+741405147+757705238+767774654+770569425+769508928
1705+770523213+771072743+767286383+769287899+781338931+800140978+821350585
1692+834800647+841561365+844448890+842087872+848157051+871886622+894449457
1678+907361665+913282916+918741633+922875162+925264301+935706786+949587313
1665+955954322+960123620+969113461+976331451+973256446+957453753+948876615
1651+964906915+974917208+977222146+989526359+1005225033+1012777773+1010760140
1638+999495538+992011788+1002734013+1015066841+1017699047+1015619167+1014090463
1624+1013437243+1016057855+1017921063+1011868411+1006186938+1011676984
1612+1017817455+1017425063+1015080326+1015209836+1015686677+1014922695
1601+1014628318+1015183523+1015875226+1017082335+1018738000+1018762750
1589+1016434460+1013936121+1012324120+1011043416+1008780250+1002059001
1578+989509831+981689274+985450226+987500668+986228269+991543745+1001051624
1564+1008841592+1009280197+994501246+984389400+1002101349+1018481119+1023838860
1551+1023095106+1020742312+1015161321+1001873659+983596310+972157713+987148320
1537+1012850956+1024821405+1031196719+1043371258+1051288598+1048119853
1526+1040927519+1032180168+1022938544+1022182209+1026669318+1032228107
1514+1038468650+1038586812+1027937935+1009444818+1005375099+1026393278
1503+1041994759+1042587295+1036412946+1036480537+1043870794+1046112170
1491+1040613243+1039192587+1048239413+1058340075+1064159198+1067592718
1479+1068258766+1063427532+1054427247+1047297900+1050998250+1061584552
1468+1064560719+1058259409+1053552422+1050811428+1039304911+1021003304
1456+1016946495+1027638131+1033900793+1031383295+1024289388+1019762563
1445+1018269299+1014514514+1005659527+990995118+975748206+970285131+968613843
1431+961612525+954629051+952750795+952396556+952684601+951635123+948423537
1418+955069465+972576008+987521225+993688091+993948508+993567134+995332408
1404+1001401752+1008203255+1009836471+1009611166+1013226903+1021463124
1393+1031325900+1036623697+1036066683+1034530496+1035508765+1038083247
1381+1041164336+1044132444+1045392838+1046554804+1052805625+1061318215
1369+1065235236+1064961663+1062025542+1057241095+1055457731+1058678608
1358+1062873890+1065080976+1065141743+1063186521+1058733043+1053814647
1346+1051839773+1051196585+1046774600+1038648401+1032502092+1030508881
1335+1030096013+1030025297+1029924978+1029588418+1029937806+1030822170
1323+1031753404+1033738803+1036656917+1038501130+1039552335+1042318984
1312+1046277777+1049272363+1051108683+1052421455+1054675988+1058319929
1300+1061361549+1062461844+1061459401+1059075688+1057770645+1058575823
1288+1060277453+1063214726+1067688678+1071747461+1073741823+1073299847
1277+1070922630+1067535898+1063948119+1060184700+1055365717+1049431475
1265+1042770828+1035183306+1027694621+1022249143+1019030814+1017085542
1254+1015350117+1012743319+1010494543+1010769432+1012181783+1012026701
1242+1010710474+1009972394+1009623007+1008793900+1008507088+1009839925
1231+1011390255+1011646231+1010894172+1009617826+1008291568+1007798035
1219+1008473457+1009721352+1010931750+1012409391+1013852495+1013568068
1207+1012018478+1011785443+1012998309+1013828978+1013841970+1014108718
1196+1014801162+1014715562+1013856031+1012481176+1009959813+1007584817
1184+1007342326+1007972770+1006504503+1003043684+999710318+997953760+998331352
1171+998244930+995450488+992277878+990353574+988283809+985483282+983418943
1157+982249494+979997265+976444761+972891435+969583889+966079324+962147995
1144+958691698+956357980+953788926+950346608+946948528+943734393+940558495
1130+937483737+934822997+932851495+930703695+928014093+925069667+921132171
1117+915758642+909974548+905329972+901974404+898928015+895869620+892592005
1103+890267744+890758235+892070021+891987053+891553792+890924829+890306555
1090+891142076+892536255+892267780+891539238+893259287+896483536+898483901
1076+898966744+899342363+900872547+903065901+904881170+906768554+909277664
1063+911096551+911270382+911699695+913323043+915281061+918135776+921548821
1049+923364748+923101536+922763660+924168035+926184846+926899902+927188029
1036+927608215+926018498+923049814+921860219+921231420+919161984+917576625
1022+917058505+916360223+915332947+913257261+910315055+908719253+908863892
1009+909178086+909063542+908991428+908991510+908671313+908358106+908977367
995+911425957+915139546+917632046+917712877+916977675+918024768+921696338
982+926345026+930600252+933921777+936033478+937382514+938903488+941443845
968+944394357+946612955+947962237+948990418+950323748+951458168+951830991
955+952356758+953923615+955251847+954563186+953744111+955189271+957333289
941+958106891+957575369+956858010+957065554+957833154+957932157+957378185
928+956690265+955623765+954118085+952565453+951202767+950229186+949755140
914+949253548+948055155+946294321+944524771+943375221+942878316+942315793
901+941382750+939690412+937317636+935598491+935088265+934741509+933058956
887+930150875+927837796+927277905+928139245+928707359+927709849+926259180
874+925742293+925771320+925323752+924327887+923840109+924746181+926443289
860+928633601+932590585+938245581+944210412+950339783+957447257+965783467
847+974230356+983006569+994596548+1007665812+1016600478+1020975757+1025034869
833+1028393479+1029837981+1031675287+1034694377+1038930032+1043434656
822+1044587824+1043182380+1043636937+1045451302+1045150018+1043130905
810+1042458690+1042725356+1040612421+1036918731+1035380571+1035603245
799+1034384130+1031158401+1027352552+1023790592+1020048306+1014188397
787+1006298357+999269822+993470022+987385302+980449684+972939867+967192036
773+964067776+959448280+951935996+946329844+943639173+939722316+935146565
760+933770230+935836871+940462699+944048012+940196115+933399792+931476311
746+930016596+925635972+923165509+923523777+922834623+919657080+915824260
733+913197152+911842525+910745355+910077169+908834454+903977976+897438040
719+894505455+895022259+895903005+897992423+902178741+906448275+908993237
706+908646974+908379157+911953204+916349287+918169079+918647729+919108207
692+919166095+918549220+919369446+922646321+924667982+923424692+921543147
679+921838100+924167213+925457455+924020189+918156004+910902493+917910224
665+933171773+938164339+934848735+930711342+929239047+928677099+928306250
652+927229719+923331775+919797525+922154596+929316341+932828142+930074403
638+926495586+925162009+926802379+929058227+929723288+928940147+924742810
625+918490426+916669730+920107361+920810823+917162441+918706275+926502986
611+932147210+934630172+937921602+943156329+949682615+953636639+953071485
##END=
