##TITLE=Sample description
##JCAMP-DX=4.24
##DATA TYPE=INFRARED SPECTRUM
##DATE=13/9/2023
##SAMPLING PROCEDURE=Instrument type and / or accessory
##ORIGIN=Default
##XUNITS=1/CM
##YUNITS=ABSORBANCE
##RESOLUTION=4
##FIRSTX=4397.6552
##LASTX=599.8556
##DELTAX=-1.9287962
##MAXY=1.8636105
##MINY=0.47645986
##XFACTOR=1
##YFACTOR=1.7356225e-009
##NPOINTS=1970
##FIRSTY=0.49600506
##XYDATA=(X++(Y..Y))
4398+285779337+286053008+287450622+287943652+287477392+287111616+286967706
4384+286835112+286758495+286844762+287093947+288037217+289475354+289952123
4371+290182386+290983000+290429133+288462645+287446724+287602414+287762241
4357+287996401+288358932+288619210+288704240+288461546+288680716+289258554
4344+288425899+286327967+284728234+284130495+284479272+285514424+286231157
4330+286786827+287931684+288776977+288417691+287324862+286186032+285412480
4317+285344671+285626396+285303787+283983031+282777594+283463540+285199457
4303+286025432+286454156+286593293+285745888+285274734+285954550+286096056
4290+285002694+284198853+284325746+284688758+285109910+285455218+285210257
4276+284322106+283124757+281930825+281454571+282369475+283854077+284534717
4263+284455851+284238277+284294684+285040299+285645696+284924566+283632296
4249+282827201+282491200+282388260+282124685+281931065+282175820+282046884
4236+281654836+282329277+283606763+283824251+282934846+282238683+282228449
4222+282513505+282754877+282464894+281962677+281518670+280266907+279766081
4209+281789800+283994278+284222806+282791829+281179338+281333739+282874662
4195+283421832+282230836+280794948+280736327+282339443+284116054+284363917
4182+283835481+283564076+282741175+281630161+281680386+283028874+284191418
4168+283838812+282843153+282618711+282958525+283039898+282633083+282424559
4155+282991407+283537633+282756457+280970384+280034600+280637988+281851615
4141+282684905+282735405+282275721+281836951+281868203+282053632+281372047
4128+280024916+279437738+279920087+280249100+279941791+280050226+281093311
4114+282035225+281651350+280419848+280190169+281265484+282259786+282541476
4101+282166050+281621559+281356181+281009706+281085584+281976053+282574513
4087+282524546+282156692+281814148+282049099+282184406+281387965+280735640
4074+281107477+281155333+280011557+279255365+279729026+280269929+280416792
4060+280629059+280757979+280735794+281206742+282130541+282481326+281994495
4047+281534880+281700562+282208583+282534419+282633993+282739372+282761316
4033+282620686+282511564+282404418+281862931+280884941+280648308+281600765
4020+282355738+282198057+282313102+283455573+284307133+284171499+284311116
4006+285043561+285643223+285705657+285105411+284526234+284491068+284461706
3993+284408854+284653506+284816922+285055478+285632131+285973799+286028145
3979+286100366+285849223+285248239+285011297+285357567+285849893+286332346
3966+286523888+286023732+285864557+286779186+287155470+286418853+286016846
3952+286092673+285730005+285386586+285597256+285796680+286500518+288028580
3939+289035984+288523464+286498080+284557039+284912427+286763955+287190362
3925+286326885+286863512+287879004+287593828+288032924+290120227+291118238
3912+290246880+288999821+286898953+283230427+280411469+280821821+283806135
3898+287441779+288930863+286886127+284621465+285796165+286642711+285321113
3885+285194048+285330420+285010147+286475019+286985306+285611028+284372211
3871+282860976+283039039+284665817+284757304+285764296+288657123+289601733
3858+286692987+279636165+274518134+281227502+290254607+294307506+293319660
3844+289469894+285613260+282905552+282277627+284475134+287186979+289513989
3831+291784300+292905736+292566953+290191349+284966481+282578995+285603077
3817+288232657+291531372+295764119+297231756+294872946+291762424+290994264
3804+289340837+288182346+291404959+294454833+296606424+299166547+300530231
3790+300928769+301350522+301347706+300964279+300357491+299840130+301218718
3777+303746663+304654801+303436520+302087706+302675778+304309184+306708037
3763+308609344+307592376+307086004+309864507+311253811+308517926+307146618
3750+314715719+324785393+336189287+356010356+375855807+388163237+393095942
3736+392740984+393671753+398165190+402404359+403390110+402858531+404778933
3723+410309462+418811496+428330875+435860586+439594310+442435385+451493312
3709+466631891+482465655+496229801+508472737+522936017+537470900+546572819
3696+550637496+550464791+545311714+539360153+538742513+540881226+540562086
3682+536005666+527839187+517256066+507572532+505787610+505349853+498843566
3669+494557246+494846062+492562700+486713993+480494187+474709562+467758307
3655+459963648+449656430+434832526+423929544+425160565+429600806+429684635
3642+425272416+419152992+413370530+408361209+403606121+397476325+389572184
3628+386508540+388417333+387330995+381408899+374070233+370560589+369551314
3615+366953484+364455073+363207259+361461692+360398535+360226001+358421709
3601+355282238+352526641+349988016+348135268+347662277+346112837+341620293
3588+338199080+339019681+340287414+340033043+338969061+337347572+335700395
3574+334729720+332996586+328824452+324290732+323470028+325337990+326277448
3561+325869672+325227065+324607262+323430260+321941950+320912756+319748392
3547+318236282+317342362+317308260+317379520+316805735+315971912+315617366
3534+315487588+314742780+312993024+311226921+310376889+309963584+309517791
3520+309104898+308916636+309002868+308682252+307474171+306229688+305768201
3507+305445833+304716307+304383259+304592470+304480035+304213369+304364096
3493+304534947+304120646+303307429+302483360+301654105+301018058+300759292
3480+300596854+300537889+300592561+300465702+300529132+300742361+300535829
3466+300420749+300547093+300456052+300337401+300003013+299174651+298621231
3453+298866158+298853966+297975156+297466792+297661717+297791221+298124647
3439+298699119+298858740+298671302+298628477+298638230+298427130+298408277
3426+298590529+298233888+297745683+298077083+298843389+299233617+299183306
3412+299002358+298930480+299119120+299496332+299786213+299915853+299911492
3399+299855721+299965512+300049890+300059952+300360994+300759257+300989039
3385+301118440+301067820+300824610+300823854+301504821+302289912+302350731
3372+302103538+302447644+303265326+303658404+303247537+302209071+301131215
3358+301035401+301965758+302770630+302930183+302830969+302535422+302103538
3345+301866201+301745970+301642669+301361718+300740678+300313258+300201063
3331+299932097+299588060+299202777+298093361+296401368+295488147+295520532
3318+295225946+294047537+292498097+291187506+290382531+290088427+289876983
3304+288931035+286887964+284524397+283306632+283830467+285202685+286140821
3291+286300030+286571074+287564449+288719900+289556745+290101992+290487926
3277+291099385+291970056+292768540+293366536+293537868+293549476+294025524
3264+294786370+295317056+295435810+295715903+296593958+296926388+296232818
3250+295777409+295868312+295911240+296080511+296668480+297373073+297934667
3237+298433621+298949197+299525832+300036978+300311370+300650840+301164939
3223+301315940+301098384+301328028+302291869+303490712+304374468+304424229
3210+303995745+304484293+305962679+306971851+307074637+307315477+308452298
3196+309782602+310402371+310793251+311470611+311933609+312236780+313085335
3183+313956212+314077748+314321507+315177892+315693743+315750304+316161926
3169+317066562+318026556+318800830+319450339+320075293+320575827+320874499
3156+321218399+321913926+322821584+323418825+323674088+323933336+324288740
3142+324884779+325537585+325744942+325512550+325142996+324773855+324372878
3129+324285340+324846488+325326931+325099828+324561141+323958955+323107687
3115+322124958+321603956+321766497+321814575+321103251+320126429+319473348
3102+318986139+318376329+317647421+316953714+316691616+317018895+317381786
3088+317493020+317823698+318471525+319008152+319456932+319897539+320049503
3075+320152872+320658351+321122070+320950223+320636818+320809181+321176914
3061+321480531+321718143+321628202+321395157+321605673+321930479+321588914
3047+320922269+320610547+320536231+320285638+319469639+318291333+317407543
3034+316757862+316122193+315713901+315441604+315036713+314349393+313375902
3020+312561861+312179601+311913176+311632911+311274656+310377027+309160978
3007+308616281+308847540+309301540+309729715+309912208+310062145+310895178
2993+312834055+315784989+319078553+321773502+323482941+324473328+324978498
2980+325188362+325321437+325361033+325245644+324774473+323904179+323070563
2966+322390799+321694825+321020281+320285191+319484646+318970960+318751549
2953+318531451+318547111+319029238+319568544+319772981+319608930+319211147
2939+318839602+318474616+317743270+316712428+315970573+315739211+315637971
2926+315370173+314888939+314229368+313684602+313327926+312854008+312291624
2912+312018777+312359621+313131113+313676085+313976131+314604931+315298639
2899+315369692+315193896+315501325+315989152+316119823+316164639+316447102
2885+316867791+317355996+317838259+318032051+317862402+317750756+317904642
2872+318043762+317948119+317695569+317494325+317250154+316921810+316867172
2858+317058354+317034933+316640035+316208391+315959652+315553937+314899448
2845+314352862+314004360+314095228+314924037+315935785+316473511+316811367
2831+317422722+318140846+318708106+319270387+319797089+319956745+319746332
2818+319594781+319697772+319814295+320001699+320526821+321254321+321967500
2804+322567351+323083235+323828593+324740989+325206494+325188121+325332598
2791+325819876+326083072+325863936+325721383+325968851+326271197+326407810
2777+326364333+326116109+325791200+325648818+325786289+325982691+325965863
2764+325852398+325897248+326097187+326424672+326696557+326638278+326480271
2750+326560700+326796904+327003814+327095747+327089291+327093962+327101826
2737+327109416+327317528+327673516+327794159+327620870+327519939+327761947
2723+328084005+328059348+327911712+327951205+327956253+327964770+328104611
2710+328127688+328044924+327978129+327919405+328057253+328380788+328617027
2696+328772355+328840146+328697936+328506480+328365266+328285524+328339750
2683+328334908+328185452+328094686+328010479+327718058+327306023+326937225
2669+326557369+326180603+325851882+325523402+325219750+324982894+324854421
2656+324841611+324865410+324817160+324666399+324544347+324407151+324089111
2642+323868223+324072352+324420819+324464811+324245401+324025406+323843154
2629+323816676+324039830+324162396+323998001+323893739+324168440+324650842
2615+324966238+325160407+325406021+325658469+325992959+326431128+326749375
2602+326936023+327190256+327534500+327976481+328516783+329016836+329472553
2588+329932357+330361323+330752580+331067668+331290650+331456968+331554224
2575+331664702+331956609+332375100+332713471+332902523+332986729+332979380
2561+332974023+333116645+333175851+332885146+332595540+332721987+333000981
2548+333033881+333072756+333306968+333459172+333672332+334202262+334791776
2534+335178844+335277646+335191173+335254499+335463264+335533768+335494138
2521+335513300+335754587+336231287+336610491+336735633+336806583+336982861
2507+337245679+337512860+337782032+338120163+338678150+339459327+340030845
2494+340124187+340134317+340381167+340751270+341189302+341601955+341898085
2480+342226463+342553707+342694097+342661335+342602610+342657866+342795097
2467+342789155+342525409+342226875+342130237+342233675+342388488+342437082
2453+342495463+342781394+343256618+343669065+343814640+343858014+344016330
2440+344307893+344763164+345199616+345416795+345502718+345418752+345140205
2426+344958158+345078114+345469166+345899986+345972962+345725185+345709045
2413+346106106+346584901+346911356+347041512+346971008+346897413+347122456
2399+347575769+347951127+348160613+348306703+348557228+348908511+348990966
2386+348445170+347208002+345189211+342232919+338479620+334245877+329754054
2372+325177475+320758114+316749105+313179707+310102943+307935486+307180788
2359+308090952+310907335+315730866+322364974+329260080+332989168+331722328
2345+327541643+324403786+323422637+323962423+325558396+327321374+328708548
2332+329927275+331652099+334071488+336727528+339411351+342108876+344868285
2318+347776052+350513173+352839530+355036212+357222489+359353612+361633677
2305+363953887+365983152+367814917+369544926+371013388+372224491+373374637
2291+374576192+375826617+377136281+378333063+379150779+379789677+380607839
2278+381578823+382556057+383464642+384364538+385242765+385876442+386550128
2264+387684064+388833180+389542513+390078900+390652616+391160945+391659659
2251+392402922+393402100+394245126+394742020+395202580+395720799+396105807
2237+396499503+397144822+397892069+398537800+399011375+399305926+399595223
2224+399963849+400339413+400732422+401217261+401770270+402252293+402670921
2210+403112043+403556566+404045629+404652863+405280943+405814445+406333558
2197+406912013+407501184+408086679+408724032+409360353+409852576+410308740
2183+411050835+412149915+413192227+413865054+414423626+415068087+415687169
2170+416391007+417477277+418835947+420114188+421252315+422276735+423233055
2156+424302669+425494746+426615564+427681469+428883746+430116656+431215873
2143+432352454+433667991+435048743+436364623+437613982+438890472+440281527
2129+441765408+443263541+444755698+446298922+447941497+449648806+451360305
2116+453079944+454887360+456727745+458514453+460452815+462573498+464608430
2102+466635119+468776065+470830468+472886280+475231594+477858924+480611430
2089+483257649+485899093+488981901+492404521+495877590+499572577+503419424
2075+507101464+510740164+514628118+518838886+523204571+527754603+532777421
2062+537912640+542711239+547486967+552645950+558293448+564256685+570238811
2048+575972404+581590367+587447729+593396920+599518646+606135719+612831161
2035+619168760+625502376+632102897+638619280+644915600+650879009+656213754
2021+661186605+666437762+672410375+678590619+684181418+689503114+694735383
2008+699433086+703596771+707306937+710776434+714605217+719150923+723788115
1994+726968934+728946892+731677901+735089566+738377738+741622846+744303646
1981+745794498+746523166+747423268+748616994+749815321+751190647+752649424
1967+754084299+755857580+757519318+758191939+758484738+759447617+760749795
1954+761551542+761692756+761700449+761982259+761884728+760906051+760863467
1940+763045760+765352783+766515807+767669627+769207322+770414029+771363652
1927+772597833+774221863+776395365+778896969+781506201+784945065+789315901
1913+793592709+796971681+800037592+804219479+809650451+815394896+820777720
1900+825990621+831289033+836061326+840016006+843353150+846533557+850967857
1886+856501030+861484801+866211695+871180836+875506341+879010867+881796204
1873+883121872+882396021+881614879+884526114+889845680+893604406+895389637
1859+896918609+897758956+896815240+895389637+894225995+892639740+890760687
1846+888176868+885346405+884620348+884508256+882982306+881310747+879413629
1832+874588587+867604123+863391466+862101308+861124211+860816919+860604823
1819+859097487+856389694+853250016+849852499+846302024+843947403+843168047
1805+842039227+839082661+835686724+834219430+833716870+831614594+827867751
1792+826332392+829226043+831956846+832091466+831629499+831208260+830522246
1778+830459675+829832797+826462204+822038138+822065612+826026817+829439994
1765+830507273+829805323+829619602+830472862+831627095+833372627+833106545
1751+829145958+826507604+829049869+832798223+834042775+833637746+834802350
1738+837497094+837669971+836609835+840857796+848082241+854194694+857428469
1724+858206245+858184404+855834865+849780175+846840299+853026313+861828221
1711+867348756+868444745+866949153+866551405+867116055+865760373+866211076
1697+871483663+879418712+887844507+893270327+895859366+895676117+890502916
1684+888678535+899275290+910533333+916614810+919602490+922956049+926230004
1670+928233238+933563863+940852046+944180605+946063642+950765740+954626667
1657+953812626+948041875+945425431+953474907+958740557+960363763+966990178
1643+975330461+979735845+979544561+974049919+969354620+974645271+982275500
1630+985639362+987020801+988499290+988740371+990188570+993112855+993601747
1616+995125499+1002180295+1008524281+1010561514+1010128119+1009687168
1605+1010901224+1013670970+1016296755+1018101493+1019161972+1019643858
1593+1020042568+1020469026+1021303810+1022846244+1025136989+1029074979
1582+1032790708+1031088516+1023184787+1018635304+1024084133+1028921470
1570+1028220414+1028693028+1032618312+1035760668+1033977291+1023908234
1558+1017909247+1029642926+1041139508+1046189971+1049128680+1053100943
1547+1054516862+1050660537+1044496433+1038685983+1040432957+1048994884
1535+1054200229+1056142815+1058279433+1059415945+1059253920+1058520926
1524+1056288974+1054688777+1056035119+1057941303+1061366155+1065588016
1512+1067099474+1064891493+1056903214+1051015357+1058890995+1067583626
1501+1069977191+1066786893+1063650856+1066038102+1068355358+1065303390
1489+1061134622+1062595666+1066896238+1068288323+1067154283+1065937342
1477+1063021231+1058390289+1054134636+1052185319+1053136659+1053411944
1466+1052589111+1052103654+1048369174+1038915593+1026270410+1020291341
1454+1022364152+1022825021+1019792559+1015053302+1009924059+1005311799
1443+1001062121+995206134+984837752+970946987+961353429+956746320+952963212
1429+951227708+949614530+943879975+938342337+937876661+941420749+949617964
1416+961004721+971557587+979108212+982906637+983184394+981522313+982379488
1402+987524597+993165123+996950567+1000912459+1006956503+1012289669+1013692881
1389+1013404546+1015197264+1017395148+1018513802+1021117608+1024114629
1377+1023719834+1020871033+1020877008+1024708470+1028850795+1031943561
1366+1032951291+1032287461+1033221081+1035356120+1034624430+1030960557
1354+1029406585+1031246488+1031750972+1029727751+1027256917+1022916988
1342+1015458674+1007972544+1004279274+1004347134+1004665827+1002869331
1331+1000862526+1001149350+1002046979+1001978708+1002835814+1005078548
1319+1007417097+1010564124+1015655110+1021130383+1024658468+1026715276
1308+1028938847+1031823502+1033516628+1032503541+1032610276+1036160339
1296+1038453969+1036711047+1034687413+1036188362+1041174262+1047887837
1285+1055204250+1061192042+1064802822+1068522192+1072210241+1073412965
1273+1073551019+1073741823+1071738864+1066076565+1059545621+1055269156
1261+1052798872+1052339995+1054046858+1055600350+1055129728+1052796468
1250+1049878914+1047755140+1047760360+1048356536+1046234273+1042386190
1238+1039885616+1038671834+1036670592+1033388395+1030304695+1028249467
1227+1027165910+1027003817+1026531134+1024889589+1023477998+1023739272
1215+1025775062+1027998222+1029428495+1031296353+1032909531+1032046724
1204+1029334467+1027584539+1027749517+1028249399+1028002617+1026785264
1192+1025129433+1023703900+1022112494+1020661822+1019289793+1016945406
1180+1014979673+1015057698+1014602049+1011537993+1009278911+1010074202
1169+1011485793+1011311130+1009040097+1004817206+1000549739+999612685
1157+1001591193+1001525463+998650081+996614359+995908289+994848840+993776273
1144+993101247+990583090+986635004+985242438+985940403+985259128+982196170
1130+977183140+973243501+973465282+974062625+969798799+963839236+961468955
1117+960539319+957424780+955316047+956282086+955608572+951031684+945772079
1103+941893912+939176228+938667624+940154424+939858878+937598834+935212276
1090+932183385+930719045+932220269+934161344+936354283+939974335+941892676
1076+939167025+935643198+935103000+936045480+936682866+936895924+937355213
1063+938613227+939906063+940293921+939673774+939648774+942246810+945600026
1049+945640206+944141317+946005192+949521120+950813613+950188040+948462632
1036+947062786+946927479+946537492+945318903+944663246+945575093+946372032
1022+945766172+945471587+945910065+945724069+944897870+944043649+942569830
1009+941932925+943635461+943924208+941938557+941334139+941327064+939712237
995+937931058+938521740+941896041+946633581+950815124+952686142+952942332
982+954411206+958428526+962958503+965179327+965371299+964868258+963642663
968+962536509+962377300+962756366+963960257+964521542+962172347+958859311
955+957183837+957054368+957039738+956529417+956721182+958462112+960608484
941+959936068+956259008+954092169+954802841+955756586+955649851+954894603
928+952392037+947051110+942238705+941157346+941633875+941169915+940550249
914+939813477+937832154+934679701+931015759+928500762+928905172+930886015
901+930710666+927702174+925073848+924862989+926857363+928695068+927409100
887+925266713+926638467+929343582+927822234+924046200+925324407+931356569
874+935258363+935879814+936367195+936995927+937909080+941325141+949061762
860+959893965+969985894+975930140+977978912+981632482+990106424+998713545
847+1005144142+1013159619+1021595373+1026791171+1032405872+1041428324
835+1048052747+1047736183+1042852210+1038249909+1040212619+1048707991
824+1056218161+1059659911+1060050928+1058982344+1058786458+1059430644
812+1058505266+1055056442+1053421560+1054741527+1054121929+1052279003
800+1051574376+1049420449+1046145876+1043550656+1040378216+1036653490
789+1033178017+1029297652+1024641915+1019468027+1014316187+1009963483
777+1004847977+996641215+990076753+988236162+985619718+982464175+983111658
764+984832120+982877995+977148317+972427331+972166538+973068152+970773835
750+967137230+964516802+961839367+959212003+958863432+962051875+964012731
737+960032569+955443044+957375602+964782609+967812186+960518576+949436501
723+940956309+936116911+934485532+935174019+936434711+935919651+936144522
710+941146906+947627093+952147797+956511284+960556490+963030003+964396262
696+964180938+963828590+967491158+972864710+974319984+973621538+972663878
683+970071817+966985370+968106428+974039616+976814514+975730133+973842425
669+968797044+966634807+969091561+969191084+970026280+973256414+973974298
656+972561402+975652863+981117147+980929846+977599502+980917139+995024808
642+1006381138+996718553+980660262+976308382+971435330+962846204+973470364
629+1004092866+1015207017+988550872+961250884+959390581+970942248+969112578
615+963072999+978713142+1003003059+1006131472+992719571+981639488+977796212
602+979165288+989508806
##END=
