##TITLE=Sample description
##JCAMP-DX=4.24
##DATA TYPE=INFRARED SPECTRUM
##DATE=13/9/2023
##SAMPLING PROCEDURE=Instrument type and / or accessory
##ORIGIN=Default
##XUNITS=1/CM
##YUNITS=ABSORBANCE
##RESOLUTION=4
##FIRSTX=4397.6552
##LASTX=599.8556
##DELTAX=-1.9287962
##MAXY=1.6626281
##MINY=0.27092266
##XFACTOR=1
##YFACTOR=1.548443e-009
##NPOINTS=1970
##FIRSTY=0.29822403
##XYDATA=(X++(Y..Y))
4398+192596062+190979748+189741073+189683507+190211596+191002402+191338602
4384+190713337+189681293+189048387+189469292+190904629+192549235+192992446
4371+192124615+191795844+192590076+193759155+194519821+193962458+192732232
4357+192015025+191436683+190445154+188818447+187357050+187656663+188653869
4344+188582445+188221898+187972558+187331683+186642711+186272733+185965345
4330+185505754+185443395+186286956+187237817+186698488+184716084+183262482
4317+182736433+182124101+181551129+181235926+181325866+182193851+183009023
4303+182787552+181927227+181524799+181867986+182076677+181974112+181942875
4290+181625767+181385992+181978750+182697786+182540444+181438593+179793641
4276+178626448+178728936+179671309+180815214+180895242+179089792+177412139
4263+177323643+177770011+178073704+178200000+178034537+177916228+178002972
4249+177862164+177267058+176283420+175610615+176269505+177315367+177349414
4236+177293214+177886588+178431537+178838892+179236432+179314015+179134117
4222+178435579+177157545+176848193+178128634+178994540+178210932+177426998
4209+177965923+178806462+179076973+179123358+178983165+178451785+178287380
4195+178859929+179049374+178442469+177848172+177717218+177663924+177485661
4182+177553159+177130619+175960538+175521831+175813725+176025573+176583514
4168+177562648+178323044+178474496+178257355+177948504+177286305+176703767
4155+176571735+175931418+174964563+175070901+176048091+176681171+176851966
4141+177291771+177923676+177779885+176923833+176393780+176086700+175556321
4128+175427830+176080407+177093857+178067275+178717619+178622753+178148766
4114+178226368+178588628+178687113+178578986+178443509+178618903+178936069
4101+179196687+179684917+180282486+180464694+180073564+179862198+180349465
4087+180844411+180929905+181136056+181781261+182254324+181956982+181637912
4074+181811208+181826221+182034739+182841462+183309174+183349169+183577569
4060+183656133+183326342+183357156+184067203+184697742+184803233+184326090
4047+183687698+183851698+184499252+184639232+184591212+184919483+185463181
4033+186036153+186274869+185900349+185494341+185462065+185489838+185495342
4020+185719508+186083269+186307974+186434578+186629643+187055744+187775222
4006+188372233+188365670+187970594+187779706+187990823+188345769+188337647
3993+188270419+189059588+190189559+190641912+190718822+190912616+190902993
3979+190713260+190920661+191255380+191248740+191246776+191594351+192371685
3966+193199521+193646967+194305125+194983165+194614765+194113178+194430940
3952+194609799+194362345+194607682+194931449+194671947+195325639+197115769
3939+198119751+197870122+197042651+196643668+197368189+198353463+198285137
3925+197497141+197362530+197531342+197329272+197920048+200191266+202260241
3912+202619422+202273656+201012386+197650749+194600926+194892725+197556613
3898+200981129+202948039+201411619+199309270+200992234+202676257+202055072
3885+202324872+202590417+202816739+205191678+206097174+204416654+202500170
3871+200993716+201974352+203983123+204062208+205117770+208333787+210071971
3858+208105388+201751514+197038263+203490640+211485193+214395362+213022596
3844+209665000+206274590+203918378+204050737+206911480+209874981+212084630
3831+214243468+215913364+216215824+213791268+208421052+206612830+210444181
3817+213199607+216071898+220067808+221406720+219019482+216283111+216287845
3804+215932649+215789916+218807134+221571144+224034694+227298385+229335468
3790+229798158+229386433+228864253+229690723+230924779+231790262+234417890
3777+237990219+239687696+238977149+237880822+239458603+242992690+246934979
3763+250007839+250456844+251177342+255005133+258424721+258839833+261501624
3750+274175650+289722930+307947321+335764333+358934282+369836463+373032868
3736+374166841+380411644+391873787+402699481+410230575+416945034+426290547
3723+439046795+453705997+468808680+483247584+493963997+501680474+514818999
3709+535725082+557251715+575400101+592091402+610447228+626955185+637265262
3696+644176075+649736237+650595099+646579942+645568069+648453410+649698667
3682+648940196+646836615+643379996+640856954+642909223+645517374+643327761
3669+642380595+646000849+648712700+648347476+645134519+639577207+633436336
3655+629739172+625917252+618778597+613082632+614057551+618205163+620859851
3642+619274929+614244359+610335713+608547777+605187353+599527763+592668185
3628+589764445+592886326+594719299+590814349+582872955+578268312+578797980
3615+578707059+576733816+575018825+573608393+573118836+573508272+572554524
3601+570217752+567830014+565111041+562884898+563094032+563636595+560500625
3588+555689851+555123614+557563010+558848339+558352469+558028586+558218358
3574+557940822+557297946+555730191+552339280+550061980+551201419+553091631
3561+553590889+552956328+552349404+551599324+550814677+550786462+550322425
3547+549163085+548864839+550046621+552173605+553534881+552792847+550754358
3534+549062964+548249023+547896810+547847885+547991465+547896348+547586901
3520+547354709+547474462+548197943+548288133+546758795+545143270+543601807
3507+540898886+538909092+539460739+540944770+542261317+543106591+542331221
3493+540821938+539544693+537419056+535410477+534718945+534033842+533327990
3480+532486489+530696937+529521236+529583942+529656694+529179031+528276710
3466+527445294+526688670+526036864+524759541+522429428+521406200+522047998
3453+522046150+521000557+519187293+516922118+515387237+514804603+514525488
3439+514179010+513148122+511249171+509710557+509279701+509089776+508311018
3426+507115109+506154856+505769192+505494735+505089785+504904325+504820525
3412+504682680+504689340+504526359+503551710+502423895+501974717+501530428
3399+501581662+502771412+503193915+502168030+501406287+501297967+500689311
3385+499909052+500311731+501311362+501422146+500454425+499294161+498936597
3372+499401980+499473385+498244064+496397580+495422238+495833808+496254308
3358+495430783+494057651+493499537+493946521+494092103+493280780+492049688
3345+490812745+489896720+489207922+488273998+486754245+485013771+483664467
3331+482483031+481391400+480182519+477925812+474652652+471486349+468975702
3318+466616180+463878038+461193594+459457778+458549875+457784976+456660471
3304+454170034+450356774+447393254+446878637+448184021+449796389+450224319
3291+449148162+448121508+447769988+447579638+447666595+447509119+446478808
3277+445082656+443749634+442653423+442196816+442063167+440953598+438309341
3264+435237578+432922130+431237588+429875849+429272891+429246523+428654689
3250+426872681+424161369+421338695+419546256+419202857+419381043+418907460
3237+417663781+416176940+414954047+414543285+414697989+414389581+413209069
3223+411604901+410328541+409701331+408964570+407497553+406207759+405684519
3210+404972663+403769287+403117634+403367147+403390667+402581692+401847702
3196+401750930+401693806+401104667+400450820+400274521+399948713+399146975
3183+398358210+397425325+396229532+395259809+394649460+394118714+393209311
3169+392151900+391951197+392348755+392065637+390996871+390084889+389726093
3156+389449750+388973549+388600626+388436068+388211344+387903629+387709930
3142+387812592+387851239+386890178+385237199+384170589+383740080+383158101
3129+382470919+382030094+381255878+380326381+380056312+379376483+377745946
3115+376413886+375469608+374584031+374215574+374107138+373437817+372131009
3102+370963931+370171740+369160906+368321637+368265360+368386037+368323254
3088+368444354+369046889+369846241+370178014+370299460+371126219+372435029
3075+372977669+372689623+372457355+372065763+371197316+370323172+369676447
3061+369085652+368310282+367539608+366973795+366289654+365644276+365647048
3047+366174790+366568076+366718431+367183237+368416985+370000060+370780318
3034+370449238+370027197+370194297+370543431+370550321+370291184+370213967
3020+370390305+370579499+371342782+373217982+375314018+377110153+379330098
3007+382299508+385823567+389606995+393628387+398838221+405940115+414285688
2993+423269941+433266915+444593753+456379625+467086953+475894522+482443999
2980+486765947+490059662+493150865+495572785+497355331+499200160+501568728
2966+504939893+509552003+515185956+521573915+528540351+536211637+544206190
2953+551091944+556112276+559845007+562929743+565654643+567657371+567364515
2939+563800268+558480113+553006022+547084024+540748147+534972115+529717052
2926+524951315+521153068+517218131+512109304+506744380+501697604+496504245
2912+491159223+486207024+481840001+477685961+473600323+470208911+468203873
2899+467437549+467558110+468564979+470266574+473010644+477476211+483173677
2885+489693129+497342513+505528686+513000000+519027392+523646200+526807383
2872+528192949+528553746+528494929+526907697+523006596+517500248+511306218
2858+504534520+496476184+486619056+475150870+462386654+449051159+436336561
2845+424700159+413998836+404246372+395298610+386996496+379273706+372007599
2831+365557281+360332589+355864674+351563359+347520295+344019793+341283460
2818+339370075+337910872+336663690+335833505+335493263+335367005+335180852
2804+335053978+335342562+335863145+335831196+334990887+333850678+332629787
2791+331032662+328798859+325986155+323051813+320558142+318506643+316505781
2777+314524725+312550982+310480602+308638641+307117310+305592861+304185354
2764+303171942+302421265+301673764+300781028+299933849+299337472+298661608
2750+297858137+297299869+296835852+296199135+295477925+294862071+294422767
2737+293806374+292790344+291850954+291250247+290611432+289807057+289179366
2723+288879504+288651547+288224387+287520787+286649300+285973723+285699228
2710+285502123+285072788+284491213+283854515+283158114+282440849+281623406
2696+280694679+279886455+279200023+278428830+277465362+276392882+275528207
2683+274878364+274072103+272986362+271795976+270811492+270095825+269221180
2669+268108513+267248400+266685147+266019117+265163547+264258512+263445592
2656+262857665+262412990+261881013+261274629+260831379+260502569+260019324
2642+259460672+259107553+258991419+258872321+258606082+258392502+258272519
2629+258098125+258122588+258543627+259015959+259245648+259376795+259585120
2615+259808939+260104972+260665242+261295761+261633713+261692589+261760202
2602+262207879+263005479+263552892+263689062+263874157+264302394+264726879
2588+264916593+264933742+264834833+264525001+264107945+263850753+263759370
2575+263625682+263428019+263238017+263025861+262691374+262161745+261654634
2561+261370034+261050733+260473237+259854169+259475337+259330430+259209676
2548+259093234+259222340+259488983+259450355+259186118+259188409+259521529
2534+259819044+259877746+259840042+259833056+259823663+259831323+259911409
2521+260108610+260471832+260906094+261246259+261490576+261779295+262182839
2507+262587961+262886823+263150926+263483219+263869749+264252315+264615056
2494+264940363+265170013+265357360+265598829+265777784+265875172+266048122
2480+266213662+266233525+266125590+265942304+265755920+265574847+265382881
2467+265323582+265505790+265686054+265642923+265514143+265437022+265465276
2453+265575405+265650775+265713404+265745469+265659975+265524941+265407921
2440+265336131+265350913+265458617+265628622+265757998+265796203+265797127
2426+265723200+265616170+265674641+265854770+265946404+265886354+265768045
2413+265776321+265981124+266285067+266629929+267026313+267359800+267471199
2399+267514639+267726313+268050177+268423696+268769751+268857458+268672459
2386+268222434+267172280+265172554+262204164+258645538+254916656+251116369
2372+247260343+243403837+239606148+236197203+233632954+232000319+231478447
2359+232680630+235727315+239973701+245269202+250938395+254208861+253142751
2345+249279046+246549007+246309887+247362139+248967636+250523745+251587661
2332+252608079+254248990+256329609+258361130+260375541+262836628+265852749
2318+268812594+271254665+273290035+275154572+277007716+278920581+280913282
2305+282880211+284506822+285745189+286933399+288133754+289226136+290314957
2291+291406568+292488499+293658867+294765953+295577276+296161431+296720834
2278+297252657+297674390+297977986+298172339+298377566+298689881+299070445
2264+299465925+299862425+300214369+300375405+300459917+300806665+301302054
2251+301549970+301571815+301634174+301758892+301865615+302007732+302191229
2237+302270198+302259497+302386082+302667968+302876968+302942406+303001994
2224+303092010+303201408+303406250+303672604+303872327+303976971+304132522
2210+304488585+304921365+305279699+305688728+306176015+306549438+306868220
2197+307397849+308125102+308736491+309113706+309526720+310151985+310835298
2183+311411831+311934917+312516011+313116930+313715923+314444158+315367381
2170+316361470+317285886+318137300+319013734+319951719+320866819+321727163
2156+322531884+323285159+324163460+325295047+326548350+327720662+328776341
2143+329889913+331089786+332219872+333370013+334702188+336159967+337661358
2129+339096349+340348305+341551643+342932204+344426205+345811732+347109148
2116+348564155+350293812+352096837+353794006+355507457+357322530+359200155
2102+361172204+363314586+365692585+368266284+370970591+373816360+376791082
2089+379864577+383080537+386535578+390249563+394197164+398345430+402634890
2075+407093258+411848332+416941185+422101940+427118923+432357934+438179388
2062+444393126+450835784+457481456+464048909+470476901+477043893+483813898
2048+490791805+497935002+504947668+511794390+518703779+525700240+532761138
2035+539812067+546768303+553679847+560319591+566493027+572425110+578233129
2021+583921435+589419237+594612095+599795715+605018868+609755350+614005816
2008+618303282+622725544+626874387+630430127+633370551+635925388+638088325
1994+639688568+641383581+643840299+646397099+648334004+649874581+651417161
1981+652705916+653293631+653515352+653897206+654177206+653990051+653646999
1967+653429820+653421275+653752471+653973191+653639455+653127109+652908698
1954+652926713+652737480+652194725+651576215+650893729+650247427+650570540
1940+652090485+653556925+654576150+655853280+657585554+659607221+662275729
1927+665689544+669038767+672192136+675824284+680233843+685863792+692451455
1913+698875828+704973394+711465978+718642510+725813885+732548129+739246960
1900+745749937+751538171+757529033+764577306+771228559+776555489+781865175
1886+787598517+792888417+797393670+801076399+803960238+806271836+808186184
1873+809202791+808127135+805883670+805800294+807278435+807650050+806878644
1859+805182477+802376856+799171829+795579097+791138359+786158792+780514831
1846+773502280+767230570+764512945+762454710+758693609+754265496+749339281
1832+742891734+736209610+732296999+729677917+726444789+724168451+722303067
1819+719748884+717423274+715213914+712121903+708972076+707178289+706303337
1805+705443320+703877183+701328928+699398028+699229890+698835795+696426270
1792+694807551+696972105+699753552+700578694+700213778+699848168+700116852
1778+700911969+700639590+698031286+695140980+696404098+700753376+704486916
1765+705850271+705236226+705411679+706889358+708225383+709638009+709858576
1751+708081264+707533351+710237735+713559242+715157483+715169108+715824418
1738+717288625+716536851+715863065+720772343+727386181+732548668+736128697
1724+738588879+740169028+739219630+735882879+736761988+744677668+753034173
1711+758293202+760173059+760199235+761357420+762812158+762497745+764351735
1697+770115487+779120065+789982637+797602612+801551637+802586182+800360501
1684+802053589+813324343+824809043+831906664+835913737+839427172+842270209
1670+846208533+856040408+866894049+873233815+878794630+887346604+895560069
1657+898784650+895848999+897517375+910577912+919687885+925966061+936972443
1643+947627921+953142160+954609369+952315093+950903468+957978532+967186893
1630+973221253+976590030+977417482+977061573+980178451+984813195+985000195
1616+983833695+988426251+995154182+999026375+1000240453+1001596571+1004180471
1603+1008611509+1014698604+1019487861+1021183335+1022372547+1025486807
1591+1028522463+1029155447+1027810415+1026761319+1027700555+1028227836
1580+1024758129+1017696769+1013925813+1017697538+1021393894+1022889203
1568+1026287159+1031126072+1035933805+1037809582+1031434788+1028195348
1557+1041837595+1054484099+1060719009+1063021061+1062516491+1058881263
1545+1052960227+1045873461+1035574970+1032270246+1041432569+1048524031
1533+1050406506+1052943829+1055097374+1054424281+1054738232+1056102356
1522+1054580409+1053575427+1055463907+1058162594+1061432366+1063511234
1510+1061023183+1052225083+1046166087+1053788218+1062507561+1064292032
1499+1060655649+1058599184+1061143128+1062558526+1060602836+1061351530
1487+1068072764+1073741823+1073143714+1068837087+1065856322+1063766137
1476+1059749671+1054479172+1053556257+1057752717+1058940158+1053955048
1464+1049042536+1046471185+1039130055+1025457783+1017990703+1020404001
1452+1022195016+1020695241+1016938836+1012582860+1008232966+1002803720
1441+995511708+985061169+972388874+964847657+960986704+953824799+945788712
1427+941488397+940405197+941344663+942205758+944356839+953649963+965707597
1414+973182067+976606660+979421519+982206430+984463291+988526256+993256541
1400+994622821+994860171+997959957+1004568945+1013701090+1021075862+1022524056
1387+1019221795+1017635333+1019738375+1022940015+1026051041+1027722265
1375+1028102733+1030937147+1035854970+1038912414+1039429456+1037815125
1364+1035788608+1037800036+1042719014+1043854643+1039158925+1033778181
1352+1032422987+1032738632+1032610064+1032216047+1028412219+1021049533
1341+1014475651+1011050827+1010381352+1009606329+1007025817+1005200927
1329+1005324722+1005120015+1004366547+1005479619+1008986895+1012938076
1317+1016144566+1018540695+1020856374+1023660147+1025138673+1025678965
1306+1028365796+1032454090+1035726249+1038016522+1039012035+1038488680
1294+1037462604+1037731749+1040388247+1044354132+1048164658+1051743532
1283+1054986051+1057906382+1060844189+1062504404+1061607357+1059585228
1271+1057643627+1054693657+1050468019+1045721875+1040781032+1036530989
1260+1033352831+1030629585+1027826505+1024415924+1020288521+1015979045
1248+1012169442+1009257657+1007532773+1006811871+1006411079+1006031843
1236+1005848461+1005917133+1005204315+1003486437+1002934135+1004322742
1225+1005724051+1006108676+1006444414+1007139680+1007542935+1007504827
1213+1007713384+1008193087+1007073086+1004524524+1003362720+1003552953
1202+1003866750+1004497578+1004519135+1003363797+1002149411+1001019557
1190+999353337+996922102+994434281+993331141+992931504+991636359+989918789
1177+988252107+985751969+982152771+978838500+977169123+977331180+977707875
1163+976283008+974269502+973279224+972372168+971031447+969454378+967227542
1150+964281883+961784747+960293363+958717218+956948991+954896760+951065986
1136+946692919+944469317+943267865+940486263+936454632+933195021+930874723
1123+927878946+924196756+921484443+919626988+916390166+911732864+908040512
1109+905322348+902166592+898385629+894570099+891979809+890437152+889137773
1096+889344790+890435074+889041771+886137531+886234611+889095123+890621997
1082+890951500+893451330+897262395+899381219+899978250+900338008+901813532
1069+904711229+906882481+907492137+908048442+910130158+913036709+913681394
1055+912295405+912108020+912936241+913354894+914716324+917327708+919001242
1042+919386482+919403188+918211899+915901763+914318227+914006354+914603077
1028+915029198+913654526+911245309+909675630+908032891+905229964+903932664
1015+904896536+904568342+901833241+897656566+892544274+888737212+889086500
1001+892934134+896057710+896368812+895570924+895297929+896084886+898678794
988+903651047+910273738+917058794+922187715+925104658+927008998+928226155
974+929118121+930189620+929616378+926733309+924617488+924740512+925208667
961+924574683+923030795+922482266+924477372+926842091+926278395+923245895
947+920833060+920294154+920484003+920669694+921008358+920222171+917425943
934+914404914+912077302+910419551+909922064+909708272+908261387+905077223
920+901644624+899924359+899045481+897499899+896192513+895313173+893272952
907+890400199+888937224+890171549+892241871+891884577+890102261+890316592
893+892291759+893679133+894476560+896258876+899255577+901844250+901991910
880+900579053+901114109+904022045+905652236+904733940+904801534+907750273
866+911527002+915250457+920131866+925605225+930020250+933676033+937588490
853+943324989+952012382+961420908+969829379+978145082+986847180+996257477
839+1005782253+1012944389+1016752836+1019040800+1021553718+1024479361
827+1025769809+1024905635+1027289601+1033884962+1036659403+1032719924
816+1027607324+1025370942+1025358855+1025724310+1026946087+1028968446
804+1028938114+1026166290+1023491700+1021801460+1018540310+1012673704
793+1007134984+1004216962+1002164347+998226562+993150069+988565442+982677819
779+975507830+969757474+964186111+957358713+950608147+944125957+939067093
766+936935952+935652047+933593965+931759992+930353294+928925655+927119704
752+924659907+922747484+922884058+924540886+925246083+923039109+919329974
739+916806971+916088609+916348054+915151452+911011962+906148183+901985905
725+898638684+896557968+894454311+892573529+893273029+895054806+895304781
712+895592942+898287933+902585014+906150185+908817461+912227426+915295109
698+915283715+912990902+911413370+912547074+916127180+918808236+918196886
685+915849951+914044309+914012051+916717436+921845279+926396878+927081750
671+921599923+911747184+910703015+919799361+924839286+924522486+923392093
658+923797889+923870641+922778895+921522089+918543634+915594587+915451700
644+914635565+912689807+914461653+919347450+922201727+922033049+922324751
631+925777059+930487019+930973882+924070036+915611832+913343115+918341621
617+928871379+938980868+940869887+936696292+931957847+926407964+921828727
604+922988067+929744869+941635057
##END=
