##TITLE=Sample description
##JCAMP-DX=4.24
##DATA TYPE=INFRARED SPECTRUM
##DATE=13/9/2023
##SAMPLING PROCEDURE=Instrument type and / or accessory
##ORIGIN=Default
##XUNITS=1/CM
##YUNITS=ABSORBANCE
##RESOLUTION=4
##FIRSTX=4397.6552
##LASTX=599.8556
##DELTAX=-1.9287962
##MAXY=1.5808048
##MINY=0.21976823
##XFACTOR=1
##YFACTOR=1.4722392e-009
##NPOINTS=1970
##FIRSTY=0.23540065
##XYDATA=(X++(Y..Y))
4398+159892933+160353630+160835096+161098294+161722067+162650799+162531680
4384+161432442+160601372+160605127+161794961+163576100+164283102+164077758
4371+164674862+165477572+165309819+165191631+165333038+164574740+162893754
4357+160963962+159395445+158679394+158020823+156784663+156111082+156460241
4344+156897254+156660382+155844484+155049081+154592048+154528212+154350824
4330+153576808+152464737+151535317+151425398+151813443+152043129+152887681
4317+154606815+155515284+154191270+151543222+150185473+151373900+153104118
4303+153049371+151902411+151231360+150830886+150680694+151499436+152359444
4290+152413027+152513472+152943076+153736798+154652068+154162353+152378836
4276+151096897+150485745+150051283+150075169+150393195+150525957+150466332
4263+150350654+150298003+150543174+150875218+150518285+149597681+149274807
4249+149975817+150747607+150475937+149792377+150177750+151210490+151793059
4236+152188918+152492328+152104131+151300419+150918213+150894721+150888213
4222+151227220+152153422+153254451+153577608+152880009+152339586+152730809
4209+153546626+154060906+154347677+154736967+154806825+154652635+154863110
4195+154820286+154370521+154698141+155526367+155406489+154491198+153787678
4182+153609248+153966332+154645540+155036622+154689558+153903579+153393064
4168+153635644+154637726+155432015+154952503+153948994+153577021+153721757
4155+154298335+154969810+154857796+154513253+154947422+155598078+155810931
4141+156076487+156660564+156859076+156800726+157482869+158263090+158010965
4128+157338062+157443649+158392978+159197328+159494311+159748703+160226181
4114+160638923+160617738+160483053+160435249+160396120+160691301+161292827
4101+161659031+161978807+162988207+164014469+164125349+164085208+164619588
4087+165493098+166347518+167024278+167446675+167554296+167584053+167930641
4074+168656145+169206275+169319939+169586658+169876020+169495323+169152884
4060+169796010+170613224+170734398+170828831+171279963+171233971+170620633
4047+170431342+170665066+171032393+172014900+173207305+173554308+173215908
4033+173125747+173343256+173244410+172936598+173083642+173723093+174071554
4020+173708903+173271495+173334370+174014590+175194000+175953835+175947013
4006+176112539+176189260+175712966+175679120+176086831+176224341+176316628
3993+176595756+176997901+177591057+178485771+179338623+179521436+178927166
3979+178278140+178387411+178976518+179292287+179615909+180455259+181194346
3966+181391835+181859870+183120959+184136725+184003790+183634763+183815755
3952+183966948+183883730+184372494+185048180+184767351+184897229+186538439
3939+187932159+187807564+186536212+185899493+187317404+188803614+188089163
3925+187013275+187726390+188337927+188260518+189821688+192815646+194551997
3912+194623171+194066594+192117612+188669586+186459815+187003235+189909521
3898+194487706+197370612+196192276+194256532+195681731+197152880+196809460
3885+196926099+196193510+196188308+199768459+201334041+199201396+197140592
3871+196519137+198495932+200274753+199707245+201298535+205373584+206759004
3858+203250351+195660658+192400870+200503032+207998920+210292840+208916386
3844+205858420+202846628+200777383+201588109+205211944+207644690+208630416
3831+210532434+212567043+213267021+211605083+207067526+205456195+208635456
3817+211282391+215070254+219197347+219803074+216796808+214004671+213966452
3804+213065119+213079471+216905168+219850402+222341103+225809250+228343189
3790+229881424+230665571+230913506+231870628+232783338+233434429+236352477
3777+240841350+243527455+243599094+243554702+245911496+249799379+254605559
3763+258731477+260721512+264577046+271332329+276118732+278516842+286695319
3750+308525435+333928393+365367225+412057689+449775024+468599824+475994417
3736+478121050+484449978+495338245+504193198+508215412+509937026+513491590
3723+519746348+527713571+537026498+545996633+551034836+553725192+562418323
3709+578972605+596914210+611167567+621696361+632933817+645818636+656814796
3696+663750848+666027278+667377193+674833608+687738953+698557300+703468621
3682+703886434+704937281+707711200+709553704+712531266+715872875+717464773
3669+724443456+735194112+741109478+742655951+745352299+749945403+753223125
3655+755045063+754291057+749582165+748277715+755539718+764038882+769598622
3642+773536100+777978111+783031941+787965530+792031995+792814422+787884558
3628+787437191+796844612+804576734+807140451+808533483+810380522+811943594
3615+813907637+817012000+823284855+832356325+837385541+836101820+833171950
3601+834080287+840665450+845949482+846168024+848726235+853015048+851052219
3588+848382349+853755774+861241257+865495414+867004721+867673464+870688840
3574+876683153+879778610+877532867+875484857+876948902+877262990+875500809
3561+877061128+881928643+885054545+885063047+884026127+883403781+881876741
3547+881601519+886758264+893278244+895827305+897974667+902500079+904156025
3534+901519920+898422844+896007467+895496861+897860579+899718873+898394828
3520+897438718+898712803+901695628+906690916+910506775+911314141+909166050
3507+902506556+894039295+890826511+894229416+897294346+897775235+897921388
3493+895999613+890941328+887089761+891314688+900924375+904752541+902912142
3480+901851174+899100818+894289982+892763185+893081403+891978815+889832587
3466+885814623+881996659+881972854+884631631+885779401+882543621+878508492
3453+879755614+885276649+888841821+887158182+881027675+872464138+866362051
3439+866438245+868027714+866497031+864399790+863464327+861828705+860665308
3426+863800116+866795977+861508301+851677805+845551669+845722438+850388902
3412+855872124+859524582+859374137+855960787+853361767+853039501+852480312
3399+851249223+850072222+847243648+844982602+847222272+849687284+847620084
3385+844528110+842332327+839249179+836461009+834792350+833922150+834364578
3372+835055021+834554213+831724343+827360794+826011000+827889294+828653098
3358+828795688+829599087+829619168+828419981+825614726+822316599+820275795
3345+818573614+816788114+816605523+816516697+812453066+807507980+806990977
3331+808266277+808307006+808900850+809879714+808744899+805907256+803729935
3318+802030021+798697481+794696602+792763814+792598309+792552479+791929971
3304+791971266+793802597+795632794+796745341+798705983+802742084+807350329
3291+808007007+803515846+799041690+800120715+804010663+805811629+808979069
3277+812549179+809587326+803641757+800994316+800380957+800668163+802619412
3264+802627428+798542744+795596194+795577652+796716191+801320873+807749599
3250+809384654+804393657+796249310+789703824+786718813+787077273+791120419
3237+796130201+797274975+794252069+789979531+786757112+786565372+788927065
3223+789611354+787275248+784026675+779889684+777761998+781229113+785525294
3210+786057033+785809018+785348210+782207167+780536402+783553154+785732824
3196+785400436+785773714+784426512+780456403+777210906+774912047+775151318
3183+779998671+783817283+782186762+778557218+775049618+771883473+770419996
3169+769586152+766747942+763119452+761506177+760733386+758404162+755795263
3156+755346358+755214536+752377055+748941600+747486625+747583143+748397715
3142+747445653+744273598+742358462+741222028+738749404+736877345+736516294
3129+735612491+732329586+727121505+722710101+720139259+717483963+713693772
3115+709999047+708349821+709263907+709567064+705900760+699783046+695205489
3102+694006464+693951485+691657888+687709074+684952322+683183258+680275413
3088+676477408+673603611+672195964+670952931+668755772+666194039+664007649
3075+662509759+660985715+657758397+653783429+651318619+649098868+645404021
3061+641805976+639337400+637120443+634612961+631743051+628856380+626421529
3047+624164208+621595268+619563007+618558071+616531518+612584446+608789234
3034+606433695+604862364+603163017+600975655+598744366+597130808+596004334
3020+594654865+592773453+591689894+592953331+595539477+597489633+598414813
3007+599305984+601450229+605376168+611021900+618620824+628335167+639163919
2993+649869676+659587015+666321407+668654882+668111968+666087278+661846279
2980+655850872+650265747+646303411+644423782+644188317+644287183+645110986
2966+648321179+653576992+658515439+661886684+664467364+667019381+669628887
2953+671446169+670416698+666810069+664120159+662984616+660377781+655609253
2939+649937894+643807144+638810924+635757249+632884465+629641438+626978693
2926+624742668+621531706+617106942+612591085+607295028+600599259+594025150
2912+588248852+583220082+579399931+576884433+575709943+575734720+576341439
2899+577648317+579612643+581383286+583757327+587910634+592441956+595727817
2885+598373801+601741928+606177704+610653885+613818005+614592132+612266876
2872+607602194+601281282+592645802+581802758+570035061+558763031+548157355
2858+537080344+525300501+513615234+502138872+490258989+478610482+468980876
2845+461758631+455752050+450003363+444875767+440830233+437339029+434242196
2831+431759208+429745854+428330433+427462744+426498819+425431778+425000362
2818+425347811+425801817+425642263+424698420+423270206+421436284+419106210
2804+416564801+414146306+411616355+408551992+405074998+401534402+398194493
2791+395320291+392561878+389264803+385754855+382781868+380227341+377679697
2777+375470230+373838737+372209188+370305671+368323167+366454630+365136132
2764+364441924+363931804+363385409+362743305+361860515+360740680+359702100
2750+358793277+357457613+355514016+353713940+352611191+351747266+350590994
2737+349325857+348355171+347742987+347217320+346474894+345528824+344671377
2723+343948707+343202677+342594460+342329279+342108267+341565111+340856692
2710+340094589+339159167+338123340+336957838+335818428+334980131+333965397
2696+332416515+330712290+328939198+327043698+325469614+324408989+323312879
2683+321781042+320077464+318486133+316989923+315537478+314154425+312860786
2669+311638259+310573566+309678103+308748349+307752036+306790156+305943357
2656+305372732+304929231+304283362+303630935+303295451+303177232+303076220
2642+302920168+302746059+302643894+302620696+302646060+302834177+303280046
2629+303845348+304404334+304832551+304964130+305064980+305678945+306854691
2615+308071873+308898510+309468306+310198405+311147714+311977732+312455888
2602+312790118+313244712+313547707+313547342+313616998+313680641+313374954
2588+312752790+311833603+310622108+309428023+308343472+307267807+306307466
2575+305398238+304239516+302731161+301150983+299824125+298626821+297315995
2561+296087072+295212378+294422826+293403517+292497791+291947368+291489960
2548+291044375+290581947+290056078+289747132+289726970+289667719+289416788
2534+289213328+289382133+289779520+290054094+290181057+290301280+290692574
2521+291453240+292239067+292837507+293454448+294313656+295214625+295917558
2507+296640957+297523363+298315486+298906537+299471272+299995319+300269427
2494+300279387+300187667+300183577+300250642+300143740+299836878+299548357
2480+299278864+298803076+298057471+297144700+296234500+295520879+294979342
2467+294477299+293974750+293384448+292639046+291869838+291182714+290510854
2453+289849277+289230332+288634928+288160659+287914161+287710923+287351208
2440+287000986+286709185+286236596+285620221+285120364+284813220+284589576
2426+284359415+284082392+283845733+283877494+284115469+284214861+284067129
2413+283885024+283859639+283974781+284157189+284348322+284551682+284827977
2399+285144980+285440748+285692933+285895180+286009026+285971758+285803014
2386+285352955+284092372+281512035+277694982+273328477+269018146+264789900
2372+260281169+255486609+251050995+247226249+243994619+242035051+241670801
2359+242776384+245760545+250512312+256577840+262756951+265954411+264326460
2345+259884308+256948365+256820451+258036378+259555503+260959608+262084099
2332+263029318+264612694+267227767+270003710+272448399+275051589+277960325
2318+280716997+282945027+284580002+286003317+287609486+289414339+291419232
2305+293505177+295362317+296899195+298221660+299448519+300650600+301841204
2291+302975816+303976238+304844940+305580788+306084470+306365158+306615623
2278+307009508+307555680+308041246+308296043+308496386+308806405+309125008
2264+309367477+309595978+309894661+310184701+310240854+310058426+309918730
2251+309933730+309996685+310030713+310016604+310046766+310170490+310270065
2237+310259579+310155045+310074823+310150065+310350409+310542048+310607331
2224+310547655+310527837+310681987+310943585+311209192+311562693+312002286
2210+312318419+312533013+312819936+313253274+313839690+314406429+314895537
2197+315584077+316473933+317120955+317410812+317704880+318162531+318660039
2183+319210726+319892505+320519892+320970943+321481225+322173045+322922091
2170+323656583+324417633+325262894+326141292+326920318+327541227+328114423
2156+328785413+329585006+330527837+331592692+332665624+333660317+334566549
2143+335494704+336527029+337523727+338486315+339647829+340979971+342236445
2129+343336118+344366277+345452063+346671695+347968087+349244116+350487675
2116+351828157+353431472+355079442+356504296+357978786+359692343+361406548
2102+363101483+365083298+367371348+369709762+372143034+374859908+377793583
2089+380844667+384160811+387823148+391635606+395497092+399436918+403469294
2075+407636043+412035017+416806906+421890858+427079506+432390016+438032590
2062+444002410+449946926+455664884+461437255+467478127+473715396+480289222
2048+487187581+493969302+500478148+506961570+513523614+520013230+526465032
2035+532907239+539117180+545142749+551138439+556996801+562624679+568056282
2021+573251489+578136494+582829800+587476465+591888031+595878505+599781327
2008+603720869+607315433+610577488+613734037+616705971+619294101+621326767
1994+622817491+624170200+625807482+627708610+629689940+631508922+632964302
1981+634027093+634696807+635054498+635280652+635489720+635466400+635121381
1967+634899924+634977697+635007454+634808588+634393974+633794138+633247176
1954+632899201+632590579+632183778+631649286+630823175+629657673+629447269
1940+631176818+633312763+634700815+635862148+637401131+639555416+642222452
1927+644906655+647448185+650785543+655250550+660152762+666005457+672916690
1913+679575820+685716611+692228413+699619160+707489338+715208181+722473098
1900+729301336+735649090+741641622+747714640+753614136+759479948+766083896
1886+772255375+776984267+781252109+785270801+788145934+789561314+789973054
1873+789521233+787436138+784329913+782582064+781941418+780557374+778369364
1859+775718603+772088817+767763567+763580584+759324888+754239317+748185408
1846+741129316+734201078+729824654+726496001+722047026+717338620+712788026
1832+706801972+699751629+694933749+692018130+689295709+687786078+686620819
1819+684475967+682187067+679959139+676949998+673943448+672567299+672308393
1805+671431837+669177309+666636143+665538170+665680883+665215621+663383886
1792+662864171+665516915+668059053+668558890+668106057+667682213+667758973
1778+668440145+668060632+665570397+663443885+665082706+668967512+672389445
1765+673808510+673357134+673734502+675394375+676893116+678343840+678524690
1751+676992791+676872225+679867074+683648763+686385030+688345591+690900158
1738+693501445+693616263+693556182+698702401+706185779+713126649+718457240
1724+722259333+725300215+725976488+724401675+727008307+735927551+745028171
1711+751279731+754249114+755718583+758937359+762473947+763932243+767563244
1697+775689130+787796380+801585326+811935254+819415555+825227926+830017466
1684+840279378+856921189+871537177+881689130+888729675+895615160+901240163
1670+905497964+913465308+922552163+926857818+927962511+930773757+934554475
1657+935194068+931615212+931633836+940007737+945459866+948344068+954948016
1643+963397221+969230320+970849344+967822956+965937051+973498971+982723882
1630+987282249+989557384+990814708+990409608+992179643+996090319+997575092
1616+997827723+1000429982+1002779449+1003216694+1003175642+1003608110
1605+1003913210+1004396691+1006457656+1009004288+1009925743+1010031815
1593+1010180560+1009683962+1009239834+1009063640+1007483564+1004390618
1582+1001072247+997183676+991560454+987253666+988035121+989642647+990688149
1568+994302956+999618729+1005042761+1009012466+1007569474+1006866238+1017173899
1555+1026955569+1030946731+1030339445+1028525929+1026585854+1022343437
1543+1016132930+1012160149+1019493163+1032902919+1040828320+1045521180
1531+1052545693+1058246810+1059461057+1058924945+1056388597+1052017679
1520+1051317600+1052515491+1054063341+1057368837+1058117093+1051486830
1508+1038385980+1034798217+1048666353+1058510857+1058161142+1053140428
1497+1051075495+1053797430+1055639692+1054431113+1055148196+1060794899
1485+1066992289+1070934139+1073252108+1073741823+1070415355+1063445255
1474+1055955723+1053990547+1058163004+1060377086+1057192886+1053751601
1462+1052787231+1049290724+1041380626+1036070197+1036491167+1036615783
1450+1033038627+1025936220+1019532839+1015511151+1010876833+1003730944
1439+994014374+983727604+976693617+970741166+963956328+959453265+956509549
1425+952179279+949012082+948927872+951879523+960676581+971170719+977849727
1412+983089630+988342893+989911634+989300623+994279151+1003792482+1010186066
1398+1013404679+1016411553+1020199152+1026734193+1032235067+1031782275
1387+1029414023+1030153535+1031819441+1033994252+1037577318+1039697231
1375+1040420143+1044483613+1051631121+1057442278+1059780813+1057758876
1364+1053052170+1051168613+1052852170+1053690548+1053805366+1054868196
1352+1055274916+1054208765+1052910551+1050978654+1047057289+1040727187
1341+1032742434+1026475813+1023963028+1022572182+1020493969+1019062800
1329+1019149034+1019884093+1021984734+1026407959+1029741148+1029734022
1317+1030254425+1033587128+1037508492+1039906218+1041160789+1043465640
1306+1047073402+1050052098+1050949180+1049897199+1048940603+1048837931
1294+1048910158+1049700034+1051398167+1053963260+1057350051+1060435224
1283+1063397563+1066672290+1068698761+1068986129+1067955363+1065073833
1271+1060207856+1053695164+1047112026+1041462731+1034881456+1027288524
1260+1021363440+1017941912+1015761190+1013661844+1011517964+1008912547
1248+1005060170+1002057265+1002663012+1004458634+1004267055+1003458637
1236+1002793538+1001801800+1001992892+1003584952+1004952640+1005610776
1225+1005803083+1005690938+1004977903+1003569244+1002727789+1002947464
1213+1003484791+1004362683+1005906645+1007553037+1008338217+1008537164
1202+1008696516+1008080809+1006956359+1006674821+1006528668+1004988187
1190+1002832080+1001462772+1000798078+999729094+997570720+995511859+994602308
1177+994250892+993630570+992314865+990637218+988408237+985021446+982197973
1163+981445182+980674172+977952723+974604393+972520189+971275010+968876151
1150+965484178+963167910+961844675+959407759+955167934+950852886+947697592
1136+945413389+943406431+940603363+936704832+932375615+928062511+924485679
1123+921264475+917446187+913914943+911363776+909165807+906302010+902153116
1109+897994100+894549981+891381165+889145140+887346603+885608389+885380860
1096+885932113+885394301+884768878+885674624+886926523+887830812+890507888
1082+894753786+897331268+897047383+895580343+894862207+895460667+896846574
1069+898762114+901705344+905393997+908037875+907843139+906018691+906681442
1055+910309933+913822149+916300117+917422867+917383515+917557361+918191205
1042+919486262+920783990+920475894+918822620+916985055+915420363+914326844
1028+913623526+912829116+912308227+912287741+911493169+910154063+909829449
1015+909952283+909204593+907644031+906629459+907361035+908351802+908019252
1001+908102653+909406130+909731150+908022005+905688247+904174082+903905257
988+905461446+909765562+916155260+922046497+925819926+928641537+932622254
974+937183859+939028307+937301754+934371155+932919986+935407751+941091135
961+944852338+943164489+938452438+936422485+939827252+944956953+947224234
947+947161157+946848364+946608446+946363831+946395977+946562292+946226504
934+945315899+944062300+943223031+943509670+944005863+943384326+940877046
920+937978351+937529445+938282237+937742562+936992605+936929852+936612120
907+935440302+934237391+934242654+935239412+936121757+935575848+932873670
893+929624935+928491740+929795704+931565739+932509056+931856426+929621858
880+928292227+929083803+929677809+929188580+929230523+929306394+928668744
866+929062993+931834240+936533578+940623768+942687000+945137357+949699854
853+955730847+961862327+967633240+975083663+985509380+996449670+1004451832
839+1009379105+1014234069+1020368302+1024937519+1025588529+1025164886
827+1027392734+1031677093+1035026314+1036019914+1035617648+1035891007
816+1038327923+1040452127+1037561610+1031501304+1027905931+1027602126
804+1029319610+1031648510+1031369645+1026785772+1019918263+1014690829
793+1013436339+1013212291+1010517644+1006296928+1000269254+991582479+983220642
779+977154911+972571848+968494776+963415682+956243801+948409979+942495989
766+939527577+937715356+935823864+934866781+933399256+930656592+928427854
752+925964217+923756127+923328031+923119044+921086014+917722380+916303194
739+916494935+914638260+911752439+909483782+906567354+903568820+901162026
725+898393856+895251842+891806589+889299066+888983116+888420850+886583852
712+886778021+890244408+893583911+895635808+898785839+903954487+909975117
698+913576806+913939801+914155428+914805547+914891782+914942551+915314210
685+915507812+916260037+917437766+917346106+916696311+916588619+916470238
671+911964584+902293602+903869548+916562870+921184313+918994117+916980925
658+915811131+915241335+915824734+916849023+918443998+919915086+920507635
644+922543904+926728426+929910278+929615785+927980730+928292874+928012713
631+924403008+921776133+924070863+927854171+923421472+909177629+900597169
617+908810100+926148346+937813574+938829198+935114635+931085821+926170857
604+922832729+925662842+932011567
##END=
