##TITLE=Sample description
##JCAMP-DX=4.24
##DATA TYPE=INFRARED SPECTRUM
##DATE=13/9/2023
##SAMPLING PROCEDURE=Instrument type and / or accessory
##ORIGIN=Default
##XUNITS=1/CM
##YUNITS=ABSORBANCE
##RESOLUTION=4
##FIRSTX=4397.6552
##LASTX=599.8556
##DELTAX=-1.9287962
##MAXY=1.6603392
##MINY=0.27408904
##XFACTOR=1
##YFACTOR=1.5463114e-009
##NPOINTS=1970
##FIRSTY=0.29996562
##XYDATA=(X++(Y..Y))
4398+193987846+193644610+192619335+192180813+191717177+190793511+190585515
4384+191056801+191391769+192051123+193027001+193275259+193159601+193527699
4371+193789872+193208766+192260141+192033508+192697584+193054600+192063362
4357+190479127+189672583+189594064+189942061+190672417+190610454+189805067
4344+190123383+191007963+191008850+190663860+189899351+189030921+189423130
4330+189813586+188394194+186709063+186451824+186796679+187047211+187291826
4317+187176476+186469055+185232661+184071029+183713685+183820381+183600590
4303+183113326+183440199+184672892+185221502+184549408+183464348+182793526
4290+183305672+184228992+184026161+183364320+183236636+182885421+182160383
4276+182054381+182745902+183372107+182909975+181390709+180116791+179562958
4263+179180173+179007389+179424171+180511371+181499333+181274492+179810695
4249+178344488+178532421+180204253+181311497+180864918+179672294+179000451
4236+179578472+181041306+181766922+180852814+179578125+179024812+179206789
4222+179859494+180191629+180151502+180692153+181305965+180932644+180844777
4209+181746897+181864367+180670394+179261159+178269574+178234651+179324818
4195+180178215+179815648+179141685+178745814+178510141+178247583+177793912
4182+177825443+178618688+179243254+179171751+179041869+179126227+178832023
4168+178799759+179656876+180013834+179219741+178238120+177756946+177899721
4155+178043962+177609737+177253454+177563887+178102841+178373398+178493065
4141+179013691+179763244+179674723+178768460+178161740+178460224+179163309
4128+178983934+178320840+178890035+180104283+180252898+179376875+178654362
4114+178763815+179486597+180231563+180365743+179894128+179611911+179822914
4101+180196621+180616795+180836471+180757181+180984739+181425112+181245351
4087+180699573+180768899+181433438+181993092+182427856+183077536+184023848
4074+184970662+185160098+184596435+184313620+184352668+184288700+184863195
4060+185774681+185778535+185735691+186332485+186221394+185276932+184742179
4047+184914346+185600278+186540018+187124053+186930647+186343567+186165213
4033+186485475+186838290+187052164+187182046+187269219+187398580+187585549
4020+187862100+188376289+188773875+188670224+188457969+188585326+189127808
4006+189677305+189638720+189439705+189976617+190770036+190827875+190519735
3993+190790176+191466992+191784364+192236898+193449180+194162923+193333425
3979+191994441+191334046+191287578+191539517+192202360+193219694+194327632
3966+195109660+195142964+194923635+195066392+195307441+195502177+195682381
3952+195395577+194532583+194391098+195183785+195554427+196250420+197929980
3939+199151687+199011475+197474786+196246970+197453065+199400581+199222362
3925+197833017+197593201+197612898+196923805+197365951+200063616+202910090
3912+203990505+203356187+200586844+195900958+192949928+193935288+197298167
3898+201918254+204784232+203291063+201009832+202445973+203437115+201819132
3885+201461981+201566384+202057406+205286009+206387741+203692581+200814518
3871+199415652+201355824+203738933+203584034+205346758+209604066+211000157
3858+207308015+198875907+193505053+201505037+211675142+216227600+214750388
3844+209934177+205491134+202420494+201935812+205088575+208605100+211183618
3831+213830653+215755060+216185430+213918867+208083009+205544270+208811592
3817+211209811+215157785+220817197+222716587+219677960+215824097+214738439
3804+213111070+212769820+216971024+220538584+224049885+228824042+231444403
3790+231726312+231325526+230785087+231392655+232498588+233242821+235806885
3777+239634036+241641259+240494216+238392073+239648972+243713433+248026537
3763+250287935+249696480+251014206+255972075+258894177+257265093+258070422
3750+270616080+287061510+306627554+335612340+358782429+368293931+368637456
3736+368283407+377326302+392493978+404688151+412256725+419328706+429082549
3723+441048103+454910254+470390926+484751404+494768248+502667125+516055695
3709+536333383+557934289+577439508+594908131+612165442+628673452+640740808
3696+646214927+645784673+641457924+637892580+642039511+651922754+659154124
3682+659471592+653942351+645522018+637727447+637862167+640760697+639009537
3669+640642938+646754461+649952804+649031084+644606312+637113944+629781197
3655+627682348+626465865+619225628+611576030+613531178+618788205+619577749
3642+616395132+613091094+610066787+605233924+600384486+596342054+588728343
3628+583668211+586363602+587409171+582263659+574421561+571316846+572262156
3615+572197784+571766643+570594179+567695032+566994259+568254532+566782486
3601+563530254+561814248+560836520+559563142+558634136+557157657+553458404
3588+550672274+552523578+555427081+556910845+556999193+555117901+552955220
3574+552937565+553309461+550537979+544960670+542050923+543187654+544777999
3561+546479435+548115341+548145870+546822574+545869285+546084604+546004621
3547+544704646+543529483+543906929+545145963+545130583+543522159+542442939
3534+542630467+542483027+541235629+539272117+537475549+537681502+540074575
3520+542532251+543475364+542423319+540216194+538475017+537674873+537479211
3507+537240417+536518135+536383146+537041132+536931082+536162044+535589477
3493+534380163+532250901+530920629+531228922+531192650+529494723+528021366
3480+527746877+527192658+525722385+523800310+522507967+522925694+523669715
3466+522143820+519302261+517839620+517338094+516529584+515673084+515275209
3453+515253700+514467085+512346227+510417599+510056844+510134939+509596678
3439+509368368+509382939+508546329+507051386+505398596+503633058+502004707
3426+500620353+499439525+498827409+498617100+497942809+496682305+495850552
3412+496303934+497306563+497619714+497242268+496843159+496499827+496146550
3399+496260493+496661760+496565780+496088268+495405265+494135549+492548981
3385+491362910+491390856+493025067+494505555+494066512+492736432+491996342
3372+491883903+491687779+490979760+490182506+489731629+489347631+488848340
3358+488405481+487913360+487358447+486755428+485973824+485044356+483734937
3345+482236062+481635703+482126591+482238491+481191688+479500351+476975720
3331+474442224+473524821+472815530+470627601+468206659+466353544+464040147
3318+460652386+457109708+454537549+452577622+451051187+450436566+449441492
3304+446789388+443477602+441627262+441987092+442411256+441663997+440993560
3291+440889331+440738307+439875138+438548181+437281779+436212735+435880620
3277+435679909+434689538+434009927+434227714+433834850+432042561+430019610
3264+428505587+426959648+424934038+422582017+420802602+420437761+420572789
3250+419153706+416265351+414124834+413140399+412069505+410592525+408747582
3237+407024136+406649042+407398113+407699198+407194935+406591492+406079250
3223+405266654+403790484+401972908+400795318+400852096+401270748+400356313
3210+398072134+396539570+396800606+397025794+395907063+394492683+393559129
3196+393394459+394178607+394895376+395014176+395205520+394985652+393285450
3183+390939096+389378007+388618529+388174205+387665201+386775551+385751645
3169+385113510+384954776+384802595+384346400+383918612+383844950+384134086
3156+384451862+384247297+383558975+382843092+381980348+380969779+380724701
3142+381167059+380969817+380007084+378807136+377768004+377513097+377381192
3129+376519411+375438996+374306427+373210632+372849414+372882024+372127287
3115+370596381+369402947+368837473+368220770+367284402+366338051+365678870
3102+365493539+365424464+364764936+364038376+363977203+363820320+363357262
3088+363487549+364096427+364455216+364917194+365984311+366992491+367525702
3075+367922036+368095533+367905306+367534568+366867832+365863044+364992861
3061+364234962+363491673+363205004+362989839+362321792+361525116+360995066
3047+361300391+362590190+363845529+364573823+365701805+367246125+367798263
3034+367125013+366345683+365989206+365706585+365249155+365018725+365621089
3020+366764605+367628736+368286722+369329709+371152874+373501618+375721271
3007+378200031+381482329+385375972+390006505+395556831+401918249+409476994
2993+419021260+430173796+441465136+452315237+462655408+471537873+477833878
2980+481688319+484406452+486803688+489000058+491327756+493959199+496863704
2966+500496311+505216079+510817826+517234944+524276666+531128008+537363225
2953+543403938+549075993+553540739+557090702+560131006+561542226+560325357
2939+556566202+551334076+546146356+541154489+536076780+531340090+526468604
2926+521032182+515906984+511395867+506961458+502346266+497377758+492165715
2912+487172962+482476553+477937413+473528560+469432202+466224144+464101474
2899+462688828+462035853+462812562+465730250+470479506+475578493+480609214
2885+486502101+493004291+499216419+505308860+511280729+516362601+520022229
2872+522147520+522722131+521622751+518915834+515227103+511061053+506036114
2858+499470593+491196621+481097866+469155786+456206336+443259314+431027366
2845+420040040+410070723+400594106+391484102+382926776+375389271+368952379
2831+363111953+357693148+352790284+348282406+344263372+341084455+338840056
2818+337288103+335935165+334461346+333146530+332389634+332239226+332466457
2804+332678886+332710031+332700510+332462217+331776979+330931927+329930301
2791+328389950+326275761+323832077+321310164+318922179+316826839+314971835
2777+313143890+311281890+309403219+307610949+305946286+304234983+302727648
2764+301723843+300813629+299783401+298866249+298048315+297353710+296916806
2750+296557265+295998845+295190875+294406187+294043774+293868176+293266429
2737+292360109+291578196+290911711+290269567+289655428+289078543+288565530
2723+288123635+287746883+287322276+286733846+286194043+285927052+285707184
2710+285234799+284607630+284046897+283431967+282596379+281693643+280807443
2696+279858432+278985088+278390298+277861886+277010494+275886752+274718336
2683+273564104+272586376+271783090+270920827+270110294+269431628+268703661
2669+267980320+267259079+266405239+265488877+264555863+263659526+263036790
2656+262682472+262257711+261769695+261418846+261056145+260622672+260209975
2642+259826034+259506794+259198037+258923202+258829110+258841869+258809664
2629+258731916+258619495+258528160+258577249+258766993+259163924+259718220
2615+260026418+260123554+260469354+261057648+261614006+262065249+262390407
2602+262651019+263067030+263620844+264042850+264263007+264454043+264801037
2588+265164317+265174243+264871288+264598206+264438258+264285326+264055917
2575+263722973+263425800+263313688+263194888+262790344+262193859+261664830
2561+261295402+261006921+260659464+260217280+259843631+259726277+259730786
2548+259609057+259473027+259502862+259632975+259736896+259698273+259526838
2534+259497735+259796219+260141228+260184496+260021040+259951484+260155779
2521+260685830+261375424+261876199+262071706+262197559+262353884+262468309
2507+262687695+263165612+263801550+264332256+264581092+264688694+264854944
2494+265166919+265522933+265629726+265589560+265750722+266063275+266364958
2480+266553199+266435113+266061869+265802529+265852755+266034192+266064798
2467+265910092+265795089+265829164+265940409+266082182+266223840+266329187
2453+266311032+266142758+265976180+265855279+265816868+266015478+266282604
2440+266345589+266295112+266283105+266291084+266232186+266060751+265878504
2426+265753267+265636452+265651042+265937171+266296712+266514075+266667123
2413+266806507+266911391+267134979+267498124+267791809+267969276+268200497
2399+268608953+269002858+269154538+269242366+269443153+269483569+269074496
2386+268329049+267086025+264659187+260973443+256594830+251874850+247058311
2372+242199179+237254416+232548447+228335776+224773381+222242158+221383731
2359+222895654+226720164+232020787+238622927+245594649+249505522+248119550
2345+243428229+240176999+239887516+240937210+242497123+244321752+245842348
2332+246919718+248550305+251132775+253651932+255697895+258154723+261535179
2318+265198103+268310122+270635874+272637855+274843284+277284712+279799206
2305+282110464+284020473+285718459+287314778+288703160+290004002+291399399
2291+292740580+293898859+294989894+296017193+296805176+297297953+297709897
2278+298123461+298430136+298746061+299205900+299700064+300092716+300452122
2264+300814959+301080582+301356670+301775900+302205037+302505717+302748097
2251+303004565+303172376+303171451+303136239+303269301+303568575+303872436
2237+304040343+304044950+304015365+304089933+304235272+304300223+304290027
2224+304347249+304499392+304712784+305015778+305375299+305584645+305637280
2210+305905427+306503936+307102021+307564500+308026382+308483830+308944556
2197+309480966+309972914+310342439+310749122+311309605+311966762+312575120
2183+313054174+313585284+314311362+315049641+315662277+316255158+316976900
2170+317830258+318744808+319663406+320507320+321339305+322279488+323321685
2156+324406919+325428011+326342716+327275653+328337836+329517469+330751954
2143+331902293+332889388+333960051+335312757+336689517+337923424+339294324
2129+340864741+342324375+343577941+344729281+345898700+347276539+348945595
2116+350787918+352563324+354135012+355740853+357604144+359557326+361484488
2102+363481998+365608908+367925196+370465323+373114420+375786375+378578133
2089+381568326+384833664+388391298+392110750+396128204+400503406+404903124
2075+409325700+414031090+418963865+423968143+429080429+434455831+440266191
2062+446533941+453069782+459621619+466023857+472314389+478780614+485766753
2048+493022793+499942747+506628610+513526092+520714021+527992726+535091844
2035+542070851+549143218+556042820+562447179+568692842+575224789+581791929
2021+587714882+592827746+597697421+602765763+607824007+612509044+616763250
2008+620671039+624458988+628260466+631691206+634626202+637441549+640026544
1994+642054505+644085936+646759857+649452550+651445010+652871765+654029774
1981+654957044+655691969+656450484+657206763+657745178+657789352+657117644
1967+656432753+656696332+657497865+657769308+657237523+656374085+655690042
1954+655436638+655551583+655682641+655377200+654274620+652821886+652888417
1940+655076692+657290871+658476325+659551228+661318347+663671293+666291056
1927+668994850+671620164+674896218+679056910+683337789+688732581+695734600
1913+702443822+707965277+713439011+720213685+727980155+735283916+741865318
1900+748892007+756162772+762588986+768595277+774174474+779269915+785416205
1886+792350692+798220760+802725902+806544071+809689606+811717992+812755274
1873+812443974+810081623+807977147+809095145+811359896+812229964+811493729
1859+809243702+805820787+801777199+797512818+793256145+788561124+782529933
1846+774869696+768385893+766276637+765420832+762584438+758344263+753403548
1832+746612762+738669903+733410872+730897034+729489553+728972492+727176079
1819+723573692+720233420+717835067+715214918+712274526+710814931+710910834
1805+710438718+707952556+704346238+702305209+702004779+700453983+696855759
1792+695730746+699558397+703180905+703923847+703456511+702831984+702832832
1778+703923539+703106356+698292381+694026381+696391276+702341212+707301046
1765+709322493+708580322+708701820+710184467+711080746+712135759+711761552
1751+708815763+707817644+711285273+715376196+717377136+717885177+718997779
1738+720410425+718819849+717213083+722542192+730171206+736252200+740390458
1724+742517984+743146367+740941979+735939049+735784864+744251799+753589033
1711+759407217+761232463+760708927+761634425+762853491+761187673+762337741
1697+769702944+780738453+792276606+798967634+801706120+802266661+799446842
1684+801285194+814147799+825837747+831354962+833764571+838130715+843913591
1670+849629550+859295585+870034132+876293595+881332681+889434274+896641283
1657+898245427+894034779+896040037+911304156+921806492+927794974+938065338
1643+948722244+954232135+954829064+951618077+950794264+959326882+968772585
1630+972750568+973100260+973088311+974483919+979399040+984140471+984682124
1616+986006114+991647217+996651071+999494558+1001877955+1005696509+1010288458
1603+1013690481+1016137325+1018977728+1022365951+1025824406+1030102433
1591+1034428026+1035652566+1033253056+1029554535+1027372966+1027166589
1580+1025586652+1021021069+1018829864+1022175301+1023983587+1022946074
1568+1025009999+1030651024+1036751522+1038830172+1030319834+1023962849
1557+1039988490+1059088740+1069594931+1070443721+1066352875+1060809757
1545+1052644178+1041957668+1031515464+1031994827+1041029935+1045551112
1533+1049270140+1057648572+1062984156+1061785982+1057164584+1049394413
1522+1042699222+1044758445+1050389140+1055828722+1061302765+1063315501
1510+1059628158+1050164569+1046429274+1058235941+1068973101+1071138712
1499+1067026588+1064227430+1067017954+1068415721+1063253595+1057993562
1487+1061805718+1069886187+1073741823+1072179000+1068361294+1063229003
1476+1056070485+1049404589+1051204858+1059160282+1061692546+1056669572
1464+1050413501+1046024230+1038591801+1025340803+1017727053+1021785058
1452+1025482114+1023266316+1016844496+1011320575+1007921713+1003284048
1441+996469133+986619386+971881116+960146454+955261168+950694352+947058276
1427+945829881+944042333+943775361+944885804+944629857+949362884+959516761
1414+967447516+971728550+975055562+978622948+982321007+987248231+991914883
1400+994085196+996008041+999776717+1005410804+1011554782+1014892664+1015679472
1387+1017356083+1019172772+1018568597+1017894113+1020158248+1024753666
1375+1029937069+1035127796+1039060448+1040259393+1039806474+1038937022
1364+1037955016+1038039509+1039028917+1039849029+1040074987+1039786969
1352+1039795989+1040040219+1039336902+1036677513+1031647216+1024488235
1341+1016922437+1011663945+1009453852+1008608146+1007444123+1006061929
1329+1006102942+1008020160+1009425328+1008822232+1007963497+1008937486
1317+1013233244+1018984435+1022198275+1023692408+1026116741+1029708181
1306+1033748685+1037273748+1039214787+1038780910+1037967042+1038664423
1294+1039518995+1040673535+1043185215+1046004185+1048443860+1051467744
1283+1055794416+1060210593+1063127009+1064025062+1062860037+1060181683
1271+1057171600+1054832608+1053001271+1050348435+1046042269+1041132930
1260+1036492799+1031732172+1027788496+1025979131+1025716476+1024994272
1248+1022263649+1018382187+1015055021+1012653430+1010683327+1008992530
1236+1008355282+1008560580+1008499368+1008495359+1008295843+1006862074
1225+1005677313+1006615069+1008442628+1008332848+1006030089+1004730769
1213+1005473249+1005595981+1004806397+1005514725+1008193233+1010389758
1202+1009278312+1006328053+1005395154+1005906279+1005171817+1003388817
1190+1001471060+999451771+997673860+996279793+994613435+992806922+991791457
1177+990687336+987969202+985068436+984467190+984854427+983008057+979437432
1163+977109311+977059355+977380214+975708845+972690512+970078381+967763828
1150+965791643+964750352+963805196+961769332+958628114+955265408+952400953
1136+949928128+947479356+944656299+941992053+940247292+937887948+934271761
1123+931293825+928961078+925251687+919820045+914798536+911446778+909009878
1109+907241141+905830961+904132224+902614115+901194222+898602135+895106753
1096+892773080+892300734+893296000+895249837+895194947+892003310+891053528
1082+895185696+899223348+900032204+900837514+902244224+902183861+902360403
1069+904368976+906573441+908459205+910607238+912474192+914155506+916129849
1055+916994213+916337460+916635500+917716108+917452914+917770921+920384517
1042+922660833+922442892+920388218+918790087+919923272+922140920+921652461
1028+919060373+917567088+917575800+916353958+912335194+908162013+906435522
1015+906485247+905789177+902276835+897394710+894084735+892699226+892147011
1001+891645369+891204322+891824918+893389899+894199603+894881642+898368930
988+905173130+913500681+920766512+923709679+923520185+924887809+928259535
974+931409233+933069886+932399180+930252612+929047653+929062763+927646648
961+925181147+925144528+927150633+928667432+929217334+929249019+928646617
947+926664872+923966706+922465634+922496009+922632077+921474608+918726639
934+915538703+913475626+912111471+910398471+909195363+909144173+909339758
920+908178819+904676421+900486434+898127553+897470337+896790534+895285531
907+893400923+892277529+891879499+891528805+891500049+891234850+890867195
893+891673276+892789270+893275031+894191894+896479851+899458712+902453454
880+905318681+906708739+906835094+907134676+907357474+908386044+910895411
866+913183059+915477260+919701014+925001598+929110098+932033067+936103406
853+943037584+951960368+962446823+974800231+986351566+995689340+1004656838
839+1012260103+1016674738+1018376482+1018954754+1022102140+1028128089
827+1032879928+1035051706+1035758260+1036820289+1038340479+1037904597
816+1036007346+1035819240+1038272329+1039117651+1035469933+1030800892
804+1027542031+1025051089+1022912538+1021717293+1022418528+1022649652
793+1017752263+1009326804+1002983156+999713347+997244531+993051152+987402417
779+981364287+973332309+965214527+959475285+954346078+948925461+944086584
766+940888163+939134767+937549357+935215607+931530654+926726701+922410590
752+921469288+924168380+927493542+929545440+929424405+927746791+925867580
739+923555185+921647989+920942206+919154812+914077103+907343443+902395095
725+899922039+897791428+895045310+892930581+892175612+892640558+894055671
712+895768362+898338016+903325218+909609890+913595582+914575815+914985640
698+915884078+916683683+916689388+916655930+918441859+920743846+920364782
685+919016045+920389528+922742705+923167255+923895626+926407306+926417945
671+919697467+908194315+905175519+914938536+921969234+919690760+913349810
658+912469027+918291837+922860657+921924906+920766280+924626002+931233230
644+935530762+935296554+929514141+922705547+923845747+931702956+934885342
631+931159838+926413704+922057428+920311511+923354204+930369099+939255957
617+937195964+915718175+893097795+889143249+905515421+929561630+943283510
604+940135353+934854196+944258039
##END=
