##TITLE=Sample description
##JCAMP-DX=4.24
##DATA TYPE=INFRARED SPECTRUM
##DATE=13/9/2023
##SAMPLING PROCEDURE=Instrument type and / or accessory
##ORIGIN=Default
##XUNITS=1/CM
##YUNITS=ABSORBANCE
##RESOLUTION=4
##FIRSTX=4397.6552
##LASTX=599.8556
##DELTAX=-1.9287962
##MAXY=1.6803198
##MINY=0.27372241
##XFACTOR=1
##YFACTOR=1.5649198e-009
##NPOINTS=1970
##FIRSTY=0.30520245
##XYDATA=(X++(Y..Y))
4398+195027543+194887494+195540912+194967897+193076810+192638303+193356147
4384+192809527+191609813+191410974+192591645+194746625+196361708+196152186
4371+194926039+194117774+194198425+194735104+195057785+195271078+195596902
4357+195422916+194547654+194191398+195140665+195919564+194656033+192220535
4344+191138931+191736665+192684408+193455290+193847235+194220763+194959651
4330+194778448+193064279+191413869+190936741+191337560+191476429+190970677
4317+191295111+192166335+192074543+192061232+193176810+194364070+194098158
4303+192485170+191459441+191952167+192918402+193490712+193691797+193287855
4290+192454757+192010651+192177857+193065821+194150758+193713984+191731161
4276+190415354+190184351+190079190+190751100+192089950+192750796+192674391
4263+192588446+192802119+193058508+193207642+193370735+193552281+193243521
4249+192269173+191681913+191567059+191444568+191750834+191946149+191234437
4236+190232989+189838436+190196234+191004423+191957061+192523296+192277210
4222+191705509+191810060+192471135+192340131+191075343+189946472+190111355
4209+191298367+192151691+192059480+191711889+191465478+191206175+191415659
4195+191958451+192149386+192597796+193256299+192550510+190848815+190321353
4182+191286579+191920135+191618325+191489969+191398539+190453576+188857765
4168+187675666+187964183+189513202+191323848+192501338+192408537+191544473
4155+190933351+190694939+190425581+190316992+190694844+191130799+191418325
4141+191711679+191414326+190575038+190528857+191239160+191410803+190650681
4128+189343768+188398976+188460260+189187912+190037293+190512936+190505642
4114+190495358+190675362+190618249+190000557+189201528+188852604+188977362
4101+189244758+189724038+190186484+189922858+189401014+189499453+189479152
4087+188902004+188934779+189858432+190554985+190233084+189352014+188832875
4074+188492387+187980827+187947519+188472467+188511964+187985112+188057137
4060+189012402+190073362+190663631+190822725+190887150+190708023+189890464
4047+188964126+188755290+189005794+189205737+189242149+189115602+189161365
4033+189610174+190253214+190467630+189809222+189074829+189230494+189568525
4020+189122877+188860317+189879114+191328362+191656642+190865726+190571420
4006+191046891+191015716+190558108+190293168+189940378+189845634+190423048
3993+191023753+191365878+191679533+192022115+192145425+191791207+191459175
3979+191362241+191025257+190512707+190380694+190857270+191447044+191856909
3966+192048187+191844206+192043254+192875153+193135599+192474582+191276029
3952+190002785+189586008+190542321+191365840+191020058+191340778+192664241
3939+193371573+192933332+190852985+188498767+189001947+191410079+192247653
3925+191771230+191944663+191634227+190373610+190338855+192216307+194212536
3912+195249577+195319031+192999282+187416820+182262087+181563725+184642872
3898+189390216+192358661+191067745+188973534+190614060+191702995+189897834
3885+189324895+189064869+188748643+191388883+192335884+189478200+186491758
3871+184854889+186612021+189236741+188747082+189414459+193154928+194735047
3858+190798120+181137197+174911468+183350833+193496501+197316879+195488598
3844+190995492+186312250+182495871+182299718+186269972+189689759+191572296
3831+193535065+194803015+195024553+193133275+187281132+184354184+188013754
3817+191135808+195063727+199892903+200557881+196252205+191636646+190317145
3804+188574238+188240835+192257004+195000844+197346016+201444303+204166375
3790+204587419+203994922+203474240+203994522+203955920+202649388+203479934
3777+206338781+207492828+205696998+203300787+204075954+207168699+210082582
3763+211177250+209734172+209731830+213168661+214789077+212317681+215266929
3750+234779100+258579122+281438809+306520130+320048336+317925235+306187831
3736+293875737+290905141+296309788+302420834+305543040+307926758+313396040
3723+322282501+333345234+345257595+355652797+361625336+364669747+374622100
3709+395210943+419300491+443059473+465123197+482180217+492233542+495397282
3696+491785132+482246452+469171798+458343116+454410874+454156561+452154199
3682+445696609+435499655+423080762+411607517+408809726+407564972+400158725
3669+396664533+399325817+400036158+396889671+390938233+382624577+373803856
3655+367944248+360785420+347217222+336721010+339796463+346348396+347871916
3642+344804881+340180809+335144815+329301775+322645708+314526968+305361684
3628+303388345+307551743+307737137+301921558+293889144+290118681+289594990
3615+286856978+283000874+279980801+277911328+278182629+278681620+276056424
3601+271888646+269124963+267149548+265433818+264681561+262429285+256274932
3588+251441091+253250632+256457107+256558574+254349908+251972018+250155088
3574+248262077+245225245+239828577+233579786+232099229+235083461+237039070
3561+237239756+237002829+236022159+234040003+232124234+230906028+229202276
3547+227217702+226735298+227277785+227143906+226027223+224747848+223952971
3534+223442877+222550438+221086107+219694486+218727203+218095362+217969710
3520+218308521+218765025+218894276+217978565+216071290+214631183+214325051
3507+213801855+212497475+211957044+212666757+213110006+212819318+212717414
3493+212787058+212041524+210815186+210234420+209997532+209390524+208763233
3480+208633506+208757196+208561596+208100883+207955997+208053483+207874336
3466+207321927+206545675+206110500+206363938+206510196+206172279+206026935
3453+206079497+205462052+204354739+204228420+205129544+205678811+205686410
3439+205574755+205381744+205254149+205216309+205074317+204849464+204779268
3426+204628249+203980163+203541313+204137409+205118670+205658796+205889761
3412+205997569+205892885+205897760+206332496+206873269+207130420+206819032
3399+206279021+206502254+207273765+207904273+208415681+208580525+208481763
3385+208560434+208963291+209688162+210321299+210571746+210636858+210710234
3372+210964338+211366300+211634915+211734287+211818899+211995666+212401569
3358+212899589+213202807+213499189+213966624+214168509+213843581+213529526
3345+213619661+213770814+213771518+213475517+212666928+212029735+211959482
3331+211829507+211545942+211215224+210731068+210170413+209494447+208855330
3318+208250550+207278259+206029468+204800273+203668184+202965746+202574564
3304+201528858+199643560+197995721+197567288+198165384+198639161+198631486
3291+198737142+198859119+198723221+198632267+198787799+199089075+199271459
3277+199412423+199667079+199944055+200376715+200572240+200240170+200198407
3264+200690275+201121659+201451082+201964242+202406196+202354320+202177592
3250+202549826+203227125+203532210+203517051+203689761+204242437+204662890
3237+204570908+204605168+205139333+205806768+206372907+206738857+206923241
3223+207059501+207506634+208512138+209499208+210173517+210886125+211660320
3210+212742914+213990543+214558492+214836763+215627641+216687668+217731279
3196+218752551+219815644+221118748+222522614+223581689+224259312+224933451
3183+225657637+226142973+226526824+227236384+228225967+229078833+229672206
3169+230365064+231341050+232309837+233047544+233712998+234670816+235930424
3156+236961085+237559428+238053791+238378777+238594545+239201935+239866970
3142+240204963+240609990+241013914+240941546+240634729+240742689+241059848
3129+241067256+240784053+240193041+239642727+239696469+240006810+239782719
3115+238955867+238381215+238386223+237991098+236774644+235617512+234978091
3102+234498201+233835318+232955714+232361370+232410408+232780909+233282776
3088+233945564+234637832+235057009+234926406+234553715+234615646+235271045
3075+235943088+236135375+236066741+236086794+236253144+236466227+236583976
3061+236650363+236790965+236914275+236900354+236878948+236811361+236510161
3047+236220635+236073330+235669064+234780929+233675310+232635070+231645202
3034+230615931+229534918+228498772+227532480+226573024+225657103+224781499
3020+224079746+223664397+223314349+222820596+222067863+221109550+220124652
3007+219229565+218563482+218227679+218333145+218752246+219195914+220198561
2993+222563102+225824367+228893097+231281995+232899610+233977005+234896240
2980+235605267+235912370+235879081+235490793+234464360+232909094+231622216
2966+230951867+230390241+229606352+228719054+227946782+227589478+227645373
2953+227657561+227511512+227598086+227973424+228274434+228198639+227608808
2939+226746801+225986793+225342611+224812674+224438878+224088735+223812978
2926+223806237+223812445+223367139+222657750+222089763+221551790+221029984
2912+220874071+221258379+221954856+222518367+222911321+223443868+223909093
2899+223934955+223838440+224199171+225063578+225907437+226347810+226596677
2885+226997534+227542173+227974072+228204219+228316845+228200733+227874072
2872+227693992+227678833+227620958+227670815+227821491+227698162+227274910
2858+226860379+226664950+226608865+226189516+225258398+224454837+224190906
2845+224333127+224666073+225011893+225413531+226048153+226812426+227537336
2831+228335755+229193249+229836536+230107571+230071406+229982185+230034899
2818+230176681+230281671+230377043+230680433+231290774+231915188+232360742
2804+232965179+233837299+234685518+235502239+236228996+236620197+236810238
2791+237092927+237382186+237390318+237133662+236917569+236887175+236893003
2777+236797478+236542555+236144936+235794888+235560952+235386813+235323549
2764+235354648+235367769+235313818+235348440+235677082+236058628+236147887
2750+236149030+236249297+236239641+236007133+235584661+235174511+235006428
2737+234919931+234772206+234650477+234599953+234702524+234889156+234969026
2723+234937185+234830824+234712694+234555124+234247221+234033071+234151067
2710+234409571+234593802+234644174+234538041+234312846+234056743+233829738
2696+233664417+233597306+233555867+233397363+233223320+233181214+233050858
2683+232679690+232260513+231884794+231465579+230977195+230481899+230004314
2669+229572282+229271977+229052324+228797687+228521206+228228842+227885689
2656+227547334+227252838+227034403+227031413+227185327+227240726+227140821
2642+227054742+227112960+227222710+227306351+227346801+227217130+226961350
2629+226870796+227106466+227422843+227589574+227820082+228222672+228589479
2615+228853695+229139907+229570454+230132651+230663617+231014198+231263731
2602+231671806+232353714+233165369+233935432+234650344+235296088+235788584
2588+236149106+236466874+236717017+236803229+236872035+237201039+237700316
2575+238111152+238379901+238553620+238736214+239004201+239216979+239152344
2561+238875502+238711990+238741813+238670283+238404829+238344022+238691537
2548+239088775+239230424+239176301+239133014+239216427+239321493+239355429
2534+239416599+239552249+239657238+239729225+239842898+239892165+239849183
2521+239935566+240186585+240452306+240676302+240796222+240836481+240927416
2507+241106886+241397498+241732367+241919893+241937585+242013342+242369846
2494+242861105+243215971+243575845+244080930+244533491+244923284+245356268
2480+245656992+245701193+245543718+245271160+245098945+245084072+245072550
2467+245122217+245306696+245513152+245630520+245614904+245548784+245507382
2453+245513438+245638214+245791442+245855792+245981254+246262095+246497289
2440+246595632+246793232+247134596+247342347+247343128+247304507+247317380
2426+247358001+247439243+247600774+247795175+247945546+248024541+248042557
2413+247966857+247856478+247935453+248226160+248571637+248901155+249140176
2399+249301631+249560115+249906945+250205440+250458859+250552612+250364381
2386+249878988+248675408+246230692+242663485+238473026+234105381+229834518
2372+225406542+220661350+216294314+212574755+209231639+206813319+206206787
2359+207800750+211412234+216602846+223403989+230494621+234207152+232553848
2345+227841069+224713911+224466854+225697934+227554761+229515740+231209151
2332+232633242+234526215+237290641+240031929+242192280+244539128+247717799
2318+251375236+254703441+257276132+259504603+261852690+264314450+266770135
2305+269015098+270995197+272860042+274563680+276016660+277353453+278786343
2291+280382363+281976421+283322679+284429592+285409310+286167890+286744618
2278+287321137+287884097+288400455+288967852+289615177+290196818+290671928
2264+291203236+291869605+292568462+293095238+293379698+293688839+294211521
2251+294712549+295025328+295282460+295527880+295698361+295799752+295897524
2237+296085450+296313102+296433764+296519310+296689278+296957893+297342791
2224+297729537+298005846+298222243+298405560+298548562+298751780+299115025
2210+299529556+299893620+300298705+300804818+301360331+301935574+302552428
2197+303247191+303992421+304684784+305381547+306200191+307049763+307852372
2183+308685032+309615712+310526034+311289851+312031557+312827977+313571074
2170+314331253+315354601+316588480+317757134+318802935+319784158+320798898
2156+321950526+323084634+324067990+325114495+326353422+327578598+328679988
2143+329815163+331027427+332189872+333408155+334862278+336381494+337762945
2129+339089969+340497053+341989340+343487532+345005757+346642283+348306919
2116+349929696+351693246+353621145+355537619+357401150+359314728+361421185
2102+363736249+366152779+368668224+371372890+374274966+377360665+380658513
2089+384149125+387798373+391488794+395171141+399197689+403838177+408830522
2075+413876228+419053528+424527686+430173126+435787181+441531345+447686212
2062+454125786+460674596+467457648+474443442+481524342+488893111+496596635
2048+504263633+511616938+518805436+526123662+533591612+541057962+548559620
2035+555964877+562985598+569974210+577183657+583897617+589776727+595338106
2021+600923367+606693849+612713618+618652906+624046965+628756012+633118305
2008+637552509+641838588+645338189+648091112+650747749+653623316+656203168
1994+657882696+659387324+661568090+664006711+666376622+668443581+669723642
1981+670270586+670551370+671072185+671859312+672356665+672163787+671422900
1967+671095038+671788392+672392163+672364511+672492715+672561121+672034593
1954+671490239+671369576+671323261+671068529+670496904+669902732+670904141
1940+674002447+677243125+679526500+681248534+683433718+686666246+690171788
1927+693141813+695928178+699786720+704609344+709420771+715488569+723037303
1913+729822374+735619518+742026374+749695924+757969930+765565818+771878597
1900+777751460+783437844+788653232+794034760+799406766+804807338+811169480
1886+817017586+820811835+823846838+827387802+830750134+833000067+834095554
1873+833294487+829920882+827177861+828791421+831834194+832517873+831134898
1859+828976300+826133946+822800561+819706064+816468662+811789552+805135276
1846+797255785+791863136+791215488+790206994+785953784+781204669+777258525
1832+771418342+763637042+758550772+756235098+754339612+753250143+751595905
1819+748560140+745782307+743539534+740454940+736841380+734969204+734831020
1805+733861910+731020241+728082819+726863775+726498587+724654138+720915879
1792+719900072+724106890+727684495+728008243+727538161+727426335+727763794
1778+728545969+727539913+723371411+719587522+721431285+726638827+731099159
1765+732945970+732093560+731719536+732792932+734086781+736119308+736498512
1751+733369889+731268879+734023631+738406949+740759339+741012929+742084268
1738+743968938+742336030+740120528+745317405+753208932+759342926+763231786
1724+765582272+767055743+764734509+758400248+757787032+767168179+777981968
1711+785201013+787306441+785939082+785718020+785992939+783745747+784392177
1697+790230685+799347959+810974165+819132612+822529298+822374204+818055940
1684+818532193+831476471+843895746+849258839+850357906+852591919+855316734
1670+858035606+866569830+876916279+881587542+884113690+890137762+896112854
1657+895833821+886660558+881266689+892258121+899898343+902259493+910162827
1643+920658277+926543176+926147060+919656410+915550144+923773874+933367096
1630+936530760+936598100+936341006+935672714+938402175+942827619+943189683
1616+944258584+950844531+955252377+955170184+954829068+955863233+957337923
1603+960020613+963598827+965563177+966123375+967571709+969520595+970764777
1589+972112406+973654665+975017072+977243087+980224691+980990107+977592201
1576+976215397+981049524+982392430+979027509+980794411+986854362+990441870
1562+988391669+977150457+970663082+985112217+999885786+1008792510+1015376019
1549+1020554995+1021637455+1018008813+1011883807+1007149089+1015768630
1537+1031485866+1039522965+1042662787+1047653456+1051217196+1050113483
1526+1047180022+1043180250+1039549779+1041379831+1046387716+1052270710
1514+1057351343+1057532489+1051203028+1040491771+1039376936+1053282251
1503+1063939194+1067297488+1066257152+1065844050+1069071474+1069808172
1491+1064626530+1061275396+1065568674+1070664390+1072459324+1073545365
1479+1073741823+1067778615+1056041192+1046402265+1045716910+1050678632
1468+1051402761+1044771871+1039510244+1039688038+1034828773+1021422944
1456+1015796662+1021461413+1023357509+1017609422+1008044081+1001967523
1445+999217114+993264342+983158380+969893095+955957005+949356509+946694997
1431+940985379+935877551+933179093+929138415+926765838+929040148+933737997
1418+942095796+951795969+958810938+964376355+968867995+970661330+971089058
1404+973959674+979148019+984245944+988981500+992182034+995358877+1001693595
1391+1007159906+1007466896+1006171066+1007994414+1010297595+1011071238
1379+1013777009+1019252538+1024013460+1027187028+1029316375+1030082172
1368+1030242827+1029241189+1026985694+1026957205+1029518927+1030476916
1356+1028547454+1026590341+1026442864+1025898359+1023533323+1021144521
1344+1018480266+1013669601+1007866515+1003477864+1001124560+999650022+997983596
1331+996447203+995589690+995768932+996979673+998597346+999975064+1000562381
1317+1001693290+1005382949+1010266515+1013874285+1016218220+1018241378
1306+1020181123+1021271201+1021698015+1023498358+1025928296+1026138694
1294+1025119002+1025672649+1027607138+1029906738+1033766194+1039474289
1283+1045276156+1049734888+1051334050+1049706855+1046527956+1043448466
1271+1041197237+1038168937+1032472802+1026151187+1021865679+1018997958
1260+1016102509+1012787940+1009237149+1006129855+1003876417+1001778531
1248+999080682+996372322+994634672+993746841+993265408+993080529+992410638
1234+990477444+988376663+987595554+987558076+987502848+988331719+990128482
1221+991413494+991651773+991606905+991404048+990843850+991111761+993065903
1207+995244765+995774264+994789994+993703877+992945165+992437756+992652649
1194+993005039+992288451+991329167+991033681+990088489+988130995+986137089
1180+984119416+982112255+979840230+977079080+974844381+973259007+971800466
1167+970572661+969425832+968491381+967964929+967430935+966450017+964043542
1153+959773726+955687571+953025754+949988617+945909165+943047996+942977990
1140+943593720+942164431+939590901+937226475+934726380+931959364+929190976
1126+927175817+926014667+923931482+919976502+915768388+911636680+907064750
1113+904242354+903909693+904055647+902564807+897932317+891755207+887471908
1099+886093885+885510986+884604797+884588800+885367090+886295827+886994437
1086+887058653+887607349+888593447+888017785+886728050+887868785+891603845
1072+894896476+896004836+896926261+899972005+904066387+906170596+905781870
1059+906353571+908693545+909405181+908670006+909225024+910951172+912787242
1045+914425025+915481586+915861171+916131443+916205943+914805753+912261551
1032+911212608+912200763+912276863+910048944+907049439+903550600+900519939
1018+899613368+898844296+896871566+894580193+893093009+893373642+892661853
1005+889404645+886470575+884868213+884515214+884998398+884586362+884641666
991+888310758+895368614+903400533+910594973+916437214+920840794+922407963
978+920336966+916992079+914820683+913257552+911293583+909480366+908127710
964+906733080+905222891+904601295+905800762+907538641+906429214+902808189
951+902006665+904225214+904281356+901410893+897977337+895140163+893488591
937+892463186+890456864+887359168+884781373+882307024+878203196+873793674
924+870764917+867462536+863064592+859280931+856273808+853233625+850311743
910+847704773+845523245+843137109+839299973+834804981+832085118+830732232
897+828118406+824239906+820761406+818794314+818700694+819021166+818775880
883+819016443+820256436+822231374+824398276+826172719+828467749+832319206
870+837056819+842020750+847886605+855546937+865138635+875935818+886367813
856+896323937+908807809+924752964+940501814+954257443+967200275+979253218
843+990064951+998751907+1005077865+1011142920+1016325095+1018414602+1019165240
829+1022383980+1028164518+1031798264+1031414337+1031277373+1034507082
818+1036805844+1032758996+1026611518+1024309175+1024421535+1024471354
806+1024150882+1022446368+1018282208+1012551566+1008420009+1007294662
795+1008773771+1014441111+1019011060+1012968553+1000249603+989047087+980626671
781+973065749+964643580+956626440+949800006+943141692+936523600+930555745
768+925657401+920923217+917069017+915948011+915934300+914626054+912677396
754+912451915+913248030+911989374+910230243+910677929+911248182+910041174
741+908252790+906387088+903705923+900925271+899727251+900198476+899210854
727+893353227+885364652+880698797+879489047+878863718+878583086+879335247
714+880599464+883096969+887043875+890239457+892842543+896950789+900800723
700+902478804+905302876+910608075+914953153+916657286+915312094+912219350
687+911855990+915337461+918096936+916387623+912812151+912261856+914474159
673+915311942+911972768+906840107+910287832+917940546+916811085+911051496
660+907604000+906321425+906106532+908902648+914456714+917331977+916448716
646+916949802+920539747+924606173+927486615+929211239+935982293+958256529
633+973362302+947052643+910534489+896712892+903134070+922307258+940750224
619+938076675+914740927+895049970+896261625+910812836+920333234+926676484
606+940653175+954077896+957165766+951875801
##END=
