##TITLE=Sample description
##JCAMP-DX=4.24
##DATA TYPE=INFRARED SPECTRUM
##DATE=13/9/2023
##SAMPLING PROCEDURE=Instrument type and / or accessory
##ORIGIN=Default
##XUNITS=1/CM
##YUNITS=ABSORBANCE
##RESOLUTION=4
##FIRSTX=4397.6552
##LASTX=599.8556
##DELTAX=-1.9287962
##MAXY=1.570807
##MINY=0.21782243
##XFACTOR=1
##YFACTOR=1.462928e-009
##NPOINTS=1970
##FIRSTY=0.22846138
##XYDATA=(X++(Y..Y))
4398+156167210+157758321+158907651+158234754+157224216+157609526+158582763
4384+158922787+158428244+157690300+158171551+159681317+161077247+162489841
4371+163567850+164182840+165381042+166534396+165766831+163394782+161603743
4357+161286373+160862886+159277061+157633086+156520761+155673971+154918354
4344+154103751+153565948+153326479+153135220+153490094+154555279+154820386
4330+152894966+150391040+149692536+150234443+150431366+150550989+151340921
4317+152101601+151825656+150775851+149856843+149639630+149879069+149981579
4303+150069738+150176394+150017821+149930110+150318578+151119522+151719091
4290+151903628+152392030+153377174+154439415+155038578+154469066+152804801
4276+151199308+150635623+151047233+151507185+151024101+149959547+149239204
4263+148894841+149401078+150776463+151307522+150735740+150559300+151037872
4249+151820461+152813184+153119269+152514688+152146642+151930692+151081549
4236+150226926+150059216+150245332+150376658+150674716+151529329+152631835
4222+153363169+153891447+154858512+156112003+156651618+155982694+155607528
4209+156594690+156798824+155510050+154719210+154423526+154236666+154961328
4195+156058242+156483196+156376621+156287464+156577455+157008887+156887808
4182+156510056+156581917+156922633+156873945+156011132+154959087+154845963
4168+155953165+157336199+157829948+157526043+156930436+156047730+155724054
4155+156966758+158329472+157847865+156744513+156918997+157744173+158366457
4141+159066204+159476836+159234851+159037205+159312223+159783176+160125400
4128+160606518+161701497+163056866+164035247+164437762+164338786+163974591
4114+163919506+164705782+165929184+166780944+166981993+166857084+167019161
4101+167634193+168347609+168813164+169142156+169990057+171409393+172390311
4087+172616478+172933909+173608742+174219547+174979635+175957069+176268328
4074+175996060+176055545+176156711+175940344+175858857+176017328+176525439
4060+177676480+178820188+179394364+179823800+180012727+179645792+178909885
4047+178401896+178956414+180081522+180691797+180657552+180375547+180631945
4033+181556636+182129101+182084467+182317703+182848507+183030406+182971654
4020+182671701+182313384+182754370+183616968+183533424+182894486+183267309
4006+184432121+185098785+185258275+185387839+185081286+184306937+184046017
3993+184609966+185561528+186633711+187322559+187243517+186950491+187058053
3979+187161378+186793649+186351481+186248910+186758100+188045367+189291565
3966+189502881+189048918+189090354+189664245+190108653+190397361+190152330
3952+189106977+188311259+188895071+189639738+189144665+189602865+191863980
3939+193297231+192723788+190483635+188786510+190155142+192218163+191748249
3925+190689043+191510898+191862941+190573128+190705951+193731759+196744020
3912+197363931+195972870+192114695+185456940+180807040+182235686+187399422
3898+193528694+196686042+193907954+190400987+192534026+194203792+192416461
3885+192225069+191824174+191961724+196189889+197283483+193730231+190436740
3871+188499615+190624200+193262436+192234643+193908423+199390547+201181118
3858+195314497+182664531+177097354+190334188+203318088+207910785+205705121
3844+199818312+193689631+189215029+189649761+195196117+200150452+203585629
3831+206686548+207901393+207634809+205107252+198134592+195343038+199855430
3817+203119790+208551821+215484410+216703452+211902211+207611341+207048777
3804+204122851+203119607+209589636+214736504+218486974+223778786+227673121
3790+229269427+228953604+228109401+229187105+230002747+229669221+232919647
3777+238510414+240992277+239328684+237077877+238798531+243344740+248564783
3763+252041396+251387464+251458684+255371475+257145340+254285990+256983304
3750+276232090+297832585+317858490+346397442+370306396+379623390+378640701
3736+376031535+381948249+393789419+402188831+404788911+406578279+411864286
3723+420322858+431890069+444197384+453313554+458201579+462098848+474308012
3709+496455384+517905923+531879072+541852443+557150974+577522506+595062290
3696+607594183+615135988+617842612+625262594+646791930+671045818+687678655
3682+697157523+703031497+707429746+712497409+722291875+731961341+740196802
3669+754828894+771849770+783756374+790434623+794044080+795381033+796638456
3655+801862329+807067948+807392347+806512860+812931574+826947300+842351560
3642+853432132+859143378+864814776+873137428+879392027+879543348+875281753
3628+878451425+892330253+904498918+908406372+907767190+909982816+913521135
3615+914497998+916703682+924762969+936834502+950297421+961733439+964242987
3601+959465336+959189747+965899450+970817340+969998235+968475899+969628611
3588+971775380+975269941+985353196+999297621+1007094765+1007376383+1006814858
3574+1008930418+1012664060+1012324260+1004497781+1001667746+1011387163
3562+1022207221+1027574511+1029364531+1032749899+1039787668+1044301546
3551+1044832188+1045273847+1043724294+1041396543+1043865266+1049319176
3539+1051847874+1050357562+1051180660+1058610299+1063220821+1055606778
3528+1045687799+1045226258+1052421541+1060836273+1067179448+1068758173
3516+1063528026+1057053575+1053962293+1052841279+1054706593+1059537863
3505+1062543584+1060916782+1059042179+1060372776+1062690912+1062832781
3493+1058453681+1052646852+1051252939+1056365827+1063003821+1059747202
3481+1049546687+1049318769+1061104365+1071429962+1071923120+1068481363
3470+1069585834+1073741823+1073534195+1068969957+1063346636+1056365990
3458+1052709434+1055612156+1056666921+1051859445+1048975221+1049145365
3447+1047852007+1048488011+1052836716+1055581191+1056377480+1058080227
3435+1060328692+1062560289+1062129957+1057129439+1051350886+1049385669
3424+1052258975+1054334443+1049127764+1041039549+1038260035+1038217988
3412+1034439691+1030830804+1032407655+1035739405+1036609439+1036757663
3400+1040657947+1047940501+1053429858+1053693712+1049651887+1044383441
3389+1041978521+1044020010+1043568654+1035966671+1029511778+1027853277
3377+1026826462+1028981788+1034184555+1034837102+1031328933+1029891588
3366+1032341080+1033719673+1032293329+1035806631+1040515508+1034792284
3354+1025179207+1022461053+1026750109+1029235863+1021837190+1013232105
3343+1011300298+1010894982+1010365237+1009209184+1005412959+1005273617
3331+1010839408+1011048829+1003484901+999646629+1001114695+1000572237+998249946
3318+998842192+1007162073+1019941237+1020410927+1006993966+995090214+989001033
3304+989403578+992280632+985623895+974175492+972762837+981441586+985109469
3291+975364303+965972381+968732501+980687263+994005136+1001288180+1001307574
3277+996332888+989043244+984691850+983180351+982624774+985384324+989247531
3264+991017668+993242828+996904762+999001824+995402961+987239045+983044920
3250+987592290+995114008+996114911+988351421+978383958+972772290+972831286
3237+976316964+980998624+984841785+983202679+974352400+968457891+971191609
3223+972146390+968947219+970197063+971450900+966216434+962186505+964737856
3210+968943389+971379029+973792260+976835791+980079046+983918296+985699597
3196+982896533+976410185+967329380+961404477+963228232+969004259+973830884
3183+974183885+971207255+969344385+967408259+964655799+965404581+967357086
3169+963169643+956634078+954120536+953041570+951264343+948300995+943557568
3156+939833378+939623550+941025204+938778695+933414665+932102728+932631740
3142+928343661+924300206+923544905+920734263+917099626+916715579+917099871
3129+915066694+910525599+904512527+899345613+896383650+896194031+899366800
3115+901550156+899078825+895842171+893628501+890159038+886749550+885226725
3102+883583626+880829780+877618875+873981305+870754918+868092419+865798729
3088+865236633+866825462+867025268+862249409+856411208+854282610+852738110
3075+847980097+841837542+837874595+836836128+836739566+836351933+834700848
3061+831526123+828580702+824878269+820046511+818292671+819676968+818719661
3047+813320918+807325610+802814990+798500266+796874115+798613043+797761914
3034+793200529+789359731+787458237+786256062+784472317+781729227+777867243
3020+772670994+769174804+769562355+770579799+769922201+768816018+767853985
3007+767079127+767307697+769486980+773643294+777878162+780542128+784492118
2993+792751292+801674013+806264244+806423551+804031425+800293056+795401812
2980+789715421+784738371+780072438+774826238+772078096+773435259+775499400
2966+776642089+778148861+779073003+778311020+777547652+777490937+777134351
2953+776684870+776904395+776865445+774588948+770123310+765461533+761977158
2939+758669854+753357242+746544703+741233151+739510194+739455598+737437252
2926+733911401+729789148+723937989+717946837+713262977+707563384+700027324
2912+693245831+688451720+685329554+683836716+682827054+681466714+680955914
2899+681911998+683456173+685125348+687134731+689028646+689961833+690734327
2885+692479204+694627277+696912248+699330612+700459041+699421225+697008565
2872+692970569+685282536+674120966+662417265+651794363+641560153+630801821
2858+620343115+611206451+601858654+591111689+580539472+571385981+563738325
2845+557545289+552538048+548817688+546148181+543539056+540555499+537576017
2831+535255355+533914042+533172675+532245803+530682846+528963394+527770957
2818+527201976+526694435+525225147+522584609+519475603+515913368+511889754
2804+508054742+504416765+500740285+497056512+493234131+489612492+486466246
2791+483209220+479684143+476341799+473187854+470245203+467644919+465099394
2777+462523679+460086491+457701617+455279423+452950571+451045818+449793692
2764+448861076+447754241+446521550+445276921+443808081+442146117+440403400
2750+438527290+436745663+435308073+434199079+433157963+431695642+429984705
2737+428714489+427890983+427146561+426195977+424904737+423520359+422330977
2723+421353992+420387762+419341268+418263361+417078951+415742649+414198434
2710+412434205+410691528+409087217+407365808+405389224+403354214+401236658
2696+398923208+396723350+394834283+392974999+391008601+389119900+387306086
2683+385509669+383850150+382313269+380791259+379189107+377356428+375406246
2669+373873561+372992445+372298829+371416694+370432293+369411223+368291065
2656+367200364+366259844+365490364+365160587+365124203+364869068+364564838
2642+364386341+364183561+364216848+364575431+364851182+364897263+364840059
2629+364945951+365514077+366190825+366616878+367231452+368221231+369023875
2615+369275303+369424627+369902384+370380997+370526206+370375293+369972015
2602+369293556+368298847+367102825+365949461+364849186+363605371+362258395
2588+360941080+359490860+357842871+356185715+354566125+352964746+351416824
2575+350009669+348785290+347483172+345967029+344502467+343224836+342101989
2561+341234582+340624694+340008532+339265067+338602763+338171250+337810895
2548+337367566+336908653+336442406+336059194+336009018+336252195+336496045
2534+336601712+336826086+337346400+337857750+338286411+338908603+339690571
2521+340494580+341355427+342116167+342608062+343060355+343710415+344491996
2507+345185530+345631914+345958758+346224771+346082740+345461770+344784167
2494+344362024+344245580+344139158+343733843+343253152+342898277+342500133
2480+341985096+341378325+340650953+339924010+339366213+338880674+338291911
2467+337708996+337310546+336936419+336486307+336140803+335846269+335491048
2453+335147825+334907643+334808596+334637331+334247234+333880584+333800727
2440+333949033+334027688+333918312+333667496+333325618+333118927+333157022
2426+333221845+333224758+333394434+333887062+334465190+334803544+335010846
2413+335304423+335512397+335574348+335789493+336266068+336826555+337258924
2399+337549587+337938666+338383136+338555480+338525188+338526064+338417503
2386+337900245+336707849+334570899+331463869+327769788+323861295+319690435
2372+315196562+310827159+307074632+303847959+300960761+298758336+297914683
2359+298919741+301880706+306667830+313049609+319389688+322550866+321034397
2345+316951461+314437207+314451182+315612165+317167116+318567792+319635147
2332+320619792+322166941+324670337+327587217+330144598+332409544+335031809
2318+337860235+340042206+341346647+342499318+344184546+346183050+348059283
2305+349832232+351564233+353140228+354409589+355402138+356465133+357784445
2291+359133010+360219922+360877561+361346965+361967406+362507785+362723196
2278+362892892+363322979+363856880+364110386+364155570+364373547+364735104
2264+365054206+365353304+365532574+365499613+365374612+365297281+365391806
2251+365655782+365865855+365841491+365756459+365835298+366053805+366318229
2237+366437933+366350946+366259111+366291298+366470895+366772437+367099769
2224+367279732+367299289+367467600+367933542+368422218+368643495+368714389
2210+368971154+369363390+369648023+370039160+370682009+371144324+371308561
2197+371725447+372610883+373458182+373886803+374075689+374349077+374837468
2183+375343623+375670548+375926417+376253505+376757337+377398272+377963953
2170+378470882+378960170+379363733+379868380+380568759+381244855+381895812
2156+382736878+383613961+384197814+384654629+385337528+386273567+387301319
2143+388224524+388945111+389540128+390218342+391158129+392163798+393003682
2129+394038768+395419969+396504273+397143537+397915868+398971896+400181038
2116+401521292+402797782+403920792+405090168+406398560+407838798+409383299
2102+410933218+412621746+414607253+416727621+418954043+421371023+423867737
2089+426419495+429133412+432121247+435358391+438704849+442102929+445419360
2075+448825181+452808133+457110960+461123655+464999329+469324973+474371979
2062+479839212+485212694+490383193+495683460+501300670+506999081+512618287
2048+518250857+523866681+529404645+534984289+540718595+546568571+552425393
2035+558252472+564066676+569708372+574900180+579670619+584255432+588771144
2021+593256869+597468147+601272275+605084919+608877477+612426593+616030509
2008+619382019+621984625+624529580+627556773+630438797+632787287+634489749
1994+635163360+635648695+637307684+639676627+641629091+642794515+643321979
1981+643604942+643866637+644190587+644560130+644845537+644748975+643784905
1967+642529968+642177579+642363369+642238938+641791902+641149216+640464156
1954+639768341+638848273+637748406+636758667+635577557+633842867+633178097
1940+634812396+636826097+637886933+638943450+641027148+643831842+646564868
1927+648914009+650851683+653483176+657262818+661324405+667002281+674635881
1913+681682532+687660972+693984835+701201956+708855846+716537360+724229875
1900+731507133+737478892+742979005+749450359+755221497+759376263+764273945
1886+769948113+774645908+778332207+781353329+783890664+785835672+786543385
1873+784850986+779842238+774971203+775087403+777029559+776398199+773428821
1859+769409893+765126785+760771317+756135453+750914106+744578509+736679506
1846+727440536+720594179+718903573+717358665+712918451+707756508+702666925
1832+695342160+686893448+682351212+680802515+679831274+680171522+680015516
1819+678094954+675785782+673491236+670243703+666901156+665950939+666820443
1805+666660322+664244483+661102312+660025220+660587683+659137911+655000134
1792+654071959+659313841+664104122+665182967+664711525+664304947+664903997
1778+666644676+666395816+661953116+657798350+660581205+667167007+672710104
1765+675031540+673938028+674005377+676699860+679511276+681888652+681164642
1751+677050945+676187675+681132496+686864194+690493045+692694003+696069267
1738+699973217+699857343+699881463+708456398+719516354+728863539+736105595
1724+741278131+744727304+743788250+738963418+740985268+754191097+768710737
1711+778753982+782932380+783350977+785137412+787009489+785861096+789732288
1697+801948868+819208093+837537077+849781525+857148663+861307015+861433727
1684+868710089+890166942+910283828+921983129+928082822+934381342+939475814
1670+942553325+951276485+962551647+968386019+972543638+980132338+986606707
1657+985979830+975664907+968886185+980756364+989335292+992768575+1005041787
1643+1019174935+1024864587+1022420391+1012854984+1005468044+1013788904
1632+1025912833+1030099868+1028153230+1023975322+1019702155+1020999261
1620+1024014598+1020095084+1014596193+1015906582+1017835700+1016143138
1609+1013334860+1012710834+1013864687+1013991724+1012512658+1011499044
1597+1011969793+1013114193+1013269100+1011347967+1008627531+1006145037
1585+1003471129+1001255015+999649644+995964486+987980574+982515338+985483983
1572+986728693+984468331+988433885+998243671+1006704443+1007028761+994342410
1558+986371618+1000538339+1013399316+1017306118+1015637757+1012570595
1547+1007038213+996673828+985602546+981187918+993956570+1012879756+1022508478
1533+1027745959+1035563149+1040522679+1039337046+1036247149+1031133202
1522+1023753433+1021241603+1023325220+1027858737+1033008131+1032294714
1510+1022074805+1003689433+996385610+1014454080+1031412457+1035093215
1499+1029840903+1027334695+1031949862+1033838889+1029086335+1027730721
1487+1037288061+1049235163+1055586895+1056953591+1055715318+1051048570
1476+1043132863+1036992019+1040612396+1049558666+1051902470+1047086031
1464+1043857281+1042410320+1033115856+1017467217+1015731712+1027010785
1452+1031428428+1026153382+1017755273+1013645406+1012683699+1008394561
1441+998905181+985356537+971510956+965418760+963357144+957166349+950237854
1427+948568842+949697597+949372546+946090177+943846032+951267277+964711699
1414+974901213+980210158+983962543+988374644+992193522+995466765+998843088
1400+1002206536+1006338405+1011215225+1018331710+1027313509+1032332361
1389+1030795113+1027212873+1027406567+1030127573+1032123184+1034319416
1377+1037544663+1040798430+1045796584+1053005312+1057985051+1058247275
1366+1055848304+1053666985+1054014444+1056051777+1056612813+1055568560
1354+1054762493+1053419184+1050949401+1049923727+1049407997+1045790799
1342+1039106275+1031036558+1025097639+1023536597+1022502367+1019653181
1331+1017692121+1018165803+1020256346+1023262638+1025787669+1027254838
1319+1028888893+1031052774+1033346057+1035887955+1039282939+1043161057
1308+1046226753+1048759525+1050604141+1050505461+1049705098+1049566489
1296+1049405878+1049560377+1050731016+1052322779+1054188500+1056783202
1285+1059995167+1062523375+1063076833+1062367736+1061158064+1059229028
1273+1056661379+1052608879+1046293328+1038993987+1031762198+1024640987
1261+1018204102+1013024639+1009096406+1006394468+1004655866+1003327061
1250+1002202625+1001118851+999919284+999443564+1000238467+1001312382+1002099463
1236+1002757224+1003042428+1003380435+1004327311+1004695876+1003357618
1225+1001647211+1001162854+1001715904+1003009262+1004665807+1005327969
1213+1004680801+1004269129+1004946611+1005508380+1005275654+1005105265
1202+1005061099+1004958834+1005249415+1005478312+1004854286+1003913929
1190+1003510814+1002933724+1001301870+999567587+998554625+997162586+994737784
1177+992802799+991920542+990654726+988947334+987420434+985142390+981646526
1163+978045380+975273037+973650228+973324770+972590004+969152158+964497633
1150+960983516+957755091+954274139+951716351+949690915+946488240+941638962
1136+936706160+933374166+930869588+927937123+925246430+923024775+919699055
1123+914389376+909039525+905802299+903815081+901219646+897896452+894240141
1109+889738485+884981042+881952179+881421374+882021524+881439301+879964635
1096+879391294+879310052+879817633+881228739+882178794+883348129+886434604
1082+889816875+891201825+891709243+893161174+894763367+895458857+895824895
1069+896348041+897211963+898948773+901940886+905888187+908722297+909324565
1055+909930909+910730620+910763866+911871516+913300550+913455049+914348796
1042+916683310+918813619+918899995+917050979+916569473+919552867+922977105
1028+921435212+915648510+911350327+909985097+909427239+908340450+907123119
1015+906826751+906664837+905483523+904402194+904246065+903949453+903565569
1001+903652271+903442035+903356474+904502911+906188791+907893006+910655652
988+914132122+916398025+917507305+918810930+920616270+923256930+927260620
974+931762194+935272563+937320163+938391225+939922199+942522523+944478532
961+945443009+946873836+948478555+949861386+951131276+951654421+952113191
947+952835164+952327420+951048892+950760185+951793845+953336878+953195988
934+950830671+949006345+948274594+946672401+944365591+942736915+941682313
920+940765424+940584768+940556818+939227443+937057042+934794806+932575921
907+930807821+929497269+928362484+926877225+925092339+923895135+922547588
893+919887371+917315892+916161877+914726324+911823276+909615799+908903279
880+907525093+905292111+903976344+903701570+903688532+903778249+903293159
866+902606307+903944808+907267676+911039373+915095052+919427215+924453401
853+930715089+938056478+947153906+958747600+971736022+984837385+997407454
839+1007783899+1014874797+1019537144+1023062425+1026142544+1028265274
827+1029501755+1031349630+1034560861+1038253761+1040184916+1038765742
816+1035609270+1034191808+1034413044+1032802377+1030378878+1029365998
804+1026499211+1020937005+1017612019+1018598335+1020159459+1018615203
793+1014472252+1009122645+1002602154+995884384+990433326+985905595+980981920
779+974765293+967721006+961284202+954754504+947073804+940596420+936681796
766+934039342+932852895+932237588+930218427+927552506+923412244+918191468
752+917357043+921514010+924812757+923775594+920899599+920320391+921468459
739+921125236+918817286+916157884+913993839+912187359+910257915+907115459
725+902960204+899166750+896394651+894725720+892270605+888085852+885795584
712+889108348+896393347+902413346+905751696+909106181+913291994+916511210
698+916580882+914285399+913356694+915373573+918660343+921394061+922917945
685+922355198+920184390+918641764+917959556+917896241+920242897+924074732
671+922327411+914292162+915257781+923639918+924478010+921180973+921190100
658+926395312+932613487+934593452+931830073+926994077+923367997+921890234
644+921797339+923574484+927866637+933166456+938026898+944353205+948330493
631+944551626+939467991+935410357+928647851+924836959+925217991+921860247
617+916858426+918933242+927429216+934903836+938377698+942697068+951172100
604+957994499+956939653+949713487
##END=
