##TITLE=Sample description
##JCAMP-DX=4.24
##DATA TYPE=INFRARED SPECTRUM
##DATE=13/9/2023
##SAMPLING PROCEDURE=Instrument type and / or accessory
##ORIGIN=Default
##XUNITS=1/CM
##YUNITS=ABSORBANCE
##RESOLUTION=4
##FIRSTX=4397.6552
##LASTX=599.8556
##DELTAX=-1.9287962
##MAXY=1.6620835
##MINY=0.28326786
##XFACTOR=1
##YFACTOR=1.5479359e-009
##NPOINTS=1970
##FIRSTY=0.30826756
##XYDATA=(X++(Y..Y))
4398+199147500+201218655+201140353+199609359+198536200+198271414+197557592
4384+196420687+195913179+196921687+198715079+199768196+200311013+200118677
4371+199049541+198604856+198677825+198394575+198137202+198062231+198278057
4357+198689280+198292612+197164543+196322862+195877407+195771285+195836341
4344+195850472+196304668+196809769+196128042+194967378+194787825+195082280
4330+195098298+194615800+193330955+192054061+191445861+191133848+191283405
4317+191878243+191985367+191340624+190782058+190972623+191473046+191503427
4303+191165326+190592609+189880654+189511556+189010999+188102395+187538919
4290+187389208+187493077+187821398+188096291+188391535+188590168+188011790
4276+186837823+186276542+186459040+186514104+186480353+186656768+186975154
4263+187336320+187298315+187018685+186846544+186364566+185873327+186181683
4249+187113409+187446774+186334474+184871096+184449303+184932032+185447568
4236+184973021+183673967+183274969+184030205+184665840+185090060+185696547
4222+185972615+185609389+185394718+185898568+186529275+186588093+186125772
4209+186035918+186768243+187099971+186053843+184574928+183903751+184123023
4195+184520635+184557312+184785459+185865126+186872651+186541539+185415454
4182+184809910+184504616+183986808+184024159+184711277+185251996+185635804
4168+185970401+185914278+185454999+184852382+184203982+183831707+184230127
4155+184751920+184343431+183700363+183776104+184103712+184302403+184655540
4141+185069652+185051438+184927527+185353671+185755576+185467398+184670769
4128+183643875+182997149+183319867+184238714+184892101+184819344+184188445
4114+183680667+184085634+185301149+186127678+185843196+185275851+185342812
4101+185556443+185444141+185482724+185832011+186462583+187417202+188076249
4087+187837955+187288958+187563389+188578616+189414483+189862480+190311574
4074+190882250+190884041+190108590+189576034+189608341+189709534+189731964
4060+189677189+189552276+189571394+189824724+189859630+189720759+189863384
4047+189817543+189410305+189426362+190267330+191407451+191912206+191763611
4033+191515749+191282249+191449461+191820427+191664208+191734135+192330149
4020+192600479+193046839+194201438+195334224+195757789+195361775+194710236
4006+194422539+194344911+194244103+194381915+194594583+194487402+194354942
3993+194454249+194790809+195497797+196383259+197055090+197517084+198046193
3979+198671702+199002141+198632773+198001373+197950776+198226401+198504202
3966+199098213+199336352+198931001+198990781+199933232+201117904+201409548
3952+200414922+199439067+199899309+200738121+200554910+201131093+203205848
3939+204634185+204353766+202273582+200247440+201509894+204159407+203814202
3925+201902443+201895049+202124737+201288428+202476546+206702047+209926338
3912+210324700+209108030+204851512+197009114+191121661+191545591+196786935
3898+204257597+208887776+206982312+203603132+205573228+207120568+204668166
3885+203727160+203252805+203060719+207127326+209078669+206154340+202678432
3871+200320274+202174564+205278870+204891019+206504859+211521309+212977949
3858+207521838+195320169+187648757+198970720+213244621+219460338+217644708
3844+211678741+205349778+200357009+199925743+204508117+209021854+212893621
3831+217400331+219744242+218664960+214304515+205873401+202313454+207447136
3817+211567748+217090377+224791227+227531980+223417299+218092686+216210210
3804+212829123+211113744+216923474+222736861+227732750+233497851+236694129
3790+237226742+236820216+236606605+237585136+237500769+236203314+238982938
3777+244820122+247198265+244238799+240565992+242186512+247553136+253085854
3763+255536523+253076690+252174843+256602731+259014394+255461648+254995014
3750+269003283+285786247+303134516+333411041+361625267+373355238+372339876
3736+368981123+375710297+391204912+405395563+414056192+421168537+431306329
3723+444292863+459284321+474750211+488029005+496341771+500519737+510023067
3709+529453599+551907422+572733138+591074301+608316429+624913159+638684713
3696+647250155+646606567+637042398+630433132+636867389+647410801+652928387
3682+654315138+652646601+643606073+629075107+625562715+629033366+628585235
3669+632766743+640878509+644858862+645541187+643563755+636495692+626243807
3655+619205278+611808066+598371013+588821976+594743566+606079352+611741913
3642+609704412+604153365+600239973+597977213+593952385+585627605+573573953
3628+570556863+577281531+578939402+572223166+562278944+557337099+557293933
3615+556161206+555195863+554922895+552922322+552759981+554780885+553592363
3601+549617669+546838160+544889570+542885724+542337977+541208985+535533872
3588+530922253+534677270+539954617+540756618+539153656+538345302+538208760
3574+537526205+535003491+528155759+519536177+518742532+525278406+529991950
3561+530645241+529958181+529225106+527543630+525960191+525868355+524627310
3547+521989079+521772946+524577907+527866310+528746862+526835353+525542595
3534+525865698+525227232+523153497+521401364+520235906+519180922+519179728
3520+520559317+521732437+521454964+519644610+516541844+514127794+514628063
3507+515565835+514129373+512769730+513238809+513525601+512963607+512759411
3493+512624987+510753908+507706399+506329197+506468704+505821189+505009100
3480+504767629+503431552+501532057+500933983+501371487+502092125+501939333
3466+499923704+497492057+496285629+495797529+494894142+493349594+491232463
3453+488894116+486903632+485166284+484276375+484672831+485195587+485279107
3439+484749574+483487582+482147654+481151892+480296445+478902493+476709198
3426+474369734+472729691+472311287+472496269+472148676+471537395+471685527
3412+472326804+472152565+470744289+469288497+468782992+468859426+468896353
3399+468432165+467716764+467470134+467220616+466353925+465387774+464781653
3385+464242455+463514617+462719624+462094019+461824824+461457016+460482509
3372+459293717+458382128+457778125+457394991+456925297+456142318+455502004
3358+455289605+455183444+454837777+454341167+454484986+455199078+455216174
3345+454529884+454023223+453231696+451564199+449889501+448622580+447069522
3331+445337219+443645309+441536265+439101345+436281520+433161812+430535864
3318+427992897+425397600+423444428+421091025+417732888+414899163+413048531
3304+411023430+409004181+408144345+408368025+408696057+408322434+407582005
3291+407490476+408267987+408771952+407943921+406836839+406429254+405821092
3277+404259717+402673775+402616093+403154174+401930418+399449176+397840439
3264+397346832+396850645+395495507+393276066+391387122+390244074+388451240
3250+385822905+383925874+383148902+382470929+381569545+380990224+380654530
3237+379827500+378506402+377344910+376661392+376306868+375884459+375634941
3223+375743450+375127895+373574645+372428440+372110882+371521010+370075345
3210+368881855+368678968+368464105+367557869+366762953+366881705+367523868
3196+367419671+366589022+366590100+367006927+366420559+365766844+365845165
3183+365532613+364144129+362813751+362976246+363782136+363432656+362365119
3169+361816641+361560153+360975903+360177214+359603438+359446103+359869013
3156+360741942+360902704+359965894+359464201+359944523+360145447+359803322
3142+359563161+359154806+358108640+356221582+354013847+353089782+353437683
3129+353393478+352760287+352345117+352395444+352509113+351935607+350702032
3115+349742234+349339193+348878547+348019789+346938775+345936967+345034967
3102+344234660+343829193+343826652+344290802+345170315+345732116+345711708
3088+345605470+345679863+345607934+345411054+345810013+347005159+348575814
3075+350028218+350810118+350651397+350033647+349584668+349121135+348387097
3061+347557757+346814670+346191299+345588527+345414558+345807087+345852485
3047+345557068+345965654+347005467+348227374+349921441+351653821+352424709
3034+352237262+351747929+351674614+352166103+352270069+351680505+351544811
3020+352255052+353178962+354290896+355645765+356962473+358591003+360966046
3007+363729575+366593373+370077347+374651808+379969240+385816436+392991238
2993+402275662+413165974+424319359+435086721+445406376+454383099+461164063
2980+466308565+470222458+472459072+473888064+475952365+478296257+480608034
2966+483754466+487912370+492687524+498046427+503650882+508887528+513991098
2953+519478495+525140363+530253598+533835223+535439994+535172840+533205074
2939+530199651+526512905+521724120+515952165+509995227+504453229+499978421
2926+496988477+494254983+490394075+486021115+481984196+477846084+472894035
2912+467324890+462066141+457303270+452744866+448973330+446625934+445311729
2899+444394518+443855590+444116313+445508417+448025123+451623575+456275856
2885+461600296+467144143+472909938+478728293+483697978+487319303+489578713
2872+490180213+489452221+488077214+485912606+482729747+478696602+473365924
2858+466272601+458221328+449755192+440412355+430058969+419117290+408235565
2845+397949949+388536069+380117681+372608917+365837888+359718956+354302756
2831+349533725+345176245+341103901+337258818+333712773+330715128+328334270
2818+326485372+325089110+324027618+323166665+322405923+321976583+322116917
2804+322425966+322524521+322458869+322216571+321704635+320738753+319305121
2791+317763191+316205282+314469148+312694007+311001981+309252408+307477095
2777+305726328+303865088+302134557+300857971+299704431+298278962+296818145
2764+295724809+295004595+294383148+293631783+292853021+292252079+291721660
2750+291175473+290627919+290021356+289349524+288672167+288211945+287857228
2737+287190711+286402072+285820479+285436979+285153538+284704039+284037310
2723+283379995+282760146+282258049+282084175+282094765+281972316+281635717
2710+281169776+280692534+280265947+279854973+279388359+278918953+278498623
2696+277995139+277370593+276643717+275794913+275004868+274377588+273555969
2683+272339086+271294364+270710114+270029003+269081739+268211756+267417918
2669+266600284+265837502+265147611+264510031+263821257+263013172+262303162
2656+261821993+261457708+261130773+260790901+260466162+260243078+260024519
2642+259698297+259321902+258920285+258583628+258486978+258558503+258566647
2629+258481126+258471384+258603940+258842080+259160504+259520149+259895774
2615+260215296+260491017+260816565+261170261+261584026+262059401+262466042
2602+262815387+263201062+263613364+264009801+264394340+264779880+265147842
2588+265412724+265399844+265104697+264812456+264718348+264749865+264709934
2575+264503312+264251618+263984618+263532097+262976495+262640897+262425053
2561+262056802+261747657+261610384+261371512+260959153+260598834+260542577
2548+260698102+260707074+260525114+260385030+260441460+260631872+260750374
2534+260792153+260841421+260893346+261061521+261371782+261657187+261840167
2521+262027248+262387086+262907281+263387719+263635562+263592532+263466021
2507+263703410+264386812+264998305+265369501+265699247+265906639+266116208
2494+266489079+266732244+266776218+266945490+267314588+267610717+267656655
2480+267604268+267609312+267562431+267441446+267450860+267554942+267499455
2467+267349301+267359293+267504383+267643678+267718418+267644718+267468592
2453+267416089+267579489+267771056+267823462+267824733+267866358+267967263
2440+268128025+268254382+268348124+268405999+268268976+267997817+267861795
2426+267952958+268161737+268358925+268470573+268493292+268527620+268694196
2413+268976194+269233760+269459154+269767297+270077289+270261155+270388320
2399+270624612+271067506+271509612+271710535+271783369+271843573+271790840
2386+271325496+269810405+266731724+262332465+257146723+251484125+245715866
2372+240034900+234384295+228888081+223699201+219418597+216965195+216587163
2359+218043822+221349956+226971258+235297135+244199234+248933957+247126837
2345+241502860+237601462+237086581+238271445+240060140+241811600+243214716
2332+244539665+246598940+249563990+252514754+255002253+257745490+261397061
2318+265460934+268916933+271540397+273941470+276530086+279300566+282102928
2305+284580089+286586919+288326885+289921028+291452639+292952674+294384150
2291+295836996+297259654+298464753+299564501+300648075+301484423+301991565
2278+302306043+302580031+302941582+303366437+303744218+304004191+304248992
2264+304661660+305165933+305579524+305861484+306063948+306289034+306516084
2251+306688224+306932872+307291381+307669874+307989261+308160863+308235256
2237+308382849+308666753+308974261+309261169+309538758+309688815+309758973
2224+309802735+309783366+309939296+310323142+310611012+310738967+310904869
2210+311190294+311599054+312055849+312446664+312776698+313091311+313541502
2197+314247026+314992885+315655552+316430349+317287663+317946903+318404892
2183+318933886+319611224+320260472+320909970+321646760+322255731+322720805
2170+323371208+324322265+325340553+326200967+326968736+327906547+329099113
2156+330277971+331270229+332189095+333118203+334088205+335145692+336404642
2143+337878263+339314417+340562469+341740942+342969858+344268122+345685370
2129+347229995+348721597+350027140+351246659+352514158+353842688+355277841
2116+356916228+358655462+360305323+361957380+363816406+365832035+367910852
2102+370124633+372474339+374837060+377255538+379889456+382664845+385534650
2089+388658209+392054390+395704941+399589261+403538578+407535720+411717190
2075+416143750+420889293+425926017+431004443+435999734+441293062+447340565
2062+453834314+460230026+466534248+472990338+479675306+486470325+493382748
2048+500291859+506931314+513550784+520492471+527818216+535339571+542674288
2035+549707927+556489969+563064580+569489672+575685269+581658996+587647970
2021+593677954+599430772+604755712+609927015+615242252+620431344+625034337
2008+629370100+633875674+637895881+640865455+643471726+646378382+649252615
1994+651257617+652594310+654797694+658120983+660993214+662421012+663128905
1981+664098175+665363709+666675374+667382496+667078992+666521504+666143222
1967+666154851+666887233+667489234+667369789+667094164+666770714+666334058
1954+666276376+666676221+666798824+666235251+665048346+663375265+662951469
1940+664987892+667493547+669062893+670290923+672020530+674380325+676881051
1927+678980854+680504378+683098520+687499435+692075474+697614161+704594200
1913+710720564+715784935+721572601+728926763+736974648+744483912+751166994
1900+757456853+763749023+770163950+776553617+781806051+786244625+792315540
1886+799077328+804069770+808105957+812407373+816536821+819683060+821301539
1873+820490066+816525115+812953155+815269900+820342743+822191488+820923797
1859+819070739+817203435+814696240+811140221+806502649+800769815+793255392
1846+783907317+777697935+777748070+777520731+773668140+768958254+764241206
1832+757019888+748452021+743589882+741432320+739955466+740246339+739776105
1819+736828325+733624174+730826336+726911981+723264242+722509141+722803634
1805+721123776+717168067+713054021+711810203+712741815+711526954+706882528
1792+704963087+709714790+714169921+714692369+713991562+713424139+713509776
1778+714612354+713543276+707671283+701566944+703585423+711093609+717417816
1765+719544804+717991707+717579232+719109918+720364748+721887887+720738872
1751+715495679+713044009+717174844+722266400+724410716+724975597+726830349
1738+728207858+724199935+720378764+727161114+737482078+745773705+751000340
1724+752902993+752556286+747537044+738247729+736953316+748407200+760985071
1711+768466765+770218628+768632648+768238117+767124526+761784684+761210561
1697+770235109+784504544+799062464+806589287+808718355+808026943+802699807
1684+803163803+818355839+832671558+838390914+839195225+842595064+847063749
1670+850360469+860248627+873272627+880415084+885946378+895445549+903004871
1657+901823510+891323109+888880989+906046066+916779967+921104871+934136188
1643+950275468+958561627+956634870+946363963+942627352+957346766+972457632
1630+978261085+979344102+979639981+980456460+985210859+989490249+986901883
1616+985852906+994476607+1003602810+1009127019+1012436985+1014176527+1016534474
1603+1020640587+1024515589+1026539689+1027466372+1029652582+1033718573
1591+1037887297+1040717095+1041147052+1040164689+1039889834+1039043090
1580+1034206288+1024827872+1020372201+1026586281+1029799675+1026890632
1568+1028918814+1035591576+1039999191+1037641784+1024077623+1019193844
1557+1039910165+1056709437+1062538073+1064052587+1065578190+1064181735
1545+1055271088+1040213053+1025700646+1029100947+1045054629+1052699357
1533+1054295965+1059066382+1061651282+1057839739+1053643059+1050415034
1522+1047472876+1048736716+1051634823+1057001774+1064837645+1066432867
1510+1056800388+1040182556+1037163772+1054905667+1067368637+1067975720
1499+1062542925+1059943084+1063118742+1064815619+1061467840+1059176586
1487+1064009922+1071207366+1073741823+1070983569+1067200828+1062804072
1476+1054970588+1046350198+1047763980+1057865692+1062163257+1057524761
1464+1053739170+1052393543+1042355289+1021653908+1010973453+1017517914
1452+1022905119+1020450599+1013988387+1010144268+1008320398+1004177164
1441+996518497+983077016+967239006+961722190+961020074+954010077+946494421
1427+944257922+943251609+942821037+942713913+941452537+947395998+962194658
1414+974365752+978169210+977789542+978472559+980942250+985556718+990815621
1400+993899481+995839716+998845716+1005615205+1016210023+1023921751+1025112969
1387+1023499881+1023035114+1023102192+1024012548+1026112120+1026821937
1375+1027593441+1033236402+1040373699+1042477045+1041162300+1040151135
1364+1039382250+1040114324+1043285977+1045802182+1045125018+1041649091
1352+1038392725+1037448330+1036208980+1032375565+1027842035+1023063378
1341+1018089033+1015570517+1014401555+1011283888+1007464643+1006202112
1329+1008600875+1011746190+1012173528+1010872106+1010180232+1011616964
1317+1016390847+1023017941+1028635796+1031165633+1030540759+1030007452
1306+1031930590+1034818917+1037610440+1040749363+1042564607+1041976391
1294+1040773853+1040469271+1042061643+1045637454+1050321772+1055642824
1283+1060871692+1064895943+1067104332+1068544375+1069859736+1069880684
1271+1068641795+1065957242+1060878315+1055153260+1050572908+1046452316
1260+1042275736+1038579171+1035350606+1031767094+1027907957+1024101265
1248+1020138471+1017635742+1017829042+1018115756+1015939250+1012751116
1236+1011042148+1010809264+1011182001+1011728708+1011757048+1011463017
1225+1011622894+1012415884+1013185078+1012432672+1010469488+1009874649
1213+1011355971+1013000095+1013732939+1014167055+1014282957+1013541950
1202+1012758971+1012453466+1011684272+1010423589+1009390399+1008539419
1190+1007022133+1004359836+1001868428+1000016141+998075290+996701708+995980801
1177+995187195+994135060+992350004+989609386+987003385+985457604+983262076
1163+979983453+978808870+979951801+980719917+980847140+980610021+978219191
1150+973684506+970332261+968073274+964229771+960554923+958837560+957231480
1136+954950314+952391906+948946476+945149334+942412335+939908605+936612886
1123+933890828+932953826+932302460+929555527+925379102+921492318+917668067
1109+914923675+914094259+912547015+909156572+905859467+903691816+902513767
1096+901204105+898898064+897139808+897550897+898434222+897688132+896998338
1082+897590943+898552897+901017043+904991929+906894197+906188153+907140403
1069+910046982+911051908+910637508+911041589+912484712+915140926+918164562
1055+920295170+921423161+922608680+924792888+926542519+926344984+926046255
1042+927224150+927971087+927235086+926345754+925794041+925343214+924435708
1028+922468519+919861670+917600836+916855593+917064834+916165644+914574119
1015+913747629+913702808+913581899+912090027+909419028+906254922+902105682
1001+897610350+895150825+895939272+898087438+899350508+900650467+904368288
988+910559418+917938147+925565778+930969541+932566534+932640311+933863720
974+936200950+937931482+937561825+934789479+932305695+932496222+933786477
961+934569379+934183550+932662567+931896223+932503923+933051015+932317940
947+930217521+927785181+926476212+926701240+927021455+926020687+924624309
934+923762086+921776645+918191439+914970190+913002925+912305275+911670775
920+908828578+905048147+903605101+903391085+901410958+898227908+895482746
907+893777782+893540432+893742588+892865347+892100928+893257260+895095146
893+895622599+894763533+894662032+897544582+901390781+903421890+904824351
880+906938864+909453067+911798461+913762569+915705884+917313890+918442266
866+920195824+922537290+925153842+928782791+932758678+937160671+943899124
853+952725906+961624231+969603344+977288041+985158799+992954007+1001092689
839+1010226593+1020128151+1027659672+1029583811+1028815233+1029944996
827+1033588808+1038150061+1040607738+1038985408+1037355454+1039657182
816+1041762222+1039028766+1033634707+1030485002+1031807680+1034585109
804+1035436937+1034523269+1030849576+1023894335+1018912751+1018024497
793+1014786075+1008730948+1006333417+1005629760+1000567853+992820392+987309275
779+983906202+978789694+970431760+962077138+956893398+952840962+948917443
766+947948172+948295958+945168355+940157892+937733639+935850701+933069267
752+932707465+933439231+931771926+928878748+927988415+928887989+928494382
739+926339670+923916648+921799749+919547462+916688169+912517751+908164198
725+906549723+905863702+903426973+901416118+901965058+903375683+901907068
712+899331872+901377304+906420728+909897194+913094415+916997756+921157624
698+925710407+927530272+926287918+925263661+924146991+922504483+922354772
685+923491466+923209988+922978260+925905015+929087527+929224454+926835780
671+919278306+907602243+908886183+922135443+928803045+928429384+925910175
658+924746835+924923500+925683991+926587648+927347138+932031764+941214879
644+948420101+947579440+939875721+932957600+927851334+919795979+914038964
631+919565714+928606588+928955914+925386495+922150075+917843885+918880694
617+925913102+927417295+919754085+914077008+920718888+932002500+935175385
604+938365674+944677636+945748562
##END=
