##TITLE=Sample description
##JCAMP-DX=4.24
##DATA TYPE=INFRARED SPECTRUM
##DATE=13/9/2023
##SAMPLING PROCEDURE=Instrument type and / or accessory
##ORIGIN=Default
##XUNITS=1/CM
##YUNITS=ABSORBANCE
##RESOLUTION=4
##FIRSTX=4397.6552
##LASTX=599.8556
##DELTAX=-1.9287962
##MAXY=1.8300759
##MINY=0.4438383
##XFACTOR=1
##YFACTOR=1.704391e-009
##NPOINTS=1970
##FIRSTY=0.46374691
##XYDATA=(X++(Y..Y))
4398+272089512+272250065+271751917+271123222+271129150+271958282+272071065
4384+270962809+269809510+269402917+269847909+270169224+270045549+269960866
4371+270075869+270630163+270743329+269870168+268972998+268834740+269987287
4357+271454225+271501995+270972164+271626493+272763880+272298745+269867003
4344+266933057+265325412+266025588+267657224+268419736+268364254+267329963
4330+265126740+263315423+263137332+264176467+265365384+265783063+265681944
4317+266048984+266583957+266121672+264866642+263986101+263749713+264071641
4303+265031321+265891981+265919800+265428332+265208031+265977433+267248847
4290+267434981+266343914+265548319+265684497+265505601+264615479+264099356
4276+263917977+263596155+263895648+265118767+265968043+265349979+264300493
4263+264081940+263785069+262600087+261392233+260878506+261460514+263154276
4249+264872132+265433053+264571904+263860013+264381661+264506298+263944783
4236+263889633+264421598+265190615+265112210+264352180+264641427+265708504
4222+265608347+264077761+263199424+264030602+264944977+264211701+262746284
4209+262351424+262428151+261930650+261686883+262355760+262923606+263069733
4195+263598865+264079667+264399007+264899008+264567061+263094038+261962701
4182+262306643+263395350+264336163+265170052+265622825+265085317+263175836
4168+261047119+260931714+262359555+262894999+262347717+262049045+262765938
4155+264050641+264143245+263169278+262997255+263325547+263042997+262578265
4141+262698006+263420896+264079842+264052827+263289335+262201660+261301815
4128+260606972+260408737+261173820+262075781+262739097+263761971+264783585
4114+265053371+264363336+263381816+262852666+262784682+263156724+263455833
4101+263016559+262417047+262602832+263555728+264702802+265507769+265257638
4087+263994879+263338644+263976484+264386470+264074089+264305301+264982274
4074+264737493+263526090+262545462+262559625+263305212+263757197+263597851
4060+263784265+264258125+263786153+262786641+263039570+264587169+265766242
4047+265844595+265617632+266272031+267778311+268686462+268431836+268032605
4033+268086320+268146016+268073766+268088087+267992528+267792650+267739756
4020+267588418+267181982+267076789+267670128+268598859+269493003+270346074
4006+271021561+271181379+270822522+270394701+270162213+270046580+270178544
3993+270811261+271762916+272550870+272943317+273313697+273962781+274095462
3979+273151745+272340483+272565942+273240852+274380809+275692353+275738200
3966+274849161+274587996+275226728+275475951+275004276+275397178+276262873
3952+275774937+274568185+274596897+275339021+275116971+275513160+277639306
3939+279240918+279174141+277981762+277184208+278263018+279918748+280013135
3925+279211507+279260432+279020757+277722065+277910106+280611406+283027201
3912+283357591+282113437+279150203+274527566+271287464+271521474+274636589
3898+280006246+283925664+282914681+279876380+280169002+280764440+279044922
3885+279066954+279958668+280298343+282425014+283009365+281067483+279266465
3871+277882968+279484248+282348601+282164076+282372906+285262981+286888811
3858+284074939+275076422+268060197+276655758+288048335+292105994+289183011
3844+284169641+280971137+279116561+279212049+282516376+286263753+289197244
3831+291967245+293352246+292788964+289900096+283556647+280667202+284795328
3817+288710008+293598845+299248482+300597847+296696492+292031627+290988278
3804+289730818+288986578+292684872+296451448+300302025+305338302+308616540
3790+309613220+309054694+307808425+307830666+307862735+306943167+309164749
3777+314200815+316594211+314678173+311925797+312455331+315541927+319686052
3763+322663188+322150300+322069167+325354993+327237704+324825844+324577233
3750+335261433+347928257+360498664+384746560+412852761+432688476+443762710
3736+448161286+452858202+461630979+469073521+470478735+469321782+472187534
3723+479915581+490401564+501812395+511517541+517932698+522925505+532014142
3709+548028272+567224084+585203037+602201676+622909889+645631115+661683469
3696+667605496+664861654+656401065+650090577+653115867+660401144+662458851
3682+656445758+646412652+634170345+621889918+618716839+617752892+611474927
3669+610180852+613955926+613292592+608045229+602576148+595712555+584472873
3655+573974720+564397744+548532452+532833308+531638097+537626954+540345688
3642+537438040+530830156+523696201+516642924+509269975+500495064+488765575
3628+483128842+486046212+486367807+480532683+471586938+465670506+463843224
3615+461695991+458980405+456698462+454420506+453285375+451963358+448303794
3601+444265352+441216700+437633688+434304392+433051058+431162856+426162111
3588+422882299+424706888+426243664+424627503+421467573+418917506+417839938
3574+417274243+415276442+410258840+403544189+401339848+404077361+405440364
3561+404426968+403184895+401800559+399685744+397639612+396492066+395020862
3547+392938220+391907408+392064114+391962208+390774480+389133211+387884703
3534+386579926+384833708+383195376+381612928+379758019+378275519+377681672
3520+377477405+376884188+376103176+375443444+373990459+371840253+370397970
3507+369217796+367491721+366396527+366415586+366495950+365888395+364242649
3493+361913146+359911567+358968184+358740906+358123034+357079632+356547790
3480+356193112+355188668+353943832+353032692+352729946+352578521+351430275
3466+349368547+347404143+346260059+346091288+346155530+345546121+344196757
3453+342864178+341708869+340167372+338654377+337724666+337066718+336764496
3439+336803175+336552431+335722144+334608275+333668039+332741546+331543642
3426+330395536+329552555+329240052+329657259+330352172+330487721+329856525
3412+328943391+327658828+325890648+324697639+324787830+325296731+325063403
3399+324114459+323470779+323528866+323538238+322912148+321891303+321078327
3385+320744597+320578203+320268184+319906966+319840555+320167152+320444753
3372+320122738+319095214+317927140+317161200+316537383+316048555+316519058
3358+317498987+317300175+316021033+315048938+314542519+313818685+312817109
3345+311901632+311066869+310333172+309501347+308435983+307902497+307713093
3331+306916344+306016009+305782471+305560194+304198275+302041110+300432538
3318+299639181+298970111+297955946+296769337+295574405+294195070+292868559
3304+291901534+290885096+289517756+288274109+287622298+287783148+288626951
3291+289078797+288576278+288247338+288808661+289835522+290934300+291572140
3277+291603597+291283191+290581790+290202720+290758010+291612480+292092617
3264+292147749+291996341+291682649+291338725+291249303+291393402+291813722
3250+292455426+292735895+292224336+291465880+291218826+291095010+290628704
3237+290263237+290482734+291144827+291417672+291228128+291499260+292255513
3223+292730352+292692793+292995364+294188495+295056446+294747126+294378039
3210+294662670+294958597+295405949+296673411+298032707+298340384+297965493
3196+298056838+298606376+299047538+299402810+299684573+299977492+300649954
3183+301658489+302439991+302718957+302868984+303348124+304363409+305543758
3169+306038461+305617442+305079690+305544108+306976949+308103687+308762230
3156+309553559+309944747+309636371+309448645+310223643+311748528+312654737
3142+312220255+311528944+311692399+312055226+311986542+312216163+312661207
3129+312398328+311439557+310483374+310276904+310658125+310440254+309586886
3115+308940478+308476235+308254658+308321068+308219791+307979294+307601605
3102+306807163+305887875+305382261+305299554+305228317+304941378+304776909
3088+305054371+305451434+305867661+306486652+306911273+306778732+306435769
3075+306532674+307159568+307661615+307716940+307854866+308324600+308558767
3061+308359256+308256021+308628080+309186186+309507012+309784998+310043261
3047+309829097+309345375+309113971+309086763+308850462+308225142+307723864
3034+307640668+307428078+306940963+306476685+306005203+305602894+305421429
3020+305397263+305507423+305600936+305349003+304933405+304840347+305033003
3007+305345611+305821010+306327148+306878785+307913688+309614094+311760278
2993+314464533+317972602+321834090+325264943+328105411+330630228+332813132
2980+334502767+335754527+336689763+337381844+337801708+337998701+338263748
2966+338617517+338689488+338494033+338235351+337796602+337380689+337313824
2953+337270740+336975688+336810868+337031012+337327778+337187683+336277487
2939+334927947+333647966+332344868+331043308+330184450+329726047+329103280
2926+328320868+328069880+328205743+327585633+325960345+324283930+323160409
2912+322526940+322205904+321932115+321575793+321363028+321569883+322039196
2899+322232098+322043253+321942046+321987579+321772366+321455562+321535331
2885+322015171+322643954+323192967+323440319+323297042+323022448+322933865
2872+322761807+322333270+322043673+321799399+321165545+320394185+319910113
2858+319460103+318689407+317660554+316447717+315260723+314501008+314172629
2845+313916394+313509994+312930241+312331673+312168532+312507194+312742270
2831+312702193+312756469+313006373+313337166+313784518+314179938+314037290
2818+313588469+313490165+313671421+313866455+314098490+314400851+314678382
2804+314890938+315430299+316486815+317455378+317887797+318031634+318104793
2791+318039432+317954172+317962181+317820932+317602502+317659855+317833557
2777+317814287+317548786+317125494+316836457+316873701+316990715+316937734
2764+316830022+316734586+316576376+316439254+316420124+316435617+316367073
2750+316322730+316516785+316846564+316908288+316563891+316143677+315954518
2737+316031000+316243555+316469784+316658069+316660796+316437750+316252682
2723+316261180+316346615+316444849+316552700+316694054+317064854+317572287
2710+317727209+317584911+317697728+318024360+318054610+317748716+317493391
2696+317433451+317427925+317452160+317530951+317595752+317667653+317706611
2683+317543016+317178301+316745777+316396834+316192147+315855234+315198370
2669+314645894+314597949+314740841+314608335+314235577+313773817+313340733
2656+313200428+313256243+313192385+312985635+312691003+312481840+312430992
2642+312332373+312286560+312445295+312606267+312689709+312728841+312648058
2629+312508383+312501214+312616094+312636063+312575702+312669216+312886422
2615+313043093+313219768+313658167+314329859+314904926+315200503+315412568
2602+315772003+316137802+316419285+316874995+317470835+317978897+318516580
2588+319085527+319328437+319187083+319066292+319238875+319636953+319989568
2575+320015412+319760191+319587923+319736166+320052691+320355157+320562886
2561+320463428+320081192+319683605+319339138+319190825+319344768+319399009
2548+319152741+319040099+319304971+319740433+320041360+320066504+320064721
2534+320285110+320569915+320780617+321059198+321462766+321827621+322016850
2521+322180340+322535228+322867840+322877002+322722324+322792547+323270743
2507+323889734+324272634+324519741+324927715+325394826+325690263+325828854
2494+325829833+325794897+325941881+326185560+326483550+327057778+327755349
2480+328202491+328245505+327903417+327549543+327530589+327676069+327714362
2467+327573358+327403153+327460681+327747480+327993887+328087680+328283134
2453+328588853+328659005+328598295+328633826+328657222+328764688+329007948
2440+329159234+329244074+329315555+329286879+329288697+329454985+329776686
2426+330194697+330545213+330718181+330789732+330970673+331364449+331759694
2413+331961688+332019146+332013445+332086290+332356548+332646529+332797046
2399+332967495+333329587+333787081+334164980+334489338+334806527+335020656
2386+334803904+333613624+331309859+328173639+324338310+319953443+315309998
2372+310526703+305681684+300995120+296649805+293055410+290874080+290540577
2359+292356667+296270542+301604109+308061197+314566510+317985052+316510595
2345+312245399+309457668+309345655+310559017+312203294+313926991+315387599
2332+316500523+317988514+320002507+322026677+324273788+327256414+330819143
2318+334287170+337138129+339301624+341231686+343481525+346046035+348552353
2305+350704413+352486406+354074135+355585522+357168774+358873377+360461210
2291+361774135+362951581+364193375+365536829+366750086+367566350+368127148
2278+368785901+369599996+370392969+371138870+371929920+372704777+373511179
2264+374529716+375601584+376441872+377037677+377537836+378068664+378624462
2251+379227016+379948158+380580892+381075350+381761416+382539456+383097072
2237+383485183+383752048+383980060+384413739+385034338+385608810+386105961
2224+386559748+386867425+387008009+387111034+387301278+387680436+388301280
2210+388927230+389310200+389714712+390362659+391011376+391594661+392269535
2197+392869851+393215892+393573682+394169662+394883600+395614079+396387188
2183+397225133+398076753+398867697+399595798+400301797+401036018+401897814
2170+403011228+404217945+405126218+405759267+406561577+407703422+408932241
2156+410066533+411047266+411851220+412831254+414246959+415718443+416940932
2143+418111244+419395843+420697751+421936747+423209805+424723045+426388514
2129+427798414+429020204+430431608+432009160+433624691+435239627+436882331
2116+438641139+440446354+442209918+443889131+445534248+447407551+449659244
2102+452204310+454846526+457407189+459812615+462025595+464220424+466683447
2089+469379204+472088670+474900287+478199368+482032844+485980606+489803625
2075+493683753+497879042+502295978+506531833+510576710+514975705+520012961
2062+525322538+530470128+535515392+540888441+546762593+552877837+558946604
2048+564846250+570623952+576384972+582307524+588627664+595354380+602381638
2035+609476531+616288786+622877716+629449439+635727194+641555009+647357995
2021+653266034+658980752+664438642+670029492+676165823+682360907+687805507
2008+692471508+696566079+700158883+703622644+707306723+711161671+714960945
1994+718081008+720412050+723124629+726474033+729362586+731609908+734009353
1981+736498885+738694519+740993108+742832384+743331634+743324220+743536215
1967+743896979+744718453+746088346+747661212+748770988+748716573+748310208
1954+748702375+749500768+750370433+751151130+750805055+749608899+749912519
1940+752122631+754131658+755472735+756857036+758227838+759679983+761673063
1927+763528147+764379417+765805683+768909800+772345023+776480721+781577078
1913+785307319+787528971+790842565+795962982+801418004+806563670+811390259
1900+815650105+819473929+823537026+828399635+833590414+838771542+844649646
1886+850648190+855772384+860657655+865387094+869361504+873004527+876401982
1873+878204259+877272346+875938263+878063325+882234343+885742797+888103984
1859+888874680+888335913+887382388+886649461+886273240+884824242+880876131
1846+875037544+870917514+871242886+872294471+871167838+868826095+865533484
1832+860167568+854739964+852531811+850739185+847858815+846760719+845940224
1819+842985785+839695412+837775911+835530059+832073153+829689584+828523293
1805+826418025+822629872+818559151+817301796+818534951+817537432+812992501
1792+810862054+814621111+818207411+818176286+816369743+814478219+813708852
1778+814508923+814307279+810822816+806534784+807209239+811887200+816370372
1765+818491167+818032415+817732222+818396255+819115194+820518099+820017661
1751+815733686+812865556+815068813+818378490+820401715+821983394+824215677
1738+825866319+823301949+819544850+823380634+831163201+837736044+841709475
1724+843162599+842898706+839220852+831931729+829893886+837979304+848086688
1711+855005186+856808302+854675617+853661381+853614940+850929919+850338695
1697+854887333+863441085+874979352+882821510+885273553+883650958+877216881
1684+875106717+887229494+900714189+906784635+906923610+907164003+908475004
1670+910947190+919456249+929581959+934715175+938212578+944082359+947895901
1657+944376537+932842536+928224446+941147923+949099960+951369873+959887535
1643+970558516+975348385+973437977+966441003+962941572+971376842+980999316
1630+984263110+984046289+984248842+984226670+984857901+985500602+983005125
1616+982964419+990283827+996803793+999278077+1000690355+1003287528+1007125760
1603+1010343323+1010813407+1010726258+1013093321+1015754421+1016904135
1591+1018036154+1018638219+1018930019+1021205177+1024885199+1027475868
1580+1025943359+1018822237+1014240447+1018210451+1019813882+1016713962
1568+1018913372+1025355702+1028303567+1024912267+1012668840+1005907503
1557+1020024828+1033616955+1039938354+1042927695+1045526267+1045690212
1545+1041076528+1033244512+1025530348+1030851640+1045830447+1052567094
1533+1051773317+1054140660+1057880902+1056875899+1052823853+1047057867
1522+1041008334+1040460894+1044340952+1051283720+1058338046+1057706396
1510+1048682700+1037325024+1039295653+1058977180+1073063731+1073741823
1499+1065878962+1060451917+1062616706+1063907424+1058995156+1055248688
1487+1059903288+1066144114+1067279420+1065362017+1063070703+1058098703
1476+1050851056+1046539943+1049339600+1055665755+1056967734+1049519981
1464+1040488382+1036372478+1030757848+1019139496+1012320387+1016523858
1452+1019484662+1015000302+1006966571+1001768868+999083987+995948397+990736495
1439+980325630+966790156+960903449+959001084+951101294+941278505+935561969
1425+932344756+932764200+935735356+937621634+944815565+957955305+967376763
1412+969501965+968049680+967747948+970668885+977579409+984891194+988383700
1398+990564996+995294365+1001763133+1007183183+1010864744+1011481357+1008190564
1385+1007253755+1010654148+1013636074+1015708469+1017476265+1017780794
1373+1019640914+1025195674+1029789424+1030703432+1029331371+1025872507
1362+1022990668+1023674845+1026921084+1030601946+1030502907+1026014070
1350+1021675470+1020411050+1022126249+1021673581+1013421840+1001532462
1339+995477684+996540040+998669508+998928784+998212364+997128256+995624703
1325+995255616+997851741+1002210974+1004776323+1004062910+1004712326+1010319403
1312+1016891056+1021187132+1023688274+1024534927+1026007776+1029103079
1300+1030305530+1028787359+1028084577+1029398096+1031066643+1032990201
1288+1037283409+1043825197+1048749705+1051447875+1055087960+1059708429
1277+1064120539+1068182027+1069980528+1068442353+1064842205+1060515145
1265+1058037014+1058515490+1058285589+1055154825+1051910125+1050594297
1254+1049950057+1048564427+1046969110+1045510670+1043516820+1041146331
1242+1038156011+1034027028+1030797994+1029609812+1028354205+1026906606
1231+1026721818+1026217673+1024493451+1023386122+1022458266+1020611855
1219+1019370167+1019866338+1020975975+1020501416+1018572053+1017675041
1207+1018572962+1020081341+1021073755+1021629238+1022099671+1022099391
1196+1021910477+1022167655+1021430531+1017782333+1013383862+1011564309
1184+1011627956+1011881218+1012287793+1011747418+1009161576+1006468231
1173+1005979334+1007689147+1009302440+1008261836+1005151984+1001640943
1161+997993374+994844914+993118805+992596894+992565140+992543878+991577902
1148+988956809+984764668+980572317+978718842+978692823+978006198+974811157
1134+970445489+968550398+968576836+968238664+967289545+964730071+960917718
1121+957960760+955874167+952728085+947711463+942671549+940409051+941016501
1107+939792438+933627920+927090958+924624647+924462730+924027828+923272310
1094+922087065+920298007+919712728+922668846+927172511+927254204+922830553
1080+920066427+920118674+920947073+922820621+924394956+925440736+928539257
1067+933064394+936907731+939833844+941520227+940750720+938159002+937339626
1053+939184079+939669969+937339346+935663455+936218938+938322248+941706204
1040+944391854+944170066+942473332+941962962+940882841+937335569+934794210
1026+934511223+934725317+934811626+934093107+935000750+939274165+941587441
1013+938061502+933040963+930438894+929079632+928162407+927696030+927081516
999+927183842+928986888+931890479+934148641+934380711+933272752+933022148
986+935005716+938458566+943316978+950577635+957544043+959496907+956648080
972+953882276+954111967+955671614+956282211+955972996+955281615+954362431
959+953870036+953702314+952889373+951292726+949004419+947285024+948194206
945+950146999+950346055+949270200+947996618+946961400+946230431+945409097
932+944922997+943828328+940238111+936206978+935056634+935202185+933832082
918+932520311+931743600+929714430+928505964+929233785+928568842+925871861
905+924009154+923212439+921657688+920605474+921618520+922688220+923286368
891+924707599+925365128+925307915+927551389+931013611+932572278+932252711
878+931116007+930529819+932750632+938457936+943968842+945074702+944561814
864+947643129+953312595+958276970+963199590+968379878+972010171+976425778
851+984268356+991872920+996510594+1000648739+1006159296+1012556512+1017749390
837+1020972338+1025507477+1033316412+1039603610+1039276699+1037300615
826+1039389586+1042229180+1045391977+1051824445+1055585181+1052558281
814+1049982091+1049631260+1044521893+1036736249+1033988699+1034810174
802+1033388523+1030584110+1029120355+1027856145+1027497410+1029456638
791+1030489968+1026481985+1020260394+1016678851+1013420302+1009174865
779+1006082709+1001705640+994241731+987055493+983372603+981496816+977767205
766+973351738+971159321+969806145+968231670+966932349+960013082+948283872
752+945470087+952241566+956379571+955628529+953783097+951961446+951935987
739+952958336+952124552+949603756+946553426+943661655+940859480+937197293
725+933906920+932137236+930883588+929911248+930697401+933323740+933916992
712+931384935+930577659+932989205+935829289+939285145+944927963+949009385
698+947060998+943457003+943550097+944903273+945802174+947732446+950053906
685+952060345+953633211+955628739+957764292+956487982+953867448+954623526
671+953176556+944166290+941313547+950609668+956800555+957901519+958310263
658+958685504+958233676+956202967+954057132+952813066+948375287+937724799
644+920561550+907674023+915018331+931987210+935413970+929649453+926196674
631+933736610+956273818+977727687+982085172+979925209+987376599+997131753
617+992167098+979345177+965484260+943743068+921970191+914899079+927892988
604+951035618+961868865+957418916
##END=
