##TITLE=Sample description
##JCAMP-DX=4.24
##DATA TYPE=INFRARED SPECTRUM
##DATE=13/9/2023
##SAMPLING PROCEDURE=Instrument type and / or accessory
##ORIGIN=Default
##XUNITS=1/CM
##YUNITS=ABSORBANCE
##RESOLUTION=4
##FIRSTX=4397.6552
##LASTX=599.8556
##DELTAX=-1.9287962
##MAXY=1.6741025
##MINY=0.26456681
##XFACTOR=1
##YFACTOR=1.5591295e-009
##NPOINTS=1970
##FIRSTY=0.30400527
##XYDATA=(X++(Y..Y))
4398+194983974+194025811+193939699+194707231+195524749+195475548+194306721
4384+192781232+191852429+192079283+193154963+194256793+195052883+195708384
4371+196297882+196444874+195897180+195555657+196325407+197360106+197643367
4357+197093647+195930554+195050838+194774534+194774133+195309727+195841155
4344+195579742+194847017+194151031+193457683+192425737+191811141+192495219
4330+193492281+193677254+193152173+192806215+192984192+192525573+191375039
4317+191193678+192123113+192635922+192299694+192556558+193682090+193965351
4303+193385353+192978840+192518978+192343199+192779149+192695675+191787229
4290+191352273+191904134+192324391+192399703+193053713+193455236+192825024
4276+192553576+192873365+192749598+192513913+192159928+191092753+190211985
4263+190466860+191466618+192278955+192128751+191072510+189877324+189364935
4249+190002392+191126796+191353955+190797583+191040665+192318236+193181342
4236+192693649+191302059+190180178+190139062+190830327+191348775+191412217
4222+191198037+191118462+191360321+191223402+190733396+190549723+190173564
4209+189650834+190091103+191020614+191085355+190567098+190146632+189651503
4195+189223104+189224901+189525480+189866677+190029783+189572789+188771060
4182+188631427+188928470+188994893+188975033+188957658+189149589+189682985
4168+190387056+191302479+192128178+192360422+191839355+190768567+190168021
4155+190324647+189783815+188728663+189124892+190486300+190713020+190023437
4141+189871532+190113697+190055493+189649324+189260282+189486791+189972726
4128+190043833+189981366+189869564+189545474+189499025+189796717+189223792
4114+187741790+187226820+187763619+187725083+187180677+187374577+188187717
4101+188544933+188618639+189219204+190044884+190349859+189825428+188787212
4087+188196663+188599142+189314644+189377398+188809117+188502364+188825384
4074+189034499+188472641+187864621+188271248+189006515+189189691+189200529
4060+188922659+188328936+188073181+188228106+188749479+189575350+189976931
4047+189441853+188848016+189252904+189765866+188970159+187760331+187844913
4033+188879842+189512692+189256039+188692766+188825709+189567475+189867136
4020+189652917+189745547+190201548+190571341+190814576+190883370+190710019
4006+190501095+190209462+189706477+189264392+188794189+188198975+188029848
3993+188307413+188961748+190286303+191489689+191672789+191463139+191661607
3979+191969086+191914552+191445228+190809778+190511321+190597185+190761323
3966+190691420+190395505+190647475+191277573+191657727+192021212+191721379
3952+190290126+188875216+188739673+189166639+188781076+189147696+191375765
3939+193139767+192664365+190062068+187287586+187353321+189602435+190417315
3925+189917370+190477469+190531640+189069785+189345572+192534652+195159123
3912+195314984+193978158+190720035+184928848+180054614+179604004+183195430
3898+189146282+192894200+190794124+187169877+188526047+190038251+188054698
3885+186996105+186325179+186167845+189524600+190627195+187568725+184356477
3871+182052542+183006997+185178792+184975603+186743428+191608411+193642427
3858+188980634+177341624+169688798+179538899+191942593+196981807+194874141
3844+189377780+184222980+180477852+180481752+184735063+188137254+190034696
3831+192680230+194691557+194886011+192085590+184848012+181005189+184458932
3817+187801733+192992641+199391160+200536800+195409831+189926564+188761885
3804+186893249+185906662+190261262+193810847+196617442+200967264+203741880
3790+204159670+203357540+201987187+201553436+200945072+199579248+201581458
3777+206237345+208286079+206106180+202808699+202800442+204970039+207696180
3763+209704755+208419978+207799648+211582795+214174082+212202418+215130583
3750+234777513+258476821+280436517+304668132+317977960+315591200+303033155
3736+289883662+287603753+294887169+302592828+306205128+307777485+312321264
3723+321614554+333689513+345491285+354574791+359072064+361783104+372986012
3709+394696166+419631699+444587685+468343802+487749983+498318473+499065323
3696+492707309+481414027+466589453+455028107+453324029+454602231+451377081
3682+443650720+433546603+420962581+408277212+404962490+404904190+400348388
3669+399520874+401701787+399426179+393934597+388271250+381472335+373490258
3655+367821903+360457384+346213439+335462251+339118438+346081853+347527882
3642+344477058+340451422+336089940+330201421+323019218+314438640+304323628
3628+301271198+305999033+307526777+301835465+292612307+287976624+287317549
3615+284903876+281816658+279201649+277135023+278024488+279348030+276918262
3601+272582547+269314198+266205437+263510644+262707902+260756213+254838219
3588+250761566+253619790+257025249+256541895+253707010+250718711+248513274
3574+247249485+245360167+240106945+233024903+231373640+235200197+237824877
3561+237990869+237520456+236490708+234241613+231839695+230489756+228545503
3547+225867492+225403635+226988303+227866127+227135697+225814143+225033651
3534+224300754+222447085+219824450+217807064+216870806+216708808+216920542
3520+217023418+217099647+217334815+216951623+215516413+214258665+214164754
3507+213872337+212351990+211497352+212217901+212662853+212218704+211666001
3493+211231906+210785501+210259521+209705825+209050592+208401915+208354568
3480+208856291+209133722+208913100+208551105+208408108+208261097+207752913
3466+206937918+206144505+206066765+206690574+207064897+207133577+207206882
3453+206759330+205340826+203635774+203051705+203559870+204160760+204905221
3439+205596333+205730805+205588037+205416406+205297359+205220021+205099732
3426+204937066+204472464+203886139+203855727+204238729+204647440+205192649
3412+205596218+205534802+205391901+205514541+205839147+206144906+206217676
3399+206295970+206635753+206847697+206948948+207360659+207763330+207897668
3385+208063489+208459622+209092396+209707871+210049756+210364270+210683352
3372+210627900+210501495+210630022+210755778+211070253+211785105+212439937
3358+212641062+212677744+213014239+213430615+213425263+213047747+212803710
3345+212847540+212836663+212801091+212804264+212650926+212557149+212394502
3331+211754006+210998133+210531352+210222859+209771981+209139991+208553934
3318+207915330+207023208+205961194+204865061+203910682+203117383+202238335
3304+201216501+200113467+199093754+198728051+199083508+199357174+199075920
3291+198440852+197856840+197728886+198003259+198189130+198097896+197914395
3277+198036996+198758615+199878623+200883752+201196660+200910512+200683372
3264+200698186+200862133+201059492+201061901+201066947+201463749+201991832
3250+202336853+202505769+202452210+202559061+203057611+203583075+203978711
3237+204187329+204363032+204901513+205731321+206469589+207023285+207559242
3223+208246321+209099067+209705194+209904618+210325716+211025448+211463481
3210+211937469+212845685+213857963+214833043+215828270+216609355+217206173
3196+218014783+219137792+220316138+221502092+222797936+223775482+224208602
3183+224575949+224881096+225243053+226425011+228053108+229086392+229679330
3169+230369334+231210267+232295390+233437743+234187824+234623028+235260637
3156+236391751+237598673+238475504+239135975+239488832+239448519+239270714
3142+239248446+239643088+240308280+240615511+240336972+240099815+240361610
3129+240715175+240689867+240370365+240243137+240507628+240675837+240312638
3115+239422542+238345715+237721543+237637228+237365588+236464654+235282677
3102+234266003+233445293+232785912+232399317+232410461+232882785+233544537
3088+233874381+233873215+234084145+234464108+234531258+234639982+235434600
3075+236447528+236686691+236315254+236378715+236953991+237129254+236751375
3061+236538227+236769496+237113159+237259521+237183482+236816747+236102392
3047+235440526+235100016+234918178+234755932+234345979+233355779+231830252
3034+230313538+229310053+228553913+227589384+226506478+225452971+224474928
3020+223640207+222954772+222568483+222332282+221633582+220417370+219221132
3007+218399410+218172747+218469542+218618541+218380811+218425348+219444870
2993+221806494+225132799+228492555+231391589+233475705+234475061+234776098
2980+234919096+235199795+235593730+235501521+234475921+233048395+231869361
2966+230814458+229726525+228889262+228350743+227968965+227808898+227805801
2953+227718715+227446617+227177348+227245224+227641663+227959465+227849134
2939+227222267+226332840+225541108+224778374+224016843+223629809+223610866
2926+223616218+223540791+223357883+222845704+221972008+221278679+221105328
2912+221226897+221554122+222093348+222610096+222901729+222977060+223006191
2899+223236810+223619544+223902174+224185149+224666878+225307106+226010050
2885+226607213+226963224+227214258+227483604+227636215+227661887+227769005
2872+227924637+227977318+227999949+227986990+227714376+227155843+226655076
2858+226429503+226372293+226312387+225916636+225107854+224464625+224419266
2845+224754729+225085624+225244391+225400099+226007756+227021123+227923395
2831+228729195+229461786+229789833+229746920+229692023+229902437+230278692
2818+230525348+230584279+230596665+230755967+231188935+231803186+232437929
2804+233079055+233729128+234394836+235016485+235447942+235739595+236037460
2791+236404902+236651348+236529147+236315215+236392286+236649341+236756307
2777+236560840+236192078+235848147+235603307+235497182+235446585+235287398
2764+235154895+235194749+235264269+235306264+235361276+235342467+235214877
2750+235164567+235216004+235146924+235006182+234977281+234971202+234812206
2737+234568627+234428058+234314191+234123522+233996810+233974045+234000289
2723+234093340+234166453+234157871+234084394+233904773+233798323+233971694
2710+234148046+234031179+233853909+233824663+233697818+233414003+233237784
2696+233207487+233236580+233252349+233131793+232873056+232556134+232250069
2683+232050263+231887941+231556625+231144455+230831623+230443900+229858244
2669+229313704+229000108+228794740+228475027+227956769+227377689+226971176
2656+226819042+226840909+226847561+226749120+226690190+226693573+226699059
2642+226792893+226935929+226954030+226874590+226813384+226734058+226701888
2629+226888448+227222917+227421595+227358574+227349781+227700059+228262567
2615+228744697+229033253+229403754+230046849+230580093+230833057+231123944
2602+231591070+232080827+232505862+233032167+233753614+234507384+235150728
2588+235625537+235920955+236106100+236317949+236668092+237080072+237407220
2575+237711985+238036056+238253066+238461206+238759013+238923782+238827348
2561+238559111+238220150+237932416+237860258+238055400+238389277+238647307
2548+238736439+238857416+239060624+239117644+239101205+239241048+239433208
2534+239460332+239407748+239440281+239473005+239445958+239448328+239527979
2521+239686230+239866769+239979889+240023930+240030429+240085384+240380247
2507+240856758+241201014+241339424+241412633+241508130+241707000+242080922
2494+242610189+243160024+243548397+243830569+244174940+244496545+244782749
2480+245142221+245427833+245478315+245300605+245013885+244856417+244848542
2467+244764380+244683276+244849058+245044831+244952297+244725176+244640211
2453+244697154+244809873+245025697+245320102+245603516+245956470+246318579
2440+246490783+246602241+246807897+246962764+247006326+247031099+246991876
2426+246882023+246921381+247174020+247441511+247610466+247657641+247643152
2413+247728136+247921100+248142372+248369435+248530553+248595696+248665847
2399+248814980+249037456+249301737+249546615+249770888+249950815+249859370
2386+249269318+247984637+245639261+242090900+237830248+233482319+229138690
2372+224560715+219819538+215214286+210871632+207121649+204619341+203939411
2359+205480192+209217024+214720820+221889738+229249345+233140222+231628095
2345+226834984+223389250+222933823+223957607+225460808+227183330+228935787
2332+230759733+233055315+235851569+238530631+240798439+243301798+246604688
2318+250280812+253512002+256069532+258511304+261288252+264126176+266627930
2305+268760081+270634948+272392661+274160448+275896886+277462592+278837533
2291+280189517+281569829+282806303+283886170+284826805+285548176+286226347
2278+287083183+287970374+288598178+289037338+289548867+290150809+290776434
2264+291393820+292022541+292607700+292921774+293081153+293412946+293839567
2251+294192865+294507894+294762560+294924213+295101999+295417143+295842159
2237+296164739+296295178+296430950+296651992+296802062+296841668+296945384
2224+297217329+297535188+297772096+297940191+298112606+298368685+298726092
2210+299142239+299591798+300114528+300777446+301458847+301963629+302406440
2197+303013142+303783446+304533660+305137227+305782272+306628041+307462590
2183+308250212+309228503+310306305+311233828+312026401+312775449+313538872
2170+314455251+315530721+316583923+317639725+318779555+319821249+320671740
2156+321494552+322440807+323522471+324703913+325935933+327152662+328413851
2143+329749090+331036085+332269863+333505515+334735968+336004382+337355296
2129+338752467+340140502+341526701+342923834+344363784+345948280+347726790
2116+349610736+351417765+353155523+355024522+356999149+358991591+361169828
2102+363590248+366018200+368422373+371060204+374014001+377184904+380521952
2089+384013943+387615233+391273981+395105182+399341960+404043302+408989503
2075+414005205+419227996+424729595+430253099+435744643+441687829+448205719
2062+454762565+461415328+468500467+475676667+482741391+489959912+497434685
2048+504906322+512154586+519301885+526554965+534058639+541691300+549213286
2035+556738674+564281495+571514390+578294496+584680227+590876569+597058613
2021+602896860+608232466+613571933+619245335+624888726+629901370+634385913
2008+638802713+642841079+646175680+649225472+652257449+655187735+657767764
1994+659480213+660889809+663175929+665754887+667791293+669498314+670717068
1981+671166647+671248840+671655830+672604838+673337161+673103121+672257485
1967+671664623+671811959+672281952+672560339+672735889+672558886+672021686
1954+671927489+672568138+673327374+673483351+672847366+671859899+672140197
1940+674517916+677281292+679489578+681491118+683766916+687079956+691167753
1927+694711317+697430576+700946309+705782791+710838176+716888520+724267872
1913+731292684+737391885+743374027+750247910+757827737+765023511+771686596
1900+778305259+784687281+790784189+796997084+802652059+807767464+813522065
1886+819089112+823518222+827212638+830299436+833091561+835567223+836892026
1873+836064282+832414289+828835631+829992071+833684118+835136913+833567288
1859+830761706+827909714+824376931+820031697+815785936+811515019+806103948
1846+798445827+791423997+789295458+788242390+784763358+780911207+777396622
1832+771569767+764035433+759020037+755974144+753528072+752936663+752469269
1819+750285298+747128846+743881867+740461709+737657044+736785184+736648705
1805+735404107+732453941+728552398+726363686+726444885+725364445+721722020
1792+720413809+724471711+728289914+728619681+727528919+726824198+726816322
1778+727454830+726492978+722010806+717704183+719790516+725739017+730764965
1765+732970880+732445148+732618404+734357691+735800317+737000339+736043838
1751+732481772+731520761+735333765+739617909+741209324+740604763+741289300
1738+743474341+742460420+740894007+746085259+753407649+759450577+764028552
1724+766996915+767977270+764414210+757545145+757587580+767471801+777444485
1711+783100989+784601189+783677030+783608217+783352921+780324232+780712873
1697+788082744+800418466+814011478+821763108+824280976+823809836+819251740
1684+819102875+831525454+843850166+848732601+848558274+850515698+854740510
1670+858807663+867516253+877589022+882312804+885390044+891802727+897874785
1657+898392565+890728097+885125650+893696307+899422083+901153877+909582474
1643+920624436+927091480+927342877+921430542+917916492+925916919+934726511
1630+937369312+937773550+938872799+939817984+943077808+945591929+942159843
1616+940507261+947563115+954204410+956515838+957450165+958887439+960860308
1603+962805957+964256611+965912022+968195925+970307720+971648273+972485268
1589+973278453+974866045+978135579+982064113+984553232+983515149+978395692
1576+976411279+981458253+983832530+982594737+985296106+990729733+993632341
1562+990608698+978373596+971169105+984372101+998979034+1009461851+1017558694
1549+1024661188+1028798531+1025494972+1015463032+1007589221+1017387808
1537+1035266799+1042829881+1043774378+1048028932+1051227054+1048564221
1526+1045084195+1042357289+1039971390+1042925837+1048551299+1053885682
1514+1059411824+1061469409+1056598290+1046327416+1045732108+1061283767
1503+1072277712+1072997955+1068047472+1066056941+1070037467+1070341391
1491+1063690463+1060593419+1065856084+1071050471+1073146667+1073741823
1479+1070802285+1062721652+1053945855+1048476752+1049276741+1055216219
1468+1057693793+1053608136+1048988491+1045555870+1036634342+1022175739
1456+1016381762+1021031150+1022918155+1018817895+1011542756+1005509769
1445+1001557074+997028568+990306991+979833196+965450516+955694670+953059744
1431+949856423+944001967+938659479+935304922+933455688+930894468+930375542
1418+939668125+953446320+963643487+969828934+972508665+973039289+974404845
1404+978684478+983021684+984624644+985865878+988562582+994332093+1004214708
1391+1012630537+1014698367+1012468062+1010774650+1011453452+1015941359
1379+1023131705+1026615018+1025268730+1026705698+1031925011+1035102718
1368+1036361002+1036588238+1034063489+1031748926+1032340947+1033311745
1356+1033172284+1032495929+1031080522+1027649736+1022773265+1018908575
1344+1015974007+1011487859+1006154852+1003048481+1001666945+1000499189
1333+999838890+999388930+998721826+998256803+999455296+1002556927+1004701369
1319+1005356545+1006980379+1009750178+1013253447+1017003526+1019691590
1308+1021534173+1023020916+1024328515+1025849053+1027368750+1028733541
1296+1029321357+1028666486+1028812523+1031432386+1034856520+1037515837
1285+1040156267+1043484369+1047322529+1050705146+1052159852+1051158470
1273+1047557334+1042661213+1038815638+1034723329+1028685677+1022288134
1261+1016993051+1013879187+1012977048+1012093795+1008892692+1003538124
1250+999171557+997474017+996608885+995064416+993599387+992587989+991709247
1236+991867823+992776307+992460609+990881733+989954440+990910252+993056911
1223+994941317+995732896+995407410+994708041+994528668+995037349+995297080
1209+994684874+994121448+994473006+995557499+996448168+996005930+995009977
1196+995138657+995832904+995557117+993502972+990735161+989442242+989140000
1182+988589190+988235797+987645229+986089443+984219947+982413530+979854757
1169+976634615+974067432+971949827+968840474+965439277+964376422+965205848
1155+964688527+962300028+959336559+956751178+955179719+953270770+949998636
1142+946985010+945265679+943854630+941961279+939629589+936799005+934031041
1128+931974756+930078193+928189124+925915543+922244293+918327917+915472637
1115+912607034+908465639+903461024+900099662+899108755+896236654+890014736
1101+885545868+885503968+887529440+888898819+888948976+888329659+886682505
1088+884225958+883950936+887648104+892485428+895301485+896882119+898338049
1074+899329415+900451984+901692147+901733588+902244792+904951589+906239768
1061+905470745+906367149+908465792+911635395+916577009+919044337+916565463
1047+913495257+914269709+918081872+920907792+920800444+919020481+916655685
1034+914429585+913362601+913545644+913953781+912420857+909194369+907266152
1020+906597443+906012150+906336107+906069036+902609042+897934882+894077914
1007+890122161+887498780+887562623+888339828+888258399+887190575+886844751
993+889619061+894554635+899804989+905994412+912616439+917518294+921307825
980+925694424+928512469+926629286+921835697+917692467+914255411+911536839
966+911121897+910689828+907872165+906383970+908073864+908714589+905989366
953+902626934+900617671+899458325+899333162+900488379+901476075+900548858
939+897536302+893643857+889497951+885065324+880934786+877958012+876739717
926+876549410+874399081+869534309+864909770+861165043+857253790+853708086
912+850591392+847479593+844518187+841427567+838023235+835393509+834099366
899+832972974+830801083+827687448+824698212+822023145+819850337+819066633
885+819151273+819785958+821562404+823939204+826408597+829402191+832902631
872+835948600+838668930+842946881+849235012+856505257+865275702+875833373
858+887081238+899968076+915259546+930299160+943314066+955474315+968510324
845+982474085+995203189+1005978232+1015033028+1020922425+1023995155+1025071772
831+1023321017+1020869286+1021833815+1027320351+1034644118+1039652251
820+1040407970+1038471420+1036401296+1034789007+1032862244+1031350346
808+1031757413+1032545857+1030540646+1026623505+1023143709+1019652367
797+1016070422+1014012684+1013922539+1012605764+1006003769+995222609+985157639
783+977578271+970675104+964568716+959609058+953257925+945631535+939742978
770+935833635+931216437+924976475+920003590+917722439+916642075+915826106
756+914366506+912910423+913165031+913528975+912866001+912250507+911039245
743+909084421+907389022+906304070+906480461+906896856+905086233+901519809
729+898099039+894115073+888805768+884187117+882177472+883194298+885814621
716+886537463+884696027+883940843+886042315+890107251+896330010+903634891
702+908955588+910328713+908635684+909006280+913591825+917656837+919134787
689+919676881+918300468+915041485+914682816+919120795+923534078+924908503
675+924773400+922231907+913357708+901974739+904441991+916999138+923058428
662+924301114+925026556+923937322+919680398+915500391+913792606+913505120
648+914467202+917634435+921606779+923758638+924742664+926579741+924457472
635+913730521+907267070+915489687+926785263+931927887+932032482+926084058
621+918674581+916898748+920260186+918020629+905978814+900711256+917063364
608+947305602+965756276+962243067+949797702+934588044
##END=
