##TITLE=Sample description
##JCAMP-DX=4.24
##DATA TYPE=INFRARED SPECTRUM
##DATE=13/9/2023
##SAMPLING PROCEDURE=Instrument type and / or accessory
##ORIGIN=Default
##XUNITS=1/CM
##YUNITS=ABSORBANCE
##RESOLUTION=4
##FIRSTX=4397.6552
##LASTX=599.8556
##DELTAX=-1.9287962
##MAXY=1.6838502
##MINY=0.29306963
##XFACTOR=1
##YFACTOR=1.5682077e-009
##NPOINTS=1970
##FIRSTY=0.32363805
##XYDATA=(X++(Y..Y))
4398+206374485+205842124+205202561+204498822+203253181+202912989+204001086
4384+204991027+205190399+205049731+204948306+204623888+204044397+204081626
4371+205057883+205729335+205184146+204045670+203240144+203020686+203046949
4357+203063445+202451837+201139245+200374996+200213519+200220683+200931569
4344+202164685+203312645+204287174+204575085+203876933+203620321+204245555
4330+203990767+202862914+202428728+202513904+201983691+200882671+200449872
4317+201194224+202104595+202181523+201398669+200959961+201731830+202449195
4303+202390549+202507861+202823176+202242355+200898463+200276137+200360648
4290+200562795+201001218+201257944+201920122+203130149+203031024+201534416
4276+200552703+200466786+200270740+199910043+199755958+199995656+200803823
4263+201649922+202014420+201784642+201040215+200378037+200423267+201103840
4249+201820731+201924721+201089910+200407950+201139891+202187851+201904520
4236+200657378+199693663+199525116+200224598+201303687+201821168+201751347
4222+201279077+200234822+199369966+199507176+200098449+200561977+201098937
4209+201250438+200628815+200232238+200390447+200328551+200234423+200365437
4195+200183226+199998127+200473076+201039797+200815074+200033284+199507461
4182+199465785+199414854+199109136+199075023+199079204+198348213+197492574
4168+197655401+199020710+200565417+201144984+200758594+199921597+198949273
4155+198212752+198029971+197999526+197985805+198834527+200067511+199968537
4141+198926697+198898590+199627434+199454592+198744315+198503096+198238977
4128+197596127+197358728+198019575+199165445+199957021+199664967+198610013
4114+197702835+197289040+197140390+197084024+197362282+197873358+197938713
4101+197224730+196633039+197053960+197387405+197161884+197821382+198946290
4087+199049710+198736219+198627097+198315146+198046770+198019043+198160111
4074+198735060+199435188+199586214+199002409+197914350+196923402+196790012
4060+197487101+198147245+198590230+198959498+198760658+198042627+197312168
4047+196883950+197070341+197812184+198808453+199559646+199740242+199690831
4033+199782089+200185716+200479424+200022756+199348036+199310997+199572151
4020+199268371+198345210+197535941+197400651+197560627+197469636+197629631
4006+198531944+199713845+200263766+199516013+198181167+197600631+198039587
3993+198887757+199351019+199375668+199767893+200380717+200344799+199896607
3979+199676787+199575001+199522664+199911449+200487767+200557531+200428854
3966+200459451+200341340+200389592+200582407+200266844+199788455+199588684
3952+199489312+199475382+200022927+200916213+201036965+200866157+201371418
3939+201829150+201494621+200283416+199425895+200427676+201459559+200354111
3925+199100394+199787562+200327790+199378746+198953226+200649947+203121407
3912+204450019+203973131+201085577+196100051+192656742+193100012+195543099
3898+198704292+200817867+200049552+198662939+200163348+201280920+200013672
3885+199902080+200029883+199888606+202243704+202913864+199897481+196809416
3871+195136032+196491706+198935077+198869608+199458677+202466717+203886131
3858+201242038+193619222+186881900+192556040+201599371+205730171+204823544
3844+201615981+198141183+195139984+194838713+197540673+199829713+201705205
3831+204280408+205940033+206263539+204445800+198629986+195346045+198845568
3817+201983862+204654047+208213737+209540981+206939647+203065231+201694354
3804+200162075+199364227+202935870+206609204+209438910+212519070+214387645
3790+214889884+214436466+213355116+212697803+211987355+210921588+211972418
3777+215004080+216456731+215100601+213596657+214756742+217260242+220006691
3763+221985584+221551816+221949420+225659222+228241267+227928688+233595244
3750+254250384+278548127+304025188+333606423+351639761+355248899+350135361
3736+341727316+338917223+344561241+352313417+356081582+356135439+356720232
3723+360269926+366262668+372789767+378727017+384347393+392849318+410101894
3709+434567957+461452781+489529312+517279316+540628015+554289050+556488771
3696+550351712+538330424+520378005+501868120+492301891+489319469+484624135
3682+476015673+465266137+453347509+440693043+433522809+429807134+423245296
3669+420145125+421132538+419201839+414072185+407847099+400101004+391523291
3655+385521807+379214547+368201767+359122270+360703104+366160578+368458322
3642+367737079+366443473+364674726+361760529+358409238+353908923+346891367
3628+343693705+345448274+343659118+335711503+325167477+318295493+314427481
3615+309657176+306411357+305944085+306122362+307613250+309955882+310254910
3601+308474287+306337146+303639063+300684919+298532556+295220471+288769997
3588+283216191+282411844+282240503+280301196+277817440+275180265+272412931
3574+270363057+268361530+264088485+258471244+256705728+258387645+258847011
3561+257961460+257076706+255820861+253754663+251478774+249763030+248123701
3547+246523653+246096879+246573159+246441746+244951599+242716208+240946948
3534+239919798+238890214+237668842+236719323+235859199+234880318+234253773
3520+234184883+234396703+234477242+233763525+232152912+230789332+230219077
3507+229268208+227611472+226937987+227816621+228525796+228038740+227150699
3493+226623888+225978700+225019888+224508317+224433935+224150147+223896082
3480+224163127+224509058+224241956+223613853+223400722+223448555+222931151
3466+221863407+220953397+220505700+220435214+220632343+220938612+221245984
3453+221486138+221227474+220225599+219280374+219105252+219459146+219942039
3439+220067656+219604926+219038225+218846037+219098354+219483813+219402571
3426+218790621+218360502+218540850+219110041+219572942+219641661+219795252
3412+220257088+220436506+220309711+220245667+220191030+220006026+219662185
3399+219565626+220040157+220528942+220812121+221198208+221542657+221933437
3385+222507094+222851733+222907072+223175296+223880974+224425383+224293286
3372+224157901+224655485+225289878+225650404+225888392+225942668+225747458
3358+225471785+225331174+225574768+226144700+226565260+226572577+226455721
3345+226369138+226208402+226129744+225988221+225652305+225604833+225731609
3331+225618896+225437882+224977889+223917956+222636493+221511338+220662882
3318+220001902+219125130+218122191+217299030+216352437+215456224+214945775
3304+214117901+212692520+211666205+211606780+211764798+211414649+210684151
3291+210082216+209999777+210207985+210320109+210513495+210793311+210856138
3277+210794755+210605588+210550648+211213909+211837641+211699025+211719493
3264+212443529+213129537+213099834+212624029+212493357+212945407+213543123
3250+213953364+213815660+213169503+213145824+213952889+214649084+215182034
3237+215779445+216087710+216006601+216435732+217722858+218453089+218240966
3223+218547464+219674367+220479892+220616797+220854006+221631805+222557075
3210+223212183+223743004+224363658+225219848+226731090+228439232+229247513
3196+229717028+231002672+232727101+234058164+234820455+235123038+235340825
3183+235898537+236587492+237271353+238187102+239084778+239784165+240451987
3169+241341986+242772042+244066409+244448314+244784116+245800321+246886878
3156+247464089+247477125+247462834+248127293+249340759+250454359+250965949
3142+250836778+250686722+250985086+251278642+251147552+250997629+251036226
3129+251096336+251178871+251075564+250772469+250633815+250483892+249963541
3115+249286826+248674211+248098615+247640579+247312170+246798300+245795513
3102+244626592+243765973+243048893+242329684+241896657+241807718+241939436
3088+242431280+243251134+243931062+244112950+244036325+244285621+244834724
3075+245207489+245316610+245200267+245041184+245208591+245689584+246192470
3061+246419948+246321317+246202333+246108187+245890495+245647756+245320886
3047+244859600+244529177+244174352+243371088+242366704+241495710+240434447
3034+239090764+237952421+237148720+236257923+234869296+233263509+232461215
3020+232801368+233309043+233002564+231893658+230655847+229606329+228486780
3007+227413431+226849048+226774989+226949655+227234032+227497011+228212153
2993+230223657+233279910+236347090+239009427+241165894+242480443+243062823
2980+243482281+243873137+244063558+243913236+243222381+242091867+240738018
2966+239311667+238289173+237752916+237114379+236392871+236062105+235942322
2953+235687440+235504108+235628698+235824326+235893254+235806766+235423207
2939+234821425+234201113+233616206+232985290+232262717+231648620+231179846
2926+230894405+230833915+230524301+229809767+229201675+228911882+228746547
2912+228685335+228905744+229534645+230309612+230770765+231137619+231730907
2899+232196735+232365168+232468151+232625163+232932934+233456667+234019073
2885+234490735+235014487+235566726+235843919+235870202+235988958+236095381
2872+235899031+235592876+235439494+235379403+235179233+234764660+234365080
2858+234164549+234114625+233989161+233528046+232800969+232136302+231779558
2845+231836114+232181589+232692722+233380707+234076902+234656241+235248807
2831+235910624+236470350+236883556+237371618+237815420+237842767+237656812
2818+237768917+238077923+238142993+238162339+238690234+239620655+240326599
2804+240761678+241429462+242227005+242670826+242850206+243049311+243369435
2791+243904703+244357361+244330337+244079997+243922643+243759854+243476884
2777+243183043+243053568+243024397+242925937+242622100+242193311+242102681
2764+242490706+242854804+242802448+242525844+242398061+242445400+242481679
2750+242484985+242595380+242782171+242764402+242496996+242210168+241939322
2737+241700022+241572543+241500974+241522296+241530525+241292613+241077734
2723+241167015+241288831+241227619+241144496+241141474+241144496+241139022
2710+241141075+241117681+241130509+241269371+241396946+241384346+241236627
2696+240888587+240476446+240240624+240030819+239651479+239363587+239302640
2683+239090707+238659524+238275965+237895883+237444404+236995547+236546215
2669+236120676+235828773+235656596+235506103+235269959+234798430+234215480
2656+233875763+233832890+233792602+233583139+233422896+233492489+233585837
2642+233534906+233461855+233440988+233430574+233459897+233546575+233674320
2629+233890586+234110749+234158753+234148795+234291591+234642501+235173798
2615+235685464+236071170+236474911+236879812+237184998+237472188+237815078
2602+238252647+238808592+239447641+240184277+240891361+241386664+241758536
2588+242109484+242455168+242824987+243220025+243640281+244030947+244296149
2575+244453560+244647192+244940064+245210549+245335063+245323148+245194262
2561+244990367+244814333+244672087+244693011+245018759+245358742+245385728
2548+245211081+245210967+245420714+245526396+245563644+245723335+245901118
2534+245973752+246032816+246233157+246450754+246443741+246331807+246300774
2521+246307273+246426942+246715290+246959436+247041609+247108238+247346282
2507+247700480+248000954+248318930+248718851+249012065+249079529+249110943
2494+249385343+249894329+250365325+250692708+251075735+251592551+252074741
2480+252407578+252483253+252300357+252078789+251905206+251766343+251685842
2467+251686222+251774477+251762162+251617940+251631300+251770296+251736393
2453+251546770+251521343+251803420+252183064+252472933+252644046+252763620
2440+253034295+253478553+253794970+253803826+253642634+253525132+253539309
2426+253591532+253651319+253838585+254070510+254209069+254321896+254349547
2413+254216062+254161616+254347380+254684209+255119364+255538935+255811682
2399+256115329+256766617+258061079+260872807+267227880+279831852+300884177
2386+331044257+368966072+411775544+457049653+504655903+555447006+609047442
2372+664278314+718847197+767361462+805733484+833907468+852357451+860962188
2359+854813841+827039550+783731640+734851434+689599712+665476178+673971908
2345+708714761+737415918+738241151+726146355+715315786+709010465+707910661
2332+709965685+709655007+704543293+695857751+684123500+669020436+651424876
2318+630781709+608904874+595093213+592449405+588930194+572363171+543897855
2305+513968199+491634241+476232699+462355626+448296380+433343335+415983158
2291+397690566+381291654+367179576+354907244+345380012+339126344+334975476
2278+331601950+328741192+326447439+324457371+322599306+321026073+319773477
2264+318590626+317402568+316326710+315321509+314300192+313256109+312145416
2251+310960341+309841819+308948419+308305473+307726457+307053809+306418446
2237+305962443+305678161+305533920+305440154+305276206+305104143+305048937
2224+305061688+305163702+305333484+305317369+305227233+305492454+306046289
2210+306474793+306729713+307077944+307560438+307986889+308429513+309011094
2197+309581958+310241475+311208497+312232360+313031937+313747478+314556120
2183+315427589+316306565+317185769+318092244+319013961+319887996+320735691
2170+321672819+322747271+323829781+324852124+325897385+326926037+327860467
2156+328813065+329894967+331035135+332158921+333268492+334411169+335646927
2143+336922708+338192712+339513457+340889351+342325412+343851971+345364771
2129+346831314+348364448+349858244+351297042+352988518+354937575+356869224
2116+358716153+360579122+362624035+364903611+367180336+369298225+371525312
2102+374256082+377501255+380915905+384459289+388396666+392709144+397274795
2089+402128776+407337030+412951554+418957295+425426051+432383933+439450671
2075+446404981+453545493+460874829+468011882+475102527+482629544+490407300
2062+497932188+505282695+512683334+520140530+527599132+534853060+541884716
2048+548873690+555868896+562876114+569698649+576094354+582169004+588269955
2035+594655967+601134909+607502640+613919439+620117577+625624917+630725913
2021+635836068+640742766+645236163+649642598+653917601+657673032+661491786
2008+665768841+669479195+672061543+674298246+676876261+679804636+682591696
1994+684453867+685554430+686986196+688846314+690424868+691426306+692155606
1981+693240358+694659354+695677136+696017537+696073029+696158471+696112177
1967+695834033+696027419+697153904+698472862+699131239+699033406+698867462
1954+699344541+700358369+701512524+702501496+702749081+702234147+702702787
1940+705297450+708658205+711770767+714698458+717623716+720659729+723860850
1927+727430878+731013448+734475913+738446091+743097450+748744090+755176814
1913+761342190+766990654+772448622+778411794+785315515+792328243+798814939
1900+805072294+810869827+815999024+821005303+825685777+829960703+834969719
1886+840677932+846085805+850723938+853809666+855421515+857031767+858813741
1873+859222252+857373309+855410341+856453588+858815337+859570407+858404621
1859+856005092+853488193+851425112+848847020+844797786+839748406+834513393
1846+828462423+822395413+819188971+817388297+814560568+810798979+806304290
1832+800166356+793091523+788262133+785221635+782446129+780854120+779285981
1819+776540349+773565681+770974667+767806309+763766652+760707910+759234791
1805+757814427+755506573+753071468+751622598+750538682+748407110+745175431
1792+743850239+746379832+748906689+748932762+747765229+746706170+746546080
1778+747430681+746847256+743008967+738869881+739833616+744666426+749011287
1765+750546816+749576468+749475139+750940200+752202602+753351968+752703549
1751+749575632+748085941+750631802+754377503+756557498+756768823+757508841
1738+759787353+759704723+758005380+761386659+767622045+773339609+777538823
1724+779838011+780585251+778275725+773232122+773223836+781503603+790761016
1711+796821489+798562413+797396324+797171620+797077740+794179696+794183800
1697+801108198+811809008+822719850+829254284+831899346+832225836+829236496
1684+829922467+841293892+852216365+857123443+859257296+863175782+866727794
1670+869007598+876198584+885931479+891445699+894431846+898979823+903550529
1657+904503012+899629382+896516744+904575380+910879257+913837962+920684139
1643+928946346+933609184+933371785+928402450+925128886+930937288+938564532
1630+942558199+944373467+945876841+947106328+949360894+950909042+948362573
1616+947571699+954678156+961418670+963062978+963015316+964821158+967005105
1603+967573175+969216343+972882303+974567051+973809853+973109440+972989410
1589+974297042+977018044+980074050+983417245+986469070+987349338+984085732
1576+981378109+985264820+987666478+985857671+988621927+995154916+997656080
1562+993561996+981923754+976188174+991040536+1007528920+1017511984+1022629855
1549+1026306230+1028529249+1027551604+1023589256+1019649105+1025689434
1537+1037759372+1043565190+1044796882+1048663905+1052612114+1052243207
1526+1050251201+1047257528+1042853374+1044252453+1051174114+1058643016
1514+1065306222+1067975989+1063489966+1052369014+1047926776+1060760373
1503+1072740841+1073741823+1066791732+1064136560+1068288948+1069205932
1491+1066028073+1065455746+1068933110+1071668099+1071630167+1070473960
1479+1068584728+1063504029+1055049804+1047422180+1047526018+1052870265
1468+1053651789+1048945926+1045860425+1044750588+1037645652+1022903438
1456+1014871027+1018568838+1020617933+1016537608+1008423403+1001130631
1445+996941451+993664618+988761112+979626998+967231330+959221572+954790052
1431+948286176+942854358+942348166+943634893+942788072+937851044+933024999
1418+938421318+950884260+960578310+965890859+969016572+971185544+972876450
1404+975514518+980288036+987232805+993899128+996851523+998856680+1003834378
1391+1008814431+1010913848+1011859339+1012801788+1012937097+1013187495
1379+1015636663+1020433745+1024232430+1026391672+1029841442+1033062555
1368+1034230925+1033734767+1031003883+1028774402+1030836951+1034854639
1356+1035722440+1032232078+1028581244+1027169774+1027377679+1027708046
1344+1024554663+1017357671+1010845434+1008006834+1005656867+1001321052
1333+997783103+996317509+995502919+994927856+994980535+996970641+1000529266
1319+1002704700+1003745362+1006545422+1010412673+1012942266+1014584522
1308+1017308336+1021982196+1027368861+1030816275+1030769221+1029623503
1296+1031244854+1034414124+1034542060+1031866895+1031664920+1036263296
1285+1043402516+1050087386+1052919600+1051626943+1050308593+1051000797
1273+1051602542+1049841549+1046198926+1042018107+1037990006+1034128303
1261+1028804656+1021882767+1016830498+1014846398+1013116039+1010448553
1250+1006962447+1002607551+999971991+1000339454+1000958606+1000175639+998810843
1236+997611534+997533845+999067626+1000265490+999684574+998178919+996754603
1223+996321842+996484745+995756889+994957502+995982810+997233581+996324579
1209+995558031+997204163+999280243+999630678+998505561+997604617+997966530
1196+998925171+999649302+999595711+997986674+995093875+992002902+989361793
1182+987876967+987255686+986651737+986188342+985203627+983086498+980399931
1169+977043433+973649839+972311117+973086863+973480703+971593447+967964355
1155+965185276+964956695+965543693+963903566+960092947+956494945+953486145
1142+950671111+948454932+945798164+942043265+939098243+938246252+938028314
1128+936618592+933606067+929386329+925428086+923496588+922359613+919510676
1115+915992415+913037815+909580367+905551201+901527432+898152766+896474555
1101+896752470+896802109+894353397+891331522+889800859+889185279+889014623
1088+889438793+891302332+894708545+897356039+897353303+896998079+898541893
1074+900291255+901815153+903190364+902927271+903203666+905846828+908120322
1061+909698268+911787727+912504256+912430901+913480077+913579126+912562485
1047+913631882+916546725+918158574+917375835+915973715+916393477+918888939
1034+920374904+919242110+918295860+918511214+917884688+916218107+914605878
1020+913347581+910957173+906865674+903419173+901561867+900281905+899511480
1007+899402093+898615097+895785543+892200540+890219860+890564898+892684308
993+896081855+900251195+904760556+910413809+917501034+923929729+927441832
980+927875505+927144229+926986571+926725227+924667163+921597170+919579242
966+918128016+916976445+917292217+917563671+916206781+913783686+911200654
953+910223768+910724412+910755882+910225213+908934837+906992241+906387228
939+906491370+903952427+898713918+894219532+892188226+890823430+888101211
926+884321606+880333793+876130930+872173827+869415577+867533490+865567406
912+863171829+860016014+856191028+852271553+848670434+845774747+843804937
899+842366178+840548857+838227320+836153672+834925478+834488308+834238899
885+834518487+836086930+838240851+840047530+842189592+845126632+847476219
872+849850967+854870397+861544017+867083246+872407425+880254356+890327195
858+900066779+908741679+917747630+929425781+945231463+962299851+976108129
845+985685342+992380855+998668616+1006900646+1015670186+1021953158+1025716495
831+1028801768+1031375450+1031905360+1032167996+1034763039+1036575343
820+1035820653+1033956050+1031095710+1028719366+1026948567+1024801032
808+1024368651+1026393572+1027893373+1026803908+1023313089+1018069639
797+1013708054+1011604076+1009866572+1006656329+1001300603+996095770+992133346
783+986694002+979658469+972915826+965734190+956844468+947311648+939208238
770+934104962+930913419+926937237+923554589+922682758+922263224+922118033
756+924243676+925909117+923246951+918697986+915389454+913330553+913414019
743+915563075+916403587+913958752+910742503+908819824+906922534+904386023
729+901978056+898961123+894450850+891430647+893016575+896288771+897185915
716+895739401+893186471+892382523+895902912+901343548+905934551+911693999
702+919180689+924187652+926868746+930891070+933943960+935585227+940185351
689+944611702+943660207+941182380+941630496+943053293+943287955+943843862
675+945194823+946884741+949588183+950875442+946858059+943065683+942893355
662+943746409+943679667+942239691+938421166+934889830+937461536+942806848
648+942891910+937689281+931097227+927478624+928076568+927746202+925180805
635+923599742+921462925+919258910+918163211+913716944+906952637+901049670
621+896374365+897898719+907805615+919774984+923888452+920785240+923032661
608+931705129+938734809+944597639+952296414+958179313
##END=
