##TITLE=Sample description
##JCAMP-DX=4.24
##DATA TYPE=INFRARED SPECTRUM
##DATE=13/9/2023
##SAMPLING PROCEDURE=Instrument type and / or accessory
##ORIGIN=Default
##XUNITS=1/CM
##YUNITS=ABSORBANCE
##RESOLUTION=4
##FIRSTX=4397.6552
##LASTX=599.8556
##DELTAX=-1.9287962
##MAXY=1.8072116
##MINY=0.44120908
##XFACTOR=1
##YFACTOR=1.683097e-009
##NPOINTS=1970
##FIRSTY=0.45690769
##XYDATA=(X++(Y..Y))
4398+271468424+270416018+270020997+269735669+268969742+268331782+268342300
4384+268446115+269216186+271139059+272664397+272943758+272802298+272563645
4371+272422132+272864201+273425348+273121623+271813424+270520259+269782893
4357+268930716+267576214+266754971+267789386+268983288+268469949+268127835
4344+268669947+269288093+270091700+269603133+267568529+266868117+268122647
4330+268977710+268705485+268291659+267796009+267253241+267257987+267868093
4317+268701519+268846414+267387990+265372279+265191864+267121732+268738154
4303+268550922+268125143+268795241+268612666+266747941+266073700+267646829
4290+269453068+269946628+269295353+268966838+269106474+268206170+266545711
4276+265608542+265177451+264846227+265507754+266639186+266704524+266011974
4263+265691569+266557097+267921302+267880701+266644250+265849266+266127210
4249+266823868+267074207+266901955+266149592+265162135+265189669+266198976
4236+267331027+267862215+267265972+265996127+265249837+265716819+266783036
4222+267424732+267394170+267002264+266705958+266601098+266151964+265694154
4209+266514229+268042222+268385646+267332284+266072107+265761175+266331954
4195+266330910+265627010+265852347+267196137+267970421+267336941+266233434
4182+265727213+266032744+266783373+267402545+268005428+268959985+269316459
4168+268296917+266682213+265456670+265588002+266814908+267259014+266625162
4155+265291749+263211231+262141207+263236693+265135397+266238586+266118410
4141+265626355+265367428+264979400+264544184+264523573+264828680+265014212
4128+264756365+264396739+264772301+265560025+265720838+265555492+265689975
4114+265903963+266042908+266065272+265780174+265604505+266266988+266921149
4101+266021093+264655347+264835550+265666124+265766823+265551827+265085570
4087+264509956+264332091+264089490+264161273+265263081+266038287+265679369
4074+265144463+264381228+263464563+264001699+265573305+265591508+263992403
4060+263019501+263433770+264396597+265214954+265764132+266129636+266339391
4047+266171194+265522398+265363993+266277364+266844585+265908637+264214040
4033+263257499+263731228+265092140+266519558+267094039+266542028+265813445
4020+265458352+265491924+265779714+265858173+265736615+265775252+266174877
4006+266498239+265765017+264879799+265779059+267445006+267824304+267406104
3993+267371682+267785031+268579926+269846212+271012190+271093783+269956190
3979+268671258+268231916+268366700+268784759+269998562+271390461+271595860
3966+270783258+269949443+269839024+270395036+270550130+269991834+269249970
3952+268525566+268267276+268808149+269391271+269666329+270263917+270954413
3939+271107718+270571750+269351873+268360326+268522963+269209563+269448747
3925+269573049+270352061+271015129+270968578+271328222+272732993+273648738
3912+273241764+272920031+272332270+269735421+267353409+268026888+270123112
3898+271950635+272620555+271501182+270391158+271722057+273299240+273115656
3885+272600599+272063038+271611230+272418485+272659528+271506016+269797607
3871+267882241+268397174+270640860+271266602+272159681+274721914+275925748
3858+274215498+269549605+265338796+268514782+273947629+276672339+276325409
3844+274251903+272436669+271975920+272955922+274259659+274323173+273727427
3831+273951985+274663800+274818044+273553617+270554256+269615404+272398370
3817+274763542+276978721+279471613+280165774+278596754+276427826+275618499
3804+274953377+274437205+275724917+276981147+278295684+280641486+282107736
3790+282095802+281943558+282076625+282714691+283293279+282746138+282629202
3777+284184217+285542862+285157615+284072026+284631438+286484954+288242446
3763+289229425+289180023+289747244+291736961+292882098+291642602+291474511
3750+298343258+307981903+320368012+341101265+360524141+371563680+375359849
3736+374557659+373884799+374842951+375837296+375410916+374664183+376166856
3723+380635317+387954898+397049306+405688932+412539317+418473799+425832689
3709+435305280+446512751+459818375+476288849+494118110+506967217+514042409
3696+518605389+518842590+512088991+502988633+499132297+499453322+498606652
3682+494854361+489257690+482310484+473792185+468477691+466117618+460391369
3669+454187779+451104594+447975477+443732034+438573820+431582736+423181834
3655+417516319+413588624+405988319+396634506+392678162+392263680+391194152
3642+387885488+382938658+378179308+373831643+369540249+365462826+360115963
3628+355499189+354293176+353099311+349935418+345873753+343272265+341236049
3615+338200106+335641822+333918345+332477505+331867398+330966934+328794058
3601+326390886+324363099+322436064+320766593+319517234+317871667+314842240
3588+312188445+311641446+311175543+310003528+308950927+308140946+307093197
3574+305859810+304529566+302207244+298975215+297496021+298386640+299324925
3561+299281331+298261665+296725331+295462249+294934692+294732090+293648166
3547+291809595+290856648+291097727+291216982+290399458+289112578+287928097
3534+287101312+286803854+286494906+285762179+285041776+284814739+285150762
3520+285355400+284948107+284537698+284317142+283763697+283031572+282581199
3507+282132313+281529147+281371114+281436169+280870276+280082534+279987785
3493+280203330+279573321+278368229+277930640+278242298+278515532+278778408
3480+279212190+279603440+279545132+279008632+278730476+278875070+278731255
3466+278113676+277588048+277598513+277648588+277401471+277273557+277011974
3453+276636306+276659431+276604097+276459061+276897659+277515025+277791128
3439+277877148+277951021+278040299+277951003+277691155+277519665+277457885
3426+277616592+278030631+278369540+278540995+278748661+279045091+279253500
3412+279169464+279016140+279377855+280118054+280533598+280586011+280311165
3399+279688929+279479156+280080109+280941794+281688934+282314747+282588902
3385+282348921+282258386+282933140+283882227+284357797+284208085+283979242
3372+284314238+284847904+284985929+285152692+285629696+285817548+285656292
3358+285765986+285989818+285860470+285810590+286125576+286170091+285694309
3345+285152604+284602735+284039994+283824998+283869973+283924758+284024165
3331+283931257+283476970+283046747+282781623+282197740+281034064+279597208
3318+278281820+277233062+276336954+275415101+274460773+273581700+272538767
3304+270999955+269493652+268869574+268853921+268725600+268603104+268717455
3291+268987289+269439239+270023865+270601108+271408982+272683945+273767657
3277+274238942+274656168+275075962+275210782+275223619+275135776+275130074
3264+275964792+277479311+278447290+278678365+278786004+278989456+279329162
3250+279583467+279634339+279602431+279284912+278653628+278339279+278780728
3237+279458581+280046501+280978182+281844807+281841939+281507156+282031242
3223+283410269+284291219+284190857+284028591+284472608+285427042+286245841
3210+286701544+287272271+288128113+289286937+290856648+292429741+293474073
3196+294175635+294880987+295324703+295299293+295401816+296037066+296854910
3183+297657897+298382815+299153948+300098324+300728262+300924419+301260565
3169+302290997+303686721+304408912+304710176+305490587+306305809+306686754
3156+307306139+308279803+308850671+309131891+309554908+309846079+310070672
3142+310468864+310595149+310282481+309991558+309876428+309857163+309952320
3129+310196816+310526198+310693422+310706312+310675219+310296612+309465771
3115+308752434+308629725+308731363+308433959+307621073+306536884+305587904
3102+305052874+304668954+304039051+303412300+303270681+303383048+303347139
3088+303452530+304132791+305188189+305946113+305968494+305654021+305853223
3075+306524666+306931746+307035579+307089124+306955934+306777130+307005300
3061+307483137+307727243+307819779+307757947+307486714+307477683+307637364
3047+307484376+307000272+306024589+304670725+303691253+303300074+302927699
3034+302148421+301071138+299943283+298884202+298117779+297851291+297800048
3020+297441449+296784968+296180757+295535626+294658058+293801968+293262423
3007+293085532+293095164+293022566+292875210+292898778+293175004+293933742
2993+295803301+298749984+301717295+303797282+304997451+306086634+307394213
2980+308039982+307558391+306949134+306741681+306008972+304521456+303400791
2966+302965061+302538291+301962216+301470427+301021771+300630025+300568263
2953+300690441+300428981+299951711+300024841+300565643+300870094+300800754
2939+300500517+299975545+299359630+298665806+297752133+296954157+296692255
2926+296535939+295993207+295453732+295253875+295077409+294836313+294867636
2912+294979101+294996294+295517831+296353381+296521030+296145574+296049213
2899+296416559+296824844+297009366+297225284+297680385+298242648+298761175
2885+299183376+299555432+300001963+300479269+300741897+300822498+300944959
2872+301102443+301322433+301631594+301758906+301313190+300303405+299475716
2858+299352300+299440373+299207953+298852436+298538068+297969289+297372569
2845+297403733+297944110+298489339+298927088+299287422+299556141+299830242
2831+300242210+300824198+301411852+301740208+301931017+302293901+302826487
2818+303351990+303622799+303597443+303645534+304087285+304774983+305353323
2804+305744751+306124775+306731092+307586191+308412604+309037726+309414351
2791+309562344+309620742+309616527+309541663+309535926+309682007+309875366
2777+310044714+310148689+310099357+309994993+309869700+309669081+309675172
2764+309976578+310253973+310305075+310043085+309653960+309518573+309726629
2750+310180313+310536150+310489970+310415920+310586791+310774059+310972800
2737+311178872+311233303+311238438+311352931+311474152+311437357+311363201
2723+311435409+311490831+311405909+311476701+311807536+312131040+312379750
2710+312517297+312443530+312181575+311782817+311508680+311547954+311614708
2696+311478720+311442350+311746660+312058335+312085781+311860161+311592221
2683+311586271+311614602+311173135+310485296+310081721+309890169+309603920
2669+309269544+309031919+308879852+308740181+308562298+308363556+308129897
2656+307765809+307311912+306958873+306858475+306967054+307014402+306933092
2642+306860600+306716112+306566844+306660123+306813464+306754040+306597016
2629+306440134+306306943+306347775+306519425+306620389+306669047+306801459
2615+306997863+307249301+307653831+308061726+308268293+308386434+308513675
2602+308694639+309168969+310011779+310970109+311792379+312290791+312514995
2588+312785449+313231413+313658290+313851578+313960970+314225369+314599125
2575+315083088+315558658+315766536+315823340+315936062+316063409+316091103
2561+315974025+315832937+315854433+316008483+316190969+316507107+316855294
2548+316871549+316693241+316785105+317175505+317585135+317737555+317555458
2534+317415114+317680823+318195348+318541375+318498347+318271452+318265786
2521+318573530+318844339+318957450+319262326+319755993+320138602+320447339
2507+320727532+320922944+321171052+321467146+321647827+321836404+322079413
2494+322208956+322370088+322782729+323416421+324116549+324628312+324920900
2480+325284067+325674467+325707260+325487094+325391618+325295576+325048495
2467+324864238+324863671+325077924+325453026+325684950+325629032+325527394
2453+325587633+325806879+326165867+326509486+326653266+326781393+327071395
2440+327439591+327829106+327990061+327710718+327360583+327285400+327344080
2426+327319893+327259867+327379671+327667974+328046192+328524064+328840379
2413+328874695+328888718+329018191+329308760+329659426+329774273+329718461
2399+329822577+330153659+330579721+330986306+331295538+331448065+331407764
2386+331103490+330318298+328744691+326344529+323480874+320515510+317592430
2372+314582516+311257384+307927472+305101603+302819617+301153014+300650246
2359+301837702+304626599+308590558+313604390+318753821+321663692+320904989
2345+317665630+314954395+314220517+315029047+316673516+318366608+319508133
2332+320430800+322204777+324610322+326663252+328498779+330692797+333387778
2318+336248140+338651560+340353718+341863332+343665427+345554109+347316577
2305+349014344+350521868+351788367+353059329+354370272+355579720+356750389
2291+357899173+359051428+360244479+361314999+362224776+362992297+363752204
2278+364816986+365982025+366787686+367340211+367993593+368818306+369748305
2264+370648202+371309694+371801271+372456247+373425023+374436685+375070378
2251+375377025+375846752+376631766+377464236+378144603+378606822+378894700
2237+379160338+379539725+379987885+380352823+380719354+381255163+381869484
2224+382446656+383046918+383603266+383875031+383860759+383849321+384065167
2210+384510777+385127825+385786449+386289004+386692720+387234832+387972180
2197+388712078+389259892+389727069+390402514+391352557+392344636+393195591
2183+393929327+394591633+395225609+395884586+396656286+397627010+398647030
2170+399572389+400562449+401702273+402873404+404024879+405203765+406324289
2156+407153075+407816019+408679935+409747693+410929483+412337778+413920026
2143+415341707+416452882+417588563+419098000+420717397+421975113+423011919
2129+424290459+425996902+427942388+429747635+431289334+432743561+434295140
2116+435971411+437736464+439632653+441520769+443235711+445020808+447172932
2102+449590163+451977682+454195782+456440796+459043843+461953041+464882247
2089+467685487+470447152+473474560+476878062+480476976+484088533+487798647
2075+491760551+495817860+500126429+504912799+509680046+514192386+519022527
2062+524463342+530054523+535344936+540597351+546360996+552511006+558504238
2048+564189443+569961801+576392286+583277164+589893076+596216010+602661864
2035+609301715+615967773+622610811+629064882+635309941+641849926+648597151
2021+654613934+659807632+665269412+671263459+676932763+682074616+687007811
2008+691819962+696370123+700444466+704299103+708195952+711805314+715018750
1994+718173329+721299153+723934142+725975882+728260347+731295511+734355678
1981+736519241+737613027+738285462+739560354+741653798+743433264+744387096
1967+745259901+746119250+746923848+747788154+748211418+748408743+748812530
1954+749361584+750469607+751973342+752760021+752457447+751666660+751366564
1940+752239369+754105458+756537031+758707393+759797001+760474677+762016447
1927+764277256+766554213+769093303+771674888+774130402+777723189+782229579
1913+786267092+790216850+794967664+800454517+806141457+811555995+816264455
1900+820516716+825091596+829988315+834955225+839635000+843775495+848578793
1886+854129107+858801941+862804607+867357105+872204741+875856174+878004155
1873+879761594+880804314+881360379+883580817+886917351+889475068+890963363
1859+891702517+891503492+890427413+888982110+887094490+884914920+882343959
1846+878935676+877164497+878600450+878793526+875497788+871551501+868818061
1832+865667094+861475532+857997413+854692326+851165904+849513289+848933567
1819+847348027+844607575+841667957+839316206+837231828+834832481+832253799
1805+830085632+828196384+826146569+824621586+823682628+822014927+819387870
1792+818326310+820250760+821953732+821326202+819537528+818231685+817553159
1778+817546572+817858354+816945389+814793867+814557658+816738928+819192174
1765+820651501+821010100+821893812+823986690+825714593+826400344+826178371
1751+825359111+825503953+827151822+828163307+827631890+827506667+829390533
1738+831441409+831457416+831404012+834515033+839009523+843534045+847009543
1724+848375944+848548904+847891272+845711632+844898321+849374326+856704531
1711+862904119+865671485+865464386+865197792+865960532+866466381+868576540
1697+873247886+879013020+884992476+889530809+892689992+894429087+893789870
1684+894046336+899775276+907015885+912226653+915326553+918905317+922930010
1670+925724432+930152274+937010061+942411071+945732094+949151709+951834649
1657+951621388+948292503+947736933+954476225+959447668+961325796+964337871
1643+969279565+974067919+977154362+978086450+978968958+982051860+985059968
1630+985434220+984276689+984683167+986268424+988259239+989746259+989137923
1616+990796133+998084763+1004021156+1005676250+1006977702+1009499581+1009636773
1603+1007735909+1008292754+1012118918+1016491727+1019325104+1020986218
1591+1023101830+1025878758+1028523168+1030887385+1033123970+1034110383
1580+1032467259+1028938641+1027281139+1029048494+1029746498+1029257152
1568+1031375314+1033792156+1033509696+1030423820+1023161609+1019413284
1557+1028529613+1039424558+1047304455+1051743771+1054566311+1055504986
1545+1051918785+1044371211+1037523057+1041030143+1050444656+1054840767
1533+1056923162+1062265881+1067285556+1067115075+1062410085+1056784765
1522+1053125471+1053266984+1054529623+1057773090+1065098762+1071072482
1510+1069682637+1061578289+1058946274+1067460783+1073280808+1073741823
1499+1072459069+1071577764+1070972191+1069296486+1065945574+1064237643
1487+1067000901+1071225186+1073607534+1072459211+1069434883+1066836369
1476+1062954181+1056937115+1054357158+1056519375+1056341457+1052082750
1464+1050092856+1050594526+1045674151+1033203722+1024321052+1024974435
1452+1024440963+1017607541+1008702065+1005157652+1005063877+1001421510
1441+994431347+986081228+975441757+966032061+959233415+951947760+946396880
1427+945100881+945298135+945044998+944608843+945014471+949887534+959353042
1414+969851992+978353185+981693828+980556837+980223381+984502132+990075677
1400+993458816+997110462+1001298483+1005229188+1010662424+1015130142+1016518570
1387+1015256002+1011857635+1009407647+1011240163+1016396393+1020514933
1375+1023052251+1027483422+1031700978+1032198115+1031773222+1032632216
1364+1033366129+1034025957+1035328967+1035480892+1032930966+1029820725
1352+1028909602+1028556669+1025830100+1022137587+1020024312+1016921224
1341+1009864625+1003122216+1002014122+1004220819+1004429122+1002277175
1329+1001471726+1003651438+1007428377+1010736580+1012720454+1013716995
1317+1014608145+1016758038+1019383466+1020557783+1021590162+1023653150
1306+1026089186+1028900465+1030908491+1032020622+1033785639+1035081992
1294+1035851886+1037839797+1039925591+1042548753+1048799549+1056736036
1283+1062439691+1065984104+1067459438+1067524315+1068793541+1070483057
1271+1069822592+1067372178+1064534339+1061872860+1060446468+1058972268
1260+1056161626+1054482593+1054603212+1053517075+1050485169+1048120952
1248+1045503032+1040315071+1037113675+1038988899+1039887344+1036374450
1236+1033240481+1032158806+1030044256+1027382918+1027127869+1028243896
1225+1026896193+1023088161+1020055192+1019045548+1019408255+1019947535
1213+1019826632+1018933712+1018560169+1020781668+1023480261+1023600880
1202+1023162034+1022871358+1021063207+1018902477+1017495350+1016701093
1190+1016354393+1015782108+1015502836+1015718717+1014797254+1012866925
1178+1011365456+1010301134+1010129519+1011079243+1010658104+1007814598
1167+1005229825+1003758033+1001884579+1000601471+1000751058+999401585+995355502
1153+991589399+990098271+989782665+989143731+988162135+986741622+984005349
1140+979933981+976405504+975186141+975613513+976089614+974605569+970042801
1126+965300414+963252300+962127278+958867450+954686937+952963212+951909513
1113+948049990+944300532+943274527+941858688+938736407+935796009+933468623
1099+931777762+930271902+927400773+923651741+920780542+919590288+920993803
1086+924335649+926392900+925562308+923369139+921926953+922554271+924560809
1072+926213211+928063434+930443304+931536736+931607634+931999026+932352242
1059+932787689+934338949+937141375+939913486+941367147+942275507+943336572
1045+942998796+941321888+939129286+936620723+936647637+939764324+941752731
1032+940208270+937114248+935789352+935908342+934702506+933205003+933733446
1018+934657106+933960235+932728194+932098326+932487877+934110673+935156863
1005+933760573+931611601+931668546+933067244+932912203+931958513+932174253
991+932903633+934250628+937710047+941909755+944354715+946567715+950980117
978+955760325+957757727+956928410+954814426+952300905+951097620+952871136
964+955424179+955216159+953245671+952256072+951856180+951377033+951282054
951+951358406+951601414+951363435+949582339+947553844+947478413+948527012
937+946877018+942384511+939674586+939751221+939805687+938887410+936665911
924+933408207+930957935+929083490+927322934+927002016+927114773+925661679
910+923362694+921590311+919543471+915730906+912135994+912885913+917148445
897+918898801+915927098+912082165+909478056+906824155+905033640+906225381
883+908778707+910462131+912033790+914269455+915986593+915686568+914645548
870+916143971+919818706+922793526+925979552+931442323+937496007+942920178
856+950307965+960612565+971146503+980231031+987946749+995304364+1003516724
843+1011294983+1016315863+1019145203+1021704974+1025652961+1033170362
831+1041712990+1045367327+1045654390+1046286878+1047522674+1051803195
820+1057542901+1057075228+1051642417+1048397179+1046659076+1043977057
808+1041609228+1038791220+1036267359+1036131158+1035102532+1030944401
797+1027024532+1026639727+1029537982+1029224288+1021848824+1011317223+999805796
783+991608594+990663403+991865130+990410053+987828892+985362330+981327792
770+975569246+970435609+965469479+960208637+958706955+962317237+963264978
756+954767963+945498222+946897133+955212759+960223439+959536981+955628728
743+951305781+948327845+946385689+944628604+942797221+941615113+940924971
729+939245868+936935621+934846073+931119634+924557764+917283300+912208875
716+911508817+915188156+920040325+922492651+923261694+926130131+931754601
702+937922388+943273677+946749316+947784458+947652648+949428786+954443787
689+958133254+954952044+948499248+947946653+953582243+957615860+956703887
675+952928719+949667899+944482133+933305437+932203930+946903437+954671992
662+952956200+953694008+958396661+959275911+954311835+944886274+938335099
648+944214547+954784891+958617004+961773142+968625475+970274831+960303191
635+946532301+940928230+953247442+983253092+1000487580+980929176+951376325
621+932901083+923505482+922625806+932688743+945728836+950557915+948762442
608+941834890+935683960+943159149+952187298+939232056
##END=
