##TITLE=Sample description
##JCAMP-DX=4.24
##DATA TYPE=INFRARED SPECTRUM
##DATE=13/9/2023
##SAMPLING PROCEDURE=Instrument type and / or accessory
##ORIGIN=Default
##XUNITS=1/CM
##YUNITS=ABSORBANCE
##RESOLUTION=4
##FIRSTX=4397.6552
##LASTX=599.8556
##DELTAX=-1.9287962
##MAXY=1.8729308
##MINY=0.48162386
##XFACTOR=1
##YFACTOR=1.7443027e-009
##NPOINTS=1970
##FIRSTY=0.49918079
##XYDATA=(X++(Y..Y))
4398+286177848+285244893+286006702+286727045+286091310+284353029+283301346
4384+283564088+284420055+285311407+285330594+284683121+284317029+284512385
4371+285392683+285946629+285498015+285604526+286467259+286074873+284599487
4357+283443771+282812615+283247664+283720950+282460687+281044486+281008811
4344+281367658+281582030+282308968+283762604+285006738+285159482+284373155
4330+283335466+283005459+283338986+282819432+281206542+279987985+280062171
4317+280934967+281898950+282685294+282540596+282054479+282825668+283929957
4303+284231072+283788045+282513926+281364070+281289372+281655652+281379259
4290+280477656+279694917+279543762+280701870+282733253+283098268+280792748
4276+278666796+278795057+279671732+280216333+280922785+280882481+279283242
4263+278300978+279537115+281222397+281825345+281480594+280629120+279904608
4249+280087115+281526468+282534787+281383616+279541711+279011958+279323546
4236+278895366+277919151+277496848+277369868+277570862+278538706+280047306
4222+281460296+281403794+280135775+279433218+279066085+278602845+278721794
4209+278972559+279026087+279644122+280275893+279713575+279062668+280137432
4195+281673370+281464602+280421718+279581435+278040595+276450223+276608606
4182+278171692+279205827+279083358+278877512+279310852+279953678+280135092
4168+279858733+279389018+278695021+277809855+277140000+276986674+277076561
4155+277506723+278550307+279504858+279576446+278834490+278068376+277809632
4141+277594423+277027765+276421109+276112545+276650551+278244425+279200018
4128+278374189+277643322+278253549+278944385+278955695+278446820+277315365
4114+276294540+276347778+276964292+277140598+276720311+276359037+276638950
4101+277297767+277763382+278027490+278046933+277692785+277502759+277212579
4087+276577869+276872338+278024090+278814432+278908044+278253053+277671530
4074+277832732+277865775+277701174+278347246+279399816+279472703+278774127
4060+278605169+278302088+277127869+276689694+277466504+278463923+279222879
4047+279356094+279363612+279829722+279853830+278800268+277532044+277308856
4033+278453364+279532092+278961197+278005296+278584905+280082690+281269075
4020+281820903+281804586+281400582+280895893+280657054+280726934+281028699
4006+281368273+281598244+281919760+281724250+280690730+280145480+280409519
3993+280834385+281670841+282835288+283896931+284527284+284368918+283853465
3979+283551342+283155829+282459594+282498105+283867663+285249216+285544522
3966+285167513+284982750+285172809+285162575+285242074+286023531+286713855
3952+286522822+285866601+285571329+285531400+285278466+285660891+286759781
3939+287180016+286880575+286660651+286479766+286453147+286973281+287026930
3925+286185109+285949226+286315386+286388461+287122199+288950213+290179345
3912+289971996+289178441+287859986+285208210+282764212+283192888+285834719
3898+288607375+289855746+288881973+287470436+287806747+287852366+286924075
3885+287664459+288773720+289364605+290973515+290985030+288836970+287431310
3871+287385008+288782160+289732559+288808813+289589109+292621072+293436393
3858+290453363+284473225+280566826+285213216+291349123+294352792+294187882
3844+292027726+289141195+286404214+285770768+287734100+290004185+292272356
3831+294571691+295446231+295124203+294055333+290973036+289737651+293063860
3817+295359983+296722007+299150304+299936443+297782232+295557663+295541397
3804+294832143+294305909+296838804+299314940+301339643+303536807+304283683
3790+304071823+304026888+303997432+304585482+305536975+305929224+306849040
3777+308506780+309569226+309508983+309148034+310397464+312822993+314737870
3763+315137193+314237674+315273877+318985091+321609974+321608505+321988145
3750+328139138+337248045+349501577+370010798+390782248+405630148+414265683
3736+417330177+419222330+422572015+426926329+430187100+431728625+434062302
3723+438729417+445529182+454252058+462787678+468456893+473003111+482531639
3709+497477643+512181512+524479056+536618934+551861134+568637339+581591787
3696+588348154+588911977+584194186+578962257+578493704+579806965+577775633
3682+572608903+566957047+560285287+551055688+546125934+545188520+538332988
3669+529741396+526688590+524408082+519936596+514344061+507614039+499642071
3655+493678302+487561343+476316882+465524642+462593518+461861232+459063649
3642+454450729+449213059+444073188+438756583+432783041+425693232+417555911
3628+413696770+414194505+412774117+408147836+402131682+398311018+396606532
3615+394116249+391185193+387849963+384311175+383263798+383269642+381090110
3601+377854454+375287969+372667255+370101762+368678332+367102398+363117098
3588+359003485+358593876+359602913+359561805+358781475+357377968+355065067
3574+352912052+351458450+348945887+344990896+343166402+343896739+343736546
3561+342423318+341253575+340470477+339696366+338620320+337590747+336122314
3547+333679221+332034501+332256852+332681119+332219195+331408931+330664857
3534+329663850+327939682+325917337+324801037+324675459+324429906+323696629
3520+322895626+322255260+321984797+321610795+320387710+319058183+318388465
3507+317465539+316122173+315961364+316813624+316991484+316492826+315642036
3493+314504755+313720461+313267695+312428283+311283314+310660171+310710163
3480+310609085+309828789+309158763+309492478+310116168+310134347+309773193
3466+309198094+308421352+307810716+307392804+306997206+306847742+306843163
3453+306513891+305696007+304601303+304140711+304972674+306073631+306213698
3439+305534548+304555650+303544017+303154091+303619090+304025316+303832625
3426+303383857+302873239+302436055+302291033+302387498+302392760+302143927
3412+302257135+303030153+303478101+303205758+303329218+304116211+304239842
3399+303659788+303492145+303344389+302839444+302528522+302320215+302207826
3385+302537816+303050245+303249838+303297097+303616869+303696180+303010231
3372+302358487+302450543+302897090+303226978+303369676+303257151+302947254
3358+302779098+302729857+302656253+302811219+302922275+302487311+301805667
3345+301207230+300478840+299708146+299401905+299419196+299283058+298935915
3331+298234827+297051211+295888097+295438269+295568529+295713346+295502716
3318+294614576+293467454+292564313+291345706+289720565+288472399+287501907
3304+286073677+284040569+282234783+281875970+282840926+284020134+284811416
3291+285287060+285945809+286750213+287348992+287983309+288738899+289302995
3277+289953201+290875000+291265780+290939583+290516135+290478889+291123286
3264+292053798+292795651+293464310+294312367+295061602+295066967+294333827
3250+293665920+293951795+294922765+295685018+295978479+295839813+295786575
3237+296238760+296996605+297773552+298273304+298678709+299358952+300123905
3223+300454920+300366349+300693742+301546719+301846160+301313707+301038459
3210+301656101+302774246+303838913+304585994+305261351+305982633+306350245
3196+306592142+307267875+307835148+307987722+308625593+309591437+309879807
3183+309787306+310030911+310542793+310894311+311029936+311478465+312395445
3169+313137059+313615727+314331781+315020635+315465371+315998406+316584234
3156+317154617+317806840+318500204+319095327+319366748+319377204+319496051
3142+319774989+320102963+320375682+320220956+319737470+319520654+319797611
3129+320214736+319911263+318745689+317871457+318225196+319127380+318985194
3115+317742701+316861566+317019300+317478729+317306541+316494125+315521207
3102+314787110+314510291+314472087+314318830+314015186+313838351+314280285
3088+315507709+316425065+316058854+315379841+315448354+315958425+316280898
3075+316363591+316840380+317827787+318389114+318331844+318538066+318917125
3061+318584094+317915401+318080345+319056953+319798431+319743484+319225246
3047+318830604+318623186+318242145+317554247+316710291+315959519+315384694
3034+314823092+314217001+313604416+312951579+312359531+311858276+311155412
3020+310290338+309646555+309363551+309417575+309539019+309485746+309530784
3007+309719203+309566868+309197445+309306929+309982320+310816982+311708060
2993+313132412+315631682+318980615+322145913+324233490+325350781+325951132
2980+326321888+326762865+327060495+326815079+326210183+325479469+324468075
2966+323368485+322737106+322492066+322228812+321924075+321767230+321729710
2953+321582296+321487847+321652757+321737945+321367360+320875536+320932978
2939+321170466+320546947+319172417+318051368+317532822+317265194+316905783
2926+316385358+315966216+315771236+315499235+315017423+314621859+314380577
2912+314040746+313824478+313984159+314281584+314730011+315381242+315891211
2899+316078058+316083526+316095485+316276284+316715280+317131962+317183457
2885+317157761+317391730+317702447+317942465+318172402+318288173+318140793
2872+317974859+318077884+318233363+318044978+317443807+316715963+316129007
2858+315793208+315716870+315614426+315235571+314814105+314558643+314335437
2845+314101878+313978965+314141824+314648410+315225901+315644462+315953163
2831+316332462+316892730+317419135+317744785+317995054+318130576+318121179
2818+318158699+318278263+318601248+319331825+320051570+320278397+320524770
2804+321415165+322470948+323081687+323453195+323824907+324098925+324262092
2791+324454338+324737069+324967792+324996701+324877034+324660287+324374173
2777+324265748+324355310+324434655+324667668+324891761+324545540+324015377
2764+323995045+324255975+324477813+324582616+324416203+324256419+324460660
2750+324815458+325113839+325386011+325444136+325248644+325112985+325134786
2737+325180165+325096719+324870302+324687965+324680687+324815218+324936252
2723+324991746+325086058+325250250+325303386+325112028+325027865+325353378
2710+325881321+326357392+326646479+326683213+326535423+326394501+326383225
2696+326425358+326399456+326267317+326139175+326137604+326215274+326336684
2683+326506890+326530536+326261029+325813901+325370259+325069178+324752070
2669+324320832+324188043+324412103+324496197+324242990+323865503+323672231
2656+323682517+323592578+323369852+323204600+323083361+322903280+322695623
2642+322675872+322854415+322973843+322955323+322749818+322364471+322118064
2629+322209813+322351418+322205029+321974443+322060861+322490870+322979550
2615+323199304+323123102+323104650+323414342+323882793+324241692+324477608
2602+324686223+324974285+325376819+325879065+326556541+327331164+327928713
2588+328248383+328404989+328493492+328541400+328646954+328957501+329499317
2575+330097857+330436013+330464034+330505073+330652316+330681259+330523696
2561+330413255+330552366+330714371+330635743+330567572+330800208+331061719
2548+331076447+331155724+331515135+331862586+331978460+331951021+331957001
2534+332115862+332413492+332659421+332729608+332758243+332857613+333052149
2521+333326371+333579134+333840782+334086745+334165407+334260881+334556392
2507+334890448+335212476+335617403+336098531+336500007+336745150+337065504
2494+337535287+337940966+338232650+338495391+338809081+339216297+339659633
2480+339998609+340132765+340120224+340063398+340045799+340089743+340087386
2467+339980464+339875457+339940758+340185627+340364684+340320090+340243787
2453+340349307+340636412+340969579+341111799+341103496+341280707+341560158
2440+341632634+341660005+341901253+342235002+342391881+342278091+342157673
2426+342310315+342640202+343004773+343346996+343498100+343405360+343407034
2413+343784453+344271664+344550671+344631861+344652535+344763966+345008665
2399+345421656+345975364+346416068+346644023+346707069+346613201+346519914
2386+346363308+345656651+343978203+341256548+337754904+333956485+330475618
2372+327325867+323685763+319629181+316213683+313760988+312104444+311720874
2359+313100633+315825500+319713789+325260604+331246995+334431497+333146256
2345+329266407+326577317+326172356+326954462+328381684+330269874+332150682
2332+333679153+335225359+337005465+338764454+340588026+342954780+345936648
2318+349028615+351709163+353828964+355657764+357429464+359230722+361234956
2305+363320005+365058252+366270436+367208363+368353537+369850673+371343947
2291+372594676+373769100+375043134+376232047+377073987+377707313+378496972
2278+379550670+380614688+381466607+382169266+382852174+383636605+384646051
2264+385689738+386412660+386962746+387644321+388362016+389080735+389879415
2251+390637500+391163324+391469906+391890894+392588906+393339507+393980145
2237+394575610+395206339+395758885+396161112+396557189+397013236+397467676
2224+397905373+398401332+399000829+399539740+399840616+400036519+400354105
2210+400865132+401542334+402216119+402652312+402833248+403103404+403764272
2197+404632661+405376428+405873685+406246218+406796132+407616340+408552626
2183+409572393+410561610+411312246+411952680+412634973+413268641+413805194
2170+414442724+415471101+416727024+417873804+418957744+420018139+420961602
2156+421823772+422751310+423846458+424992794+426008768+426931249+427977806
2143+429305898+430841715+432389322+433780733+435075200+436538917+438049003
2129+439429685+440926650+442367096+443549004+444985008+446762722+448355879
2116+449803535+451511267+453509692+455646852+457636939+459328611+461218441
2102+463639835+466153013+468345017+470479785+472981447+475591602+477972094
2089+480446727+483254732+486330434+489704483+493171989+496393054+499573798
2075+503214039+507289312+511371419+515419013+519831691+524739849+529659933
2062+534316728+539219214+544568623+550025568+555614344+561293538+566807241
2048+572411668+578452425+584649959+590662491+596653085+602834012+609187912
2035+615528555+621755612+627939751+634016867+640016687+646200279+652697766
2021+658913753+664226803+669366743+675015080+680787321+686223183+690925187
2008+695195884+699869526+704874217+709350214+712783994+716011312+719819470
1994+723151625+725449628+727883426+730978161+734170557+736956044+739549763
1981+742335386+744858234+746454774+746997615+747091175+747752112+749225362
1967+750859763+752066958+752681080+752970235+753630283+755064442+756975218
1954+758500067+758889685+758685411+758772342+758896588+758531983+758385799
1940+759501552+761121943+762271730+763274719+764259596+765212148+766771100
1927+769031856+771334233+773583849+775972679+778462313+781542354+785380035
1913+789283394+792814424+796310601+800609523+805734770+811171929+816380485
1900+820491467+823725209+827407276+832144818+837142607+841790484+846843561
1886+852381047+857465903+862014821+866587659+870978569+874597966+877738422
1873+880168188+881138031+882066458+884779912+887579751+888835674+889566456
1859+890404671+890846776+891035469+891010046+890422235+889132483+886785274
1846+882890459+878972817+877743958+877999079+877999079+877528270+875462289
1832+870747847+864755817+860876789+859508785+858479690+856937414+855002308
1819+853028247+850664499+847505044+844339575+841912269+840558344+840229414
1805+839506901+836466703+831873158+829110771+828871164+828275221+825658812
1792+823494486+824449567+825995602+826305191+826255302+825705148+824909509
1778+825214247+825098954+822375590+818837588+818907981+821990960+825146451
1765+826711622+826122581+825616577+826649431+828134367+829547135+829349627
1751+827018751+825744855+827509242+830382344+832761469+834329031+835880738
1738+837346198+836230445+833889591+836297283+841309697+845050333+846852035
1724+848201177+850290257+850805283+848232546+847800213+853850470+861486878
1711+866236654+867065028+866031217+866774916+868496180+868174630+869121715
1697+873779023+879911154+886362579+890650498+893020670+894859004+894218433
1684+894212009+901719729+909707553+913259223+915253445+918622095+920858043
1670+922407426+927899670+934558444+938311792+941645587+946833299+951153065
1657+951812703+947524305+943872993+949102734+953854901+956280772+961895553
1643+969264197+975148656+978002895+975757174+972295989+975468770+980926023
1630+984133112+986326756+987375876+985970626+986867957+991142345+993311454
1616+994288473+997893996+1001223213+1002821256+1004298470+1006377915+1007963451
1603+1008778021+1010141719+1012048668+1012807334+1012442113+1013439293
1591+1017000804+1021190379+1023395847+1022731083+1021395610+1022730468
1580+1024807179+1022421630+1018956345+1021569746+1024735283+1024751139
1568+1025092166+1026680572+1028024383+1027501361+1022117850+1018270463
1557+1024741571+1031828577+1036940770+1041486749+1046125400+1049103202
1545+1047716199+1041768250+1034402477+1036376060+1047570220+1055925246
1533+1058994147+1061533124+1064287378+1064095884+1061439085+1056895293
1522+1051440843+1050352837+1053498076+1058482675+1062733006+1062772849
1510+1059844733+1056876704+1057024323+1062427722+1067382523+1067564313
1499+1064525004+1064289975+1066729105+1066075754+1061264061+1059093380
1487+1063974918+1068466019+1068436837+1067351906+1066786307+1062200143
1476+1052155564+1043862662+1045111067+1051177111+1052191512+1046710477
1464+1041146337+1039061699+1034546473+1023195741+1015884915+1019184197
1452+1022326840+1020419549+1013230644+1005239746+999489921+992360748+982911565
1439+973227355+963942057+958209318+955876392+951998047+946314445+943100522
1425+942300099+940826439+939361253+941606154+948936048+957296062+963760677
1412+969331582+975510254+978851499+976996079+977129278+983969501+992267802
1398+996313586+996873376+1000004127+1006650600+1010611639+1009911064+1008427289
1385+1008041156+1008131710+1009912636+1012845127+1014971796+1017199065
1373+1020984533+1024749157+1026295328+1027086183+1028214169+1028056914
1362+1028406825+1029309488+1027628682+1026251316+1027566423+1028062928
1350+1025699932+1022040760+1018756171+1016339048+1013686418+1009161557
1339+1003564955+999643691+997810141+996592011+996018963+996789452+998179598
1325+1000025518+1002293040+1003784401+1005764271+1009178164+1011512729
1314+1013691749+1017026842+1019381501+1022774549+1028438468+1031699205
1302+1031049682+1029260896+1027682536+1025627831+1023902193+1026280635
1290+1033357663+1040732048+1046035599+1050840526+1056626845+1062604865
1279+1066480271+1067066783+1065954379+1066270666+1068603933+1070261844
1267+1069501265+1066177379+1060980920+1055802777+1052294162+1051674094
1256+1052949768+1051949718+1047427044+1042820924+1039574401+1037127071
1244+1037248173+1039928071+1040871260+1038271937+1034265177+1030650701
1233+1028413865+1027171815+1025789733+1024948784+1025253248+1024722845
1221+1022649551+1022266835+1024993890+1027217400+1026193362+1024059107
1209+1024494787+1027666202+1028927455+1025831080+1022634242+1022247426
1198+1022916769+1023403774+1023430564+1023117763+1022999941+1021554027
1186+1017703429+1013831440+1012347870+1012946956+1012631148+1009432533
1175+1006253669+1005760307+1006483435+1006662491+1005899110+1003877141
1163+1001364681+1000658229+1001420311+999729118+995868815+994680551+995688734
1150+993729025+988468529+984218471+983457550+984779081+985073841+983176118
1136+980200571+976368836+970843173+965609057+963600073+963520796+962599750
1123+960773581+959456219+958679374+956782608+953781024+951441332+949414511
1109+946691830+944740117+943666121+940402171+934931456+931554605+931473551
1096+931758606+931454620+930914034+929797666+929163725+929878310+931009713
1082+931519477+931274744+930860659+931515513+932810390+933168025+933806476
1069+935250750+935784843+935860908+937500366+940295148+941182843+940841816
1055+942822028+945084219+943206452+938523379+936345932+938731002+941528039
1042+941138147+940297130+941652832+942669010+941328822+941992697+947309848
1028+950179942+947229888+944475838+942721565+939732419+937431067+937472346
1015+939975512+942255677+940828079+938695533+938542925+936685797+932418312
1001+929691394+930441585+934238193+939844568+945221587+947734799+946279659
988+944190442+946174549+952113408+957834803+959930855+958701381+957286699
974+956779054+956189125+955867781+955865116+955517801+955774631+957223346
961+958756464+959277983+957934582+955941454+954854268+953462139+952437760
947+953360925+954277256+954327282+954362273+953522144+952474528+951887811
934+949168958+945635057+945762788+947447557+945996245+942831869+941141359
920+940050620+938584203+937693023+936440380+934618449+933686673+932266661
907+929301571+926665617+926171230+927175790+926612857+924318203+923161581
893+924124521+926099197+926358692+924548925+923834819+924158966+924330914
880+926263628+929174728+930413155+931877316+935274738+938903771+942692793
866+946762906+949589740+952573351+956953805+960868303+964714186+969565859
853+975411978+984248678+996159748+1006655247+1012210639+1015661914+1021100373
839+1026711121+1030148250+1032299522+1033832025+1036052391+1039353998
827+1042490626+1044630485+1044022651+1045101704+1054660302+1064375608
816+1063122761+1055994681+1049252734+1042458984+1039329395+1043971804
804+1049403223+1048790400+1046803695+1046470118+1044980534+1040064004
793+1031791467+1024089519+1020454198+1020288195+1021996474+1022507878
781+1019294296+1012593218+1003056079+993739686+987199963+983292163+981578826
768+979536628+974997278+970437426+969896225+972321002+970528731+960922635
754+951359048+951377091+960470211+970198228+972483383+968283556+964306047
741+962492590+961110644+958599072+957638729+960410001+960842470+955172195
727+948328418+944797866+941951418+935608384+930084703+931662722+937167404
714+938680224+936627091+936819064+940101603+944009745+947215809+951814890
700+958247657+962503251+962544735+960243520+958827062+959472826+962175619
687+966142604+967704836+966468186+966729526+968544008+968302624+966045763
673+962365883+956422787+951080418+953895497+962107687+965242744+963267726
660+962718939+964813009+966609722+970750638+978661303+985976776+987778752
646+981361499+979431723+996927503+1012153778+995896494+966950817+951367728
633+959130296+990225672+1021187099+1013746764+982945668+970858413+979172365
619+989411103+995788855+1004100483+1014466543+1019188229+1012222052+994670505
606+984321053+1005372261+1053007790+1073741823
##END=
