##TITLE=Sample description
##JCAMP-DX=4.24
##DATA TYPE=INFRARED SPECTRUM
##DATE=13/9/2023
##SAMPLING PROCEDURE=Instrument type and / or accessory
##ORIGIN=Default
##XUNITS=1/CM
##YUNITS=ABSORBANCE
##RESOLUTION=4
##FIRSTX=4397.6552
##LASTX=599.8556
##DELTAX=-1.9287962
##MAXY=1.8300627
##MINY=0.45614177
##XFACTOR=1
##YFACTOR=1.7043788e-009
##NPOINTS=1970
##FIRSTY=0.4720144
##XYDATA=(X++(Y..Y))
4398+276942198+276751971+275750108+274782727+273964114+273138717+272946357
4384+273440172+273839074+274357946+275517303+275879310+274314616+272659766
4371+272611785+273761804+275426009+276989497+277882284+277716397+276230773
4357+274489753+274108494+274966974+275626991+275217807+274173821+273402455
4344+273035254+273111650+273596267+273270770+272491885+273226671+274737001
4330+275424576+275429279+274902032+274039688+273305794+272999688+273013922
4317+272653558+271990289+271483675+271073424+271299375+272058693+271590040
4303+269778605+268857859+269472378+270369956+271279214+272486884+273437234
4290+273547849+272950973+272153448+271986302+272785750+273357237+272999426
4276+272392269+271477625+270223040+269735188+270184414+270618830+270790645
4263+270776901+270713288+271401894+272838854+273422039+272069744+269880512
4249+268901888+269633491+270564712+270549272+270310731+270725336+271368059
4236+271622879+271402121+270604946+269700182+269718664+270628237+271523927
4222+271897195+271779394+271374371+270710595+269964619+269426093+269117032
4209+269453493+270662142+271635206+271379337+270348798+269787628+269984797
4195+269874462+269635117+270220190+270753890+270199102+269303221+269075102
4182+269216142+269497662+269862607+269110370+267629346+267778639+269491332
4168+270616417+270671375+270411309+270106253+269817476+269885128+270739167
4155+271614625+271576891+271133645+270581515+269846922+269237859+268943731
4141+269236547+270087683+270820511+271007958+270504141+269319028+268168693
4128+267726829+268059600+268759292+269145342+269129325+269088810+269210057
4114+269290229+269171483+269070048+269031003+269416913+270772949+272014175
4101+271298658+269450818+268905263+269662115+270274536+270605314+270783213
4087+270235892+269589165+269893784+270488351+270943086+271421128+271871019
4074+272464030+272494613+271857800+271778065+272090535+272242014+272742053
4060+273248405+272956796+272260199+271794816+271968117+272854382+273420623
4047+273059192+272598006+272545671+272959139+273894958+274632437+274604442
4033+274253433+274297987+275103398+275650876+274582375+273067900+273114692
4020+274032588+273876878+273015740+273320971+274856149+276356198+277379411
4006+277874625+277608055+276477567+274935220+274181829+275031251+276774335
3993+277909264+278245567+278918244+279932976+280273948+280101311+280312906
3979+280752480+280750242+280619222+280816513+281118579+281485290+281995122
3966+282299636+282004337+282059067+283378699+284434925+284301771+283810876
3952+283242992+282924576+283027183+282733790+282099914+282716374+284447322
3939+285019858+283967758+282609204+282169700+283342188+284723911+284145431
3925+282967539+283638065+284368391+283992098+285030699+287901805+290005094
3912+290636067+290199588+287306887+281740390+277524998+277771616+281444251
3898+286618246+289643087+288139278+285830584+287401940+288835596+287616577
3885+287085535+286504362+286017157+288597143+290033736+287999602+285454588
3871+283711977+284264701+285822173+285920950+287206327+290301478+291708642
3858+289252770+281721190+275530207+282088933+291715899+296333131+295551553
3844+291634660+287079853+283507743+283341244+287146770+291586522+295272831
3831+297882297+298309684+297406965+295218380+290177364+288144332+291946466
3817+294962144+298400610+302746830+303740999+300193912+296242310+295985025
3804+295224990+294145070+297171117+300964229+304576923+308260014+310106892
3790+310513821+310526795+310752606+312049873+312882963+312462676+314152918
3777+318145506+320300204+318851336+316442675+316778436+319215354+322584296
3763+325078287+324284015+323976231+327642501+330410843+328479578+328285312
3750+338970742+351333195+363248327+386082290+413390923+434273966+446575918
3736+451263670+455580339+462332108+467251651+467799234+467486344+470714317
3723+476350705+483074741+492196771+503075489+512274736+518845073+527670965
3709+542245084+558773653+574028912+590724296+611907569+632314546+646195705
3696+652729216+651170678+642891320+635473450+636663459+642578465+643977604
3682+637311830+626656091+615925023+605521987+601988679+603509868+600561493
3669+596546697+595389910+592777051+588339590+582285713+572198889+560624834
3655+554015819+546582491+530453855+515225070+513797429+517871607+518533337
3642+514832235+508934715+502495767+496095042+489794231+482222766+472406866
3628+467763283+468697441+466096018+458828595+450875416+447330603+447138154
3615+445357756+442072256+438247635+434328836+433048216+432811774+429393696
3601+424291043+420899684+418208104+415555202+414317212+412616444+407802830
3588+403696969+404649137+406350045+405584904+403707040+401738950+399382432
3574+397243647+394896501+390039697+383697479+381756667+384556799+386468550
3561+386170348+385546492+384607193+382470645+379934513+377992792+375986338
3547+374104768+373716655+374271127+374376601+373815939+372877374+371534749
3534+369827721+367668267+364961300+362922358+362147635+361734971+361528500
3520+361299926+360445573+359038496+357043023+354828384+353819037+354227714
3507+354047541+352287147+350712486+350447367+350096323+349008536+348271092
3493+348180656+347663812+346122899+344246225+342767875+341692502+341204370
3480+341384578+341320860+340409469+339350357+338848062+338507370+337517048
3466+335717590+333830005+332799885+332619292+332404987+331904755+331372244
3453+330798922+330052910+328834924+327433931+326491415+325964954+326086865
3439+326821301+327085825+326259834+324794808+323684464+323318278+322930374
3426+322039056+320952317+320056593+319867152+320433271+321022225+321239398
3412+320911331+319700059+318316972+318064198+318690817+319014513+318777126
3399+318332289+318098959+318252589+318507671+318453570+317814851+317011556
3385+316416726+315567164+314860356+315392831+316487159+316530419+315645640
3372+314860216+314284271+313830900+313768931+313968443+314055837+314163689
3358+314057166+312967315+311687324+311447174+311500366+311133900+310852799
3345+310534838+309566933+308406090+307981955+308096417+307784367+306659789
3331+305246626+304144081+303317250+302491084+301551505+300527645+299481228
3318+298507238+297481279+296185726+294890557+293729574+292940513+292866198
3304+292447782+290774257+289155130+288912655+289220404+289253872+289579824
3291+290068865+290002751+289857515+290380286+291127032+291191379+290692249
3277+290725891+291552442+292368502+292973264+293353893+293498762+293861662
3264+294267610+294455197+294575324+294423373+294214209+294279011+294287299
3250+294270093+294183539+293833300+293755593+293909677+293980320+294272506
3237+294639357+295068877+295937813+296739779+296815492+296619862+296809862
3223+297386787+297983085+298306606+298545427+298794773+298761550+298378438
3210+298342732+299554214+301271838+302153189+302412957+302590053+302789530
3196+303134349+303477139+303987198+305232043+306869093+307814232+307927085
3183+307777547+307453432+307291409+307623288+308097221+308733423+309634638
3169+310650769+311592516+311855711+311568420+311870819+312869989+313582148
3156+314138614+315035143+315455325+315227276+315253890+315537648+315432944
3142+315040564+315078473+315384683+315484981+315847985+316563886+317146581
3129+317372986+317059467+316692057+316937487+317243837+316880133+316058199
3115+315329953+315026400+314871092+314197821+313108180+312175525+311389367
3102+310752536+310437897+310271258+310140955+310074299+309999075+309890174
3088+310035271+310682173+311378945+311724009+311994198+312300478+312386263
3075+312352411+312811132+313927247+314892005+315086621+314843220+314599958
3061+314323089+314032965+314040624+314465038+314985868+315169189+315098407
3047+314957786+314581913+314344037+314458918+314222826+313539133+312851349
3034+312036269+311279101+311175516+311331524+310940263+310247793+309979421
3020+310155223+310317526+310378936+310443563+310361345+309978023+309463103
3007+309385256+309932245+310385091+310357078+310466539+311326138+313343818
2993+316637152+320275479+323476069+326568387+329544040+331835092+333446403
2980+334727513+335630476+336017226+335971203+335545705+334965983+334628439
2966+334376294+333746073+333024472+332620341+332243384+331863244+331736997
2953+331705557+331739620+332168020+333010903+333671234+333437275+332345605
2939+331141782+330168456+329160963+328069083+327098380+326222764+325368760
2926+324927770+325081295+325018031+324198195+323263687+322806225+322626752
2912+322402375+322147503+321879551+321475875+321243700+321522457+321720396
2899+321446185+321271817+321417788+321648739+321818736+321903402+322129038
2885+322477563+322792167+323002415+322764504+322303056+322338482+322719076
2872+322924079+322995281+322986608+322634375+321862275+320979945+320364552
2858+319988888+319458371+318645913+317770193+317026979+316546261+316382699
2845+316350071+316202561+316052743+316192909+316687476+317179804+317265554
2831+317198794+317258630+317278598+317399984+317715672+317964459+318119523
2818+318270180+318479099+318689698+318700119+318628567+318862352+319536077
2804+320334476+321010755+321744806+322511171+322915231+322914462+323033645
2791+323579655+324112690+324164133+323876143+323658375+323687297+323817670
2777+323812949+323602946+323284635+322965660+322732995+322629270+322622905
2764+322576183+322411013+322371880+322519494+322558872+322606153+322878826
2750+323096314+323128033+323118521+322953420+322651162+322531210+322528027
2737+322458049+322560691+322868719+323098307+323148631+322988567+322822347
2723+322930304+323091173+323082080+323009305+323023993+323242914+323477188
2710+323565071+323854286+324496502+325010583+325034538+324836564+324702204
2696+324515281+324371549+324514897+324605368+324334969+324098456+324187249
2683+324384593+324388964+324081111+323623649+323255084+323065049+322892080
2669+322498896+322002091+321724837+321637723+321373409+320885802+320444636
2656+320261666+320447994+320611555+320336260+319914399+319712893+319762693
2642+319896284+319974340+320021866+320019978+319959897+319875021+319749543
2629+319622492+319633018+319914014+320245124+320325733+320431382+320736298
2615+320890138+320902308+321130392+321612963+322171773+322696485+322996925
2602+322990245+323060223+323467396+324070829+324821107+325584395+326025000
2588+326208531+326506348+326853894+326997242+326992101+326940449+326939574
2575+327079215+327228334+327279462+327345698+327481178+327530382+327377977
2561+327192208+327185249+327290653+327290653+327157482+327185808+327489641
2548+327821100+327993859+327895205+327695798+327700274+327859184+328130598
2534+328522663+328894480+329081298+329063777+329118262+329412932+329731697
2521+329798912+329693963+329790589+330111557+330325233+330480367+330979724
2507+331717553+332207853+332473461+332816986+333204050+333400485+333461720
2494+333633920+333852736+334048611+334406475+334953079+335541614+336073180
2480+336455628+336577259+336428490+336226285+336208345+336324240+336370927
2467+336252234+336077657+336014009+336096961+336255696+336245450+336059821
2453+336062304+336265383+336441815+336497804+336524942+336769707+337140580
2440+337468612+337929012+338322266+338255296+338067009+338066869+338051167
2426+338103345+338370841+338794311+339330599+339751865+339948475+340144630
2413+340391074+340558412+340728444+340997934+341177337+341168909+341339570
2399+341921880+342500588+342745633+342805924+342814038+342816101+342831873
2386+342641313+341720130+339649538+336502770+332593064+328365956+324242819
2372+320194520+316105795+311827524+307317323+303447763+301052322+300432033
2359+301999804+305761197+311112183+317633979+324071319+327383118+325866090
2345+321474372+318268641+317725709+318881936+320675553+322261335+323331357
2332+324498950+326741601+329666231+332178442+334224728+336467484+339414635
2318+342788404+345722161+347938268+350023373+352334953+354656709+356985320
2305+359343027+361333569+362825067+364149437+365487166+366818775+368188048
2291+369654333+371204723+372662544+373822618+374720721+375565841+376553051
2278+377587473+378425179+379175038+380016207+380798554+381446295+382163211
2264+382949894+383678175+384437441+385208317+385933206+386708804+387479260
2251+388243317+389049829+389619620+389945169+390390531+390966966+391578722
2237+392215203+392752225+393189053+393713066+394336503+394785397+395034324
2224+395320915+395661537+395959844+396271649+396760970+397291418+397640608
2210+398020713+398534829+398981904+399330080+399747465+400397794+401160592
2197+401845509+402530425+403247305+404004333+404890825+405728007+406277514
2183+406627299+407073080+407875116+408986370+409997920+410652936+411292949
2170+412300652+413438938+414339174+415126102+415979162+416795256+417759280
2156+419154502+420648449+421834576+422887567+424074359+425282309+426433151
2143+427694152+429091718+430507468+431827816+433029261+434291032+435824357
2129+437597446+439233901+440468079+441677113+443363298+445260781+446783719
2116+448064794+449645120+451637585+453660930+455512215+457509576+459760620
2102+462032122+464265576+466505884+468901955+471549995+474239791+476818308
2089+479386859+482177163+485325855+488634751+492033524+495746936+499558547
2075+503148404+506963443+511346488+515710894+519746568+524048339+528982220
2062+534312223+539639009+544676126+549847848+555734527+561996800+568191298
2048+574312251+580210855+585849726+591700629+598098032+604625039+610974670
2035+617331715+623824660+630555481+637078501+642838373+648447449+654604947
2021+660965629+666890637+672173428+677465802+683405778+689245035+694330098
2008+699027957+703584391+708111658+712458054+716426057+720155975+723572479
1994+726603387+729630658+733011211+736106117+738349607+740510845+743282125
1981+746204621+748414049+749783462+751095942+752881586+753953741+753391819
1967+753251864+754975538+757069700+758241454+758388684+758486604+759631501
1954+760950485+761079530+760614619+760614759+760639868+759984713+759799923
1940+761398330+763801710+765899019+767615699+768955946+769866603+770674165
1927+771832000+773310874+775735936+778942122+781177778+783738740+788640412
1913+793620910+796719593+799691609+804636296+810512764+815523897+820327719
1900+825689196+830522185+835133314+840706718+845611678+849071406+853376186
1886+858824392+863747537+867730439+871568629+875975385+879908557+882790626
1873+885324310+885789990+884319230+886227413+891568467+895304261+895988862
1859+895823097+896118397+896322001+896222891+895659221+894368564+892080380
1846+887709854+883723036+884034212+884825966+883121946+881050306+878582228
1832+873487793+867452555+864241474+862282022+860284032+859996356+859440660
1819+857034972+854154371+850925664+846951366+843497442+842004650+841620243
1805+840482481+837421148+833136652+830856232+831543632+831573217+828415153
1792+826030448+828440962+830979052+830314664+828387106+827220807+827514498
1778+828585464+827468265+822563026+817758854+819291794+824933742+829422751
1765+830538551+828904474+828346959+829812613+831136144+832816174+833646047
1751+831072985+827829031+828594627+831664353+833326268+833506930+834698409
1738+835916885+833814260+832036729+837073951+843983966+848922218+851669088
1724+853060883+854103732+852178762+846158212+844278635+851461078+860625983
1711+866841394+868652427+867527744+867219575+866802645+862777498+860855536
1697+866294510+876502195+887254875+893224297+895479048+895195709+890238292
1684+888962603+900499134+912770835+918297098+918415862+918768444+920931080
1670+923613602+930580900+939587245+943877056+945180443+949543345+954684502
1657+954042216+945336066+940347805+948633107+952351205+952627829+962002074
1643+973995543+979378283+978367467+972537931+969672858+978314940+988032255
1630+991386090+991693559+992272896+992249325+993862420+995992323+993611954
1616+992387183+1000078041+1007985721+1010761967+1011438176+1011438945
1605+1011503153+1013173670+1015833881+1018967395+1021757909+1023073326
1593+1023607831+1024455539+1025675624+1026804434+1028218750+1030621081
1582+1033232261+1033115387+1028915312+1027456232+1031519498+1030792931
1570+1025073695+1024542268+1028555595+1031061721+1029871502+1021222076
1558+1014222255+1024773710+1037744351+1045625524+1050798785+1055106991
1547+1055734309+1051066736+1042342122+1032904578+1037814084+1052699554
1535+1059607890+1060807202+1063275279+1063265627+1059174663+1055203512
1524+1051951235+1049640949+1050540275+1052753131+1056613492+1060821400
1512+1060076228+1052169037+1040277755+1041589186+1058057185+1065326916
1501+1063336969+1062017705+1066540636+1073017214+1072923071+1064555585
1489+1057172546+1059202081+1065781755+1069479709+1068467495+1065880654
1477+1062629006+1056267484+1047931403+1046535901+1051647822+1052071956
1466+1046722999+1041706340+1036504542+1026815345+1014086426+1010444356
1454+1017316042+1021596481+1019036219+1012023249+1004316374+997368870+991655090
1441+986805595+979384368+968452493+961806723+959485527+953743280+946415776
1427+941608526+937108816+934819164+935656730+937205687+944981386+958086807
1414+967507984+971555303+973276669+973402566+971960203+973174902+978332635
1400+984017459+990532506+997500853+1003595122+1009571888+1012464938+1010722449
1387+1008391880+1007993975+1008415311+1010168221+1013858342+1018427995
1375+1023080111+1027119946+1029850239+1031667288+1033046353+1032252500
1364+1028438301+1025580012+1026511442+1030460981+1034355125+1032572699
1352+1026094652+1022937987+1025112024+1025303458+1019886585+1012716873
1341+1006328423+1003494474+1004041848+1002772733+999989773+999210119+999426242
1327+998806268+998553914+999596204+1000968065+1002099672+1004077799+1007761834
1314+1012222796+1016246125+1018994813+1020660714+1022097762+1023219437
1302+1025791240+1030924144+1034359882+1034106548+1034172644+1036550915
1290+1039714505+1043193467+1047163989+1051136959+1056374707+1062870589
1279+1067595656+1070572428+1072953846+1073741823+1073192001+1071773838
1267+1069634773+1067452203+1064589507+1061230637+1060597863+1061733177
1256+1059298463+1054736783+1052593451+1052462378+1051909269+1049110362
1244+1044418098+1039839493+1037409325+1037760088+1037777434+1035048540
1233+1031965594+1031048013+1031767096+1032566124+1032535909+1030998073
1221+1028065715+1024994310+1023085427+1023116971+1024222279+1024810360
1209+1025231067+1026604956+1028639877+1029595577+1029057016+1029020646
1198+1029645796+1029903116+1029636704+1027520090+1023951111+1020982312
1186+1018710285+1017742904+1018490104+1018617750+1017422215+1016688374
1175+1015907950+1013494569+1010038687+1007515845+1007037924+1007116330
1163+1006183711+1004920331+1003662617+1002099112+1000235342+997270041+993648814
1150+992262685+993220693+992320527+987592104+982648256+981554698+982427236
1136+980521500+976258967+972368390+969184027+966087792+963291403+963021423
1123+965413472+966060304+962581132+957492712+953277599+950471488+948783765
1109+945827346+940077895+934768105+933031911+934839937+937920924+939251029
1096+938624830+937275071+934102458+929290313+926443425+926284654+926021808
1082+925038620+924714505+924540626+923116798+922644962+924945176+927096762
1069+926895116+925697972+925686642+927256581+929287655+931402590+933436181
1055+935558041+938976643+943355142+946282674+947037149+946123624+943966234
1042+941646435+939759025+938620703+936995718+934809791+936209560+941097103
1028+943692267+942374542+940005574+937611636+935800813+936211308+937293116
1015+936759521+935950980+935151113+933150464+932653730+935800673+938880122
1001+939368044+939357342+939951508+939853937+937755229+935610079+937321303
988+942516526+947221659+949271896+949534043+950656557+953697747+956512531
974+957728350+958223756+959425935+961136320+960018632+955322522+951144549
961+949830601+951260864+954119573+955433871+954275616+952299867+950791477
947+951291989+954226166+956280810+955217467+953000066+950857363+949200275
934+948971421+949034790+947588719+944875142+942013986+939445051+937644090
920+936978862+937015512+937015023+935565805+933051215+932156995+932374168
907+931296417+929630445+928683418+928865549+930452275+930653571+927069764
893+923783634+924122298+925854575+927817594+930889558+934875118+939142338
880+941920192+941498926+939781896+939514224+940432016+942151564+943661212
866+942690124+942661308+947250615+953052383+957476835+961998437+968851938
853+977433519+983714047+987905378+993717078+1001332817+1008437273+1013606967
839+1017857540+1022714449+1027392794+1030031042+1030505395+1031427173
827+1034594750+1037217121+1036575185+1032946055+1028470055+1025861533
816+1024602070+1025025434+1029101290+1033865735+1035853024+1035871489
804+1036789840+1040379942+1043768258+1042718135+1037438141+1030200304
793+1023019680+1018801281+1017577908+1016200592+1013589411+1010160807
781+1005237313+998664284+992686539+988375885+984082436+981393059+982012824
768+982520470+981563371+979290364+973616382+967181490+961362795+950207104
754+937259403+936284329+948295493+958637888+958561790+954375844+952505289
741+952052059+951851742+952764358+951948194+948337249+947287265+948758235
727+945961077+937928967+928840579+921567841+918521895+919460040+920263335
714+919311411+920389162+926350820+934463853+939734475+941504521+944198864
700+948185612+949989091+951816771+955606210+956867212+954551051+952880254
687+952614610+952014220+950584866+948602193+946852290+946409551+948643319
673+950700132+946231056+936601030+934430491+941997549+949766883+956479868
660+959634295+957352266+953753072+952048702+951802712+950883102+947308598
646+942553596+944768130+949800665+941097383+928523598+924984484+924476699
633+925513043+934760621+958576128+980813162+979072352+965632044+947149477
619+929394388+925055546+921403475+915241011+923261230+932038092+930627552
606+937562186+940815303+924034449+915427759
##END=
