##TITLE=Sample description
##JCAMP-DX=4.24
##DATA TYPE=INFRARED SPECTRUM
##DATE=13/9/2023
##SAMPLING PROCEDURE=Instrument type and / or accessory
##ORIGIN=Default
##XUNITS=1/CM
##YUNITS=ABSORBANCE
##RESOLUTION=4
##FIRSTX=4397.6552
##LASTX=599.8556
##DELTAX=-1.9287962
##MAXY=1.660031
##MINY=0.28127548
##XFACTOR=1
##YFACTOR=1.5460243e-009
##NPOINTS=1970
##FIRSTY=0.30939189
##XYDATA=(X++(Y..Y))
4398+200120971+198826402+197429667+195317803+193928161+194698672+196468355
4384+197109345+196700061+196141402+195093094+193967331+194434696+196418524
4371+197432462+196629528+195692292+195327248+195596313+196452586+197064006
4357+196913127+195596197+193860230+193188454+193370157+193810804+194044014
4344+193803113+193574259+193447457+193174498+192506906+191618383+190909133
4330+190127692+189275564+188887272+189349451+190562788+191694796+191387389
4317+189236297+187248401+186969640+187245529+187578882+188467849+188877807
4303+188354386+187844824+187439260+187125743+187585918+188530286+188681820
4290+187550545+186108027+186108317+187998633+189525429+188638139+186449399
4276+185299059+185821671+186862153+187394076+187196971+186089001+184573560
4263+183721971+183551873+183511160+183605192+184021609+184438488+184398392
4249+184521898+185416301+186110630+185994410+185732883+185624046+185212738
4236+183921832+182495006+182380328+183326046+184452463+185287011+185236603
4222+184404136+183631332+183413524+183608026+183947297+184008924+183815290
4209+183935557+183848619+182877842+181934708+182456664+184344456+185796284
4195+185435385+183651360+182155677+181987006+182515439+183021319+183660729
4182+184612229+184943326+184002794+182926034+182659128+182949050+183518755
4168+183963046+183939258+183788225+183569222+183373119+183645770+184175398
4155+184489822+184121057+183242577+182951171+183336783+183433648+183339038
4141+183905466+184509137+184084682+183457494+183722202+184144016+183803974
4128+183385726+183402092+183484192+183883973+184425148+184082388+183161499
4114+183091448+184248110+185331695+185171852+184411982+183980453+183920059
4101+184033155+184100181+184521667+185534197+186273287+186332023+186446739
4087+187128808+187762262+187791601+187684885+188042603+188529688+188536532
4074+188578478+188962259+189436679+190190053+190679894+190536070+190463262
4060+190577149+190159441+189314830+189337943+190177465+190525044+190324855
4047+190160096+190368844+190960409+191465691+191586981+191434984+191356585
4033+191530191+191567415+191170911+190769261+191074238+192341627+193541180
4020+193266467+192245455+192171972+192751759+192804172+192595637+193149323
4006+194316164+195084342+195339566+195627657+195576651+194696031+193994878
3993+194452026+195482118+196390477+197097798+197408328+197127774+196463169
3979+195901676+195417926+194778131+194861965+196231424+197718780+198629934
3966+199278943+199497754+199514389+199630821+199471749+199257353+199086022
3952+198422381+197778827+198549126+199557126+199045521+199597434+202408254
3939+204052695+202827870+199737730+197400964+198585867+201289103+201337565
3925+200069675+200898075+201267128+199494168+200067979+204544252+208368220
3912+209368914+208335391+204024397+196235646+190117765+189683614+194440672
3898+202462498+207776751+206276442+202876968+204385971+205846589+203704249
3885+202977265+202844563+203459781+207897462+208728560+204019019+199590147
3871+197380183+199839357+203299765+203224238+205437652+210893474+212350487
3858+206235324+192466733+183985927+196876945+212682028+219275794+217300410
3844+211344511+204983878+199239503+197912723+202692258+208050423+212083716
3831+215742096+217735582+217750020+214481590+206293097+202929420+208162267
3817+212240995+218113406+225862872+227655224+222142208+216410865+215531575
3804+213267964+212088420+217580867+222468679+226789466+232617483+236294947
3790+237189908+236567906+235592271+236105456+236269000+235294214+238205658
3777+244146251+246994834+245133606+242088863+242810719+246495701+250940071
3763+253690786+252352267+252400632+257292936+259586233+255122470+253172357
3750+266010055+282636540+300369087+330505874+358597263+371357469+372102168
3736+368841506+373392515+388217453+404304632+414589665+420798050+428668438
3723+441015890+457320164+474678067+488830169+496944832+502471168+514446077
3709+534166384+555685674+575028156+591276798+607709378+624896605+639720810
3696+649676788+649420407+639108349+631126965+634976301+643636342+648548867
3682+647294105+641697795+634080125+627233139+627697131+628086135+624289426
3669+629425638+639908527+644538417+644083678+641198373+634665174+625004786
3655+618289576+611094375+596224137+584306056+588733655+597842304+601292187
3642+600074089+597265043+593349241+588309142+582550946+573842791+562032196
3628+560648319+569174463+572061966+565616901+555399298+551196697+552073712
3615+550252445+546766515+544676877+544293347+547517576+551603051+550351412
3601+545027559+541200392+538988385+537876926+539068384+538564798+532353097
3588+527243718+530899476+536348897+536838719+534471419+533218083+532973538
3574+531979475+528953835+522048480+513622150+513042768+519758479+523967017
3561+524070032+524101145+525002410+524188391+521737700+520075119+518017326
3547+515650835+516941722+520885706+522365621+520564093+517962349+516220887
3534+515234457+513623846+511088144+509391983+509646590+510782723+512043346
3520+513570334+514491184+513895880+511685646+508853506+507261825+507353043
3507+507618137+507210472+507118753+506994418+505678510+504328174+503852231
3493+503411063+502391208+501026298+499819844+499412179+499635751+499395254
3480+498605331+497312671+495468927+494278511+493961524+493183283+491686598
3466+490074483+488503043+487369878+486357926+484917490+484020543+483944400
3453+483608676+481606207+477943201+475420607+475434756+476249970+476298355
3439+475370218+474039698+472829118+472067455+471763808+471466059+470626056
3426+469083646+467171585+465268006+463983172+463525349+463034987+462262028
3412+462340678+463303551+462936792+460678983+458898660+458704504+458991612
3399+458489145+457257515+456452055+456025229+455329647+454591964+454211788
3385+454677090+455208743+454495966+453565554+453145784+452400198+451640733
3372+451271120+450927454+450638958+450069832+448776747+447442565+446871665
3358+447044269+447689346+448454132+448698175+448101290+446851154+445574610
3345+445234182+445339549+444475025+442505134+439740848+437164974+435842936
3331+434737414+432993678+431353381+429741035+427269293+424312780+421941084
3318+419875041+417432098+414576556+411191675+408222940+406748192+405742061
3304+404264845+402474652+400884744+400512626+401208247+401297267+399729219
3291+397885938+397581326+397635263+396426842+395098443+395072997+395443959
3277+394787316+393714102+393458454+393673428+393018867+391007994+388680326
3264+387070448+386043151+385087718+383757276+382232639+381324820+380254652
3250+378009412+375809241+374282831+372566198+370830327+369944868+369393939
3237+368219754+367272803+367125297+366576951+365634780+365378361+365127917
3223+364153902+363675568+363960170+363750285+363172368+362716820+361950993
3210+361024090+360447985+360409856+360638324+360262389+359176529+358283245
3196+358144722+358598690+358878472+358632077+358350174+358046372+357428552
3183+356574284+355720093+355244188+354850711+354042630+353288061+353131649
3169+353528905+353891269+353944743+354015527+353995441+353865824+353799974
3156+353586774+353128565+352568036+352017993+351190519+350239790+350126096
3142+350675946+350862198+350632727+350144949+349091628+347774333+346958155
3129+346733157+346710333+346636426+346437451+346147144+345654044+344783275
3115+343699074+342609398+341663102+341099874+340767273+340288824+339735658
3102+339466015+339377458+338926305+338269546+337960193+337967171+338343646
3088+338994969+339323984+339435442+339940300+341055923+342546555+343763612
3075+344437180+344951677+345235662+344873799+344234003+343766735+343207786
3061+342613214+342187622+341623315+341094785+340968329+340867936+340589888
3047+340612789+341227525+342018989+342539384+343174361+344546325+346388411
3034+347773176+348145757+347954956+347887063+347560515+346633419+346186006
3020+347001219+348390764+349561017+350659214+352264042+354294230+356193414
3007+358049110+360561101+364248281+369218790+375308045+382173228+389637532
2993+397905908+407513671+418717549+430309506+440545691+448959530+455640427
2980+460563053+464059161+466666766+468775372+470648841+472448826+474484991
2966+477418835+481615345+486849098+492349833+497266985+502069710+507651254
2953+513436399+518364539+522024114+524480781+526243331+527220740+526535297
2939+524165761+520242171+514753541+509077618+504064429+499072715+494289460
2926+490068777+486095184+482774224+479730580+475420916+469956536+464429313
2912+459370825+454921250+450626660+446420589+442976991+440686951+439288346
2899+438053902+436963763+437220105+439313714+442237149+445382960+449204113
2885+453923023+459168419+464568067+469690092+474164187+477810693+479870259
2872+480065108+479464638+478518535+476636777+473347740+468847930+463815619
2858+458048594+450670727+441950928+432579382+422258534+411020343+400096017
2845+390510268+382113933+374303341+367024942+360380247+354155939+348552072
2831+343933170+339959808+336165527+332551908+329321742+326543615+324176122
2818+322398401+321218857+320198847+319151291+318396008+318132379+318046521
2804+317984989+318103137+318234662+318209525+317969741+317214825+315828461
2791+314194024+312596020+310867339+308982054+307165085+305474109+304053953
2777+303038512+301946657+300260038+298207508+296250069+294597416+293391270
2764+292727841+292388474+291932097+291194453+290327847+289552305+289029809
2750+288647512+288069885+287245630+286556525+286178007+285812076+285322254
2737+284923669+284610229+284131992+283517873+282985045+282582565+282231786
2723+281803496+281231728+280646486+280199959+279871426+279619112+279483654
2710+279353479+279011432+278469023+277884089+277337246+276854017+276445176
2696+276073983+275616970+274942168+274068449+273147040+272287297+271494907
2683+270700840+269921520+269231393+268435186+267507936+266738003+265953651
2669+265014161+264269519+263716662+263041686+262260111+261554505+261019845
2656+260688709+260330682+259756466+259241661+258940674+258765814+258619234
2642+258262903+257751433+257384847+257205728+257132457+257063639+256939632
2629+256882707+257033027+257274623+257308685+257237766+257508315+258014118
2615+258341090+258633383+259147880+259721035+260206000+260632286+261047854
2602+261588605+262179399+262616056+263042207+263448021+263621011+263768593
2588+263961881+263850847+263500974+263287099+263206618+263114225+262990719
2575+262850133+262681153+262406826+262033609+261716102+261561463+261374710
2561+260951528+260462072+260023063+259706809+259770133+260077000+260112372
2548+259790644+259514639+259513367+259624169+259588874+259363567+259129586
2534+259090859+259341341+259742143+260099129+260328137+260388589+260449388
2521+260731098+261223754+261760881+262087468+262178975+262335965+262715890
2507+263141289+263353816+263424735+263673058+264120934+264550150+264823263
2494+264945285+265088839+265350058+265647980+265987135+266377509+266705445
2480+266862319+266777173+266508552+266213194+266014007+265969921+266024185
2467+266175353+266387070+266500552+266522335+266460514+266360853+266383523
2453+266426279+266417084+266505776+266652954+266727131+266740085+266772374
2440+266870511+266997333+267106729+267143220+267082440+266987116+266855148
2426+266771043+266918896+267227748+267515396+267699932+267727671+267644030
2413+267650275+267889442+268262485+268582036+268803160+269110315+269612475
2399+270145997+270624388+270952151+271011215+271021027+271092486+270936903
2386+270244559+268707296+265994827+262009070+257001626+251522268+246064981
2372+240553971+234788218+229181923+224365261+220822002+218736547+217962739
2359+218815408+222181899+228268340+236497661+244813265+249204798+247540250
2345+242360916+238795623+238160204+238943013+240531167+242359277+243853765
2332+245239513+247300023+250151941+253043955+255566587+258251973+261666464
2318+265403107+268670247+271405714+274042580+276692323+279170677+281460504
2305+283746553+286034973+288105547+289838391+291314856+292706213+294089936
2291+295424793+296695343+297897634+299043675+300107675+300902667+301371747
2278+301786988+302342968+302924894+303323904+303538531+303830844+304265862
2264+304644014+304984480+305416915+305884203+306277526+306529569+306656140
2251+306850681+307146098+307259888+307233171+307390045+307704333+307987181
2237+308231841+308427346+308534043+308727967+309031364+309167882+309174898
2224+309269856+309433727+309623391+309891608+310215823+310494874+310717212
2210+310962720+311346925+311894790+312422568+312808084+313215710+313747825
2197+314306619+314942675+315660194+316264096+316764077+317313908+317971573
2183+318746035+319573683+320338545+321001646+321607090+322200872+322784977
2170+323463615+324431616+325547856+326523722+327376641+328220076+329093505
2156+329979850+330900970+331951476+333115136+334273514+335389715+336549482
2143+337773478+339022881+340324409+341681453+343088618+344545593+345993662
2129+347363005+348650499+349882168+351119157+352524548+354153394+355881131
2116+357605012+359271101+360869259+362541132+364471930+366541211+368503584
2102+370477909+372711429+375088638+377431109+379912875+382664785+385662127
2089+388931078+392365694+395881695+399523652+403333200+407435253+411850593
2075+416366942+420944900+425826159+431010486+436217830+441587869+447564124
2062+454004139+460475421+466833587+473060362+479432137+486149274+493042717
2048+500220761+507612277+514583096+521175898+528223670+535819519+543241067
2035+550202171+556945178+563526954+569868388+576086913+582312300+588650842
2021+594868789+600398286+605566613+611078838+616526987+621400805+625938320
2008+630323665+634490296+638372671+641928846+645190510+648236661+650808333
1994+652276836+653334590+655493277+658245689+660739637+663156170+665130341
1981+666378549+667248239+668091327+668847592+669075829+668742418+668045217
1967+667433989+667667932+668459281+669128339+669452342+669109910+668585891
1954+668490587+668165349+667403841+666814435+665816053+663844350+663231581
1940+665620973+668586122+670503542+672179848+674243925+676551892+678956628
1927+681166206+682741964+684968968+688563465+692323896+697596473+704921097
1913+711398239+716605352+722605664+730020273+737726808+744883186+751863991
1900+759054526+765438060+770592355+776022615+781565451+786632846+792976438
1886+800203137+806244779+810940980+814934429+818723158+822044310+824069757
1873+823470944+819237230+815401003+817594697+821858328+822398926+820376795
1859+818746984+817769807+816118869+813016007+808746361+803512569+796848674
1846+788355262+781747501+780588043+779726526+775848661+771458729+767240513
1832+760269887+751268956+745733830+743442673+741951655+741688335+741027836
1819+738961214+736257303+732808924+728236634+724384291+723752168+724568423
1805+723431865+719616226+715205012+713255670+713464553+712051104+707535641
1792+705513588+710050640+714541814+715062672+714255825+713844382+714199382
1778+715575896+714677137+708649375+702306631+703947545+711062824+717483601
1765+719732041+717883477+717369097+719445202+721557626+723753787+722586002
1751+716752009+714072850+718432942+723927972+726667044+727011635+727845701
1738+729030065+725155747+720604044+726981563+737790884+746356392+751382612
1724+753095544+752720418+748035860+739549772+738690646+749809783+762129939
1711+769593665+770818741+768544778+768612478+768150376+762298263+761095626
1697+769887828+783957310+799358661+808347564+810862177+808887621+801189027
1684+799786682+815598860+831803974+839155664+840773214+843817013+847517609
1670+850987115+861613307+874189227+879988290+885298572+896460272+905894698
1657+905157247+893174589+889265572+906783048+917364672+921050387+934060187
1643+949622461+956476887+954365235+946296374+944761559+959074622+972426778
1630+976714389+977244423+977260076+977473199+982586396+988561031+987993678
1616+988154292+996487168+1003871936+1006557418+1008869163+1012501211+1015430429
1603+1018719736+1024062248+1028821292+1031524818+1034361121+1037520118
1591+1039784982+1041152551+1040977981+1039239064+1036903416+1034041898
1580+1028971651+1020224094+1016317853+1023235507+1027407844+1025923072
1568+1029671165+1037031028+1039824229+1034825151+1019349546+1013407064
1557+1035775958+1056451505+1064943529+1067158428+1068801424+1067502865
1545+1058600554+1042156253+1024938030+1028245149+1046552817+1055377481
1533+1055563772+1058379102+1061587987+1059720918+1055207229+1049145231
1522+1043925242+1046000654+1050786454+1055484660+1061135986+1062505715
1510+1055112233+1041001113+1037825847+1053882531+1065315956+1064870355
1499+1059879836+1061207541+1067506874+1066502710+1057015851+1052005207
1487+1058761939+1068045929+1072735654+1073741823+1073211558+1069094816
1476+1059368077+1048638484+1048089097+1055439861+1056973365+1051783678
1464+1049981071+1049897718+1039519579+1020895695+1015248071+1023634767
1452+1027742334+1023747652+1015885591+1009464275+1005440832+1001317844
1441+994410059+982475901+967633653+958660095+954243946+948026192+943322048
1427+943369161+945190197+946785926+945953325+943738272+948069141+957168923
1414+964570423+970448598+975022893+977336797+979058442+983638058+988772921
1400+990672452+992446067+996691501+1003428648+1011618953+1016424261+1016090927
1387+1014364887+1014713873+1016179215+1018281306+1022578016+1027324645
1375+1030090319+1032994785+1036901720+1039933181+1042353878+1043135358
1364+1040229272+1037309924+1037833789+1039678343+1041646345+1042095801
1352+1039193417+1035257490+1032921534+1031691215+1029655667+1025093554
1341+1017797074+1011071570+1007956525+1006762292+1005553408+1004462267
1329+1004455404+1005590188+1006166100+1006337047+1008289164+1013198413
1317+1019561513+1022807178+1022320556+1023819824+1028938186+1033708179
1306+1036522430+1037891928+1037767400+1036873576+1037487733+1040335217
1294+1042240377+1042969346+1045908665+1049573252+1051658457+1054776741
1283+1060013308+1064380725+1066323128+1067542575+1068639422+1067406172
1271+1063731253+1060714596+1058992411+1055921471+1049920850+1043442244
1260+1039822301+1038333520+1036973661+1034630071+1030312541+1025138739
1248+1021006113+1018446315+1017260640+1016440685+1015091004+1013478157
1236+1012174354+1011418552+1010801387+1010317541+1011093931+1012575157
1225+1012731607+1011942262+1011944267+1012291634+1011975958+1011914581
1213+1012070877+1011817658+1012766768+1014831770+1015378613+1014053144
1202+1012777100+1011608389+1009420864+1008075655+1008983667+1009540380
1190+1007748490+1004900775+1002965543+1001755426+1000130165+998300416+996639762
1177+995132166+994001469+993060378+991516080+989443212+987935308+987183977
1163+985946256+983501964+981257688+980021508+978462405+975485150+971504501
1150+968727878+968317515+968555621+967711608+965221515+961438029+957017793
1136+952926187+950617681+949331768+946877992+943883850+941959336+940078620
1123+937090107+933899419+931003358+927889546+924769951+921886843+918955390
1109+915890001+912135199+907730539+903542704+899931629+898457189+899942886
1096+901868557+902068726+900709947+899128868+898204895+896429198+893320783
1082+892871635+896959925+901480091+903832086+905611870+907396974+909330817
1069+912544868+915152087+915119085+915327428+916767787+916689061+915622131
1055+916117621+918363979+920800946+922052855+922498687+923623293+924950844
1042+925301912+925230357+923553897+919432605+917023551+918715972+920952461
1028+920852761+919272222+917534153+916294119+915620666+915002268+913672404
1015+911575479+909908195+908096411+905376848+903554887+902431052+900539463
1001+898934944+898853673+899740943+900140897+900655741+903272829+907700930
988+912576791+917337839+922134126+926449496+928618438+929414645+930889471
974+932419119+932685138+932279864+932617978+933490367+933509566+932415495
961+931307776+930598315+929441401+928597003+929509795+930981459+930900266
947+929780055+929396988+929139682+928043914+925970353+921943671+917436073
934+915450337+915267516+915428207+916720598+917074827+913929401+910433602
920+908951220+906774875+902339372+898132877+895853980+894634224+894123853
907+893888676+893202501+892813342+893665837+895140354+896112288+896606775
893+896196643+894677404+893724053+894226791+895784660+898611171+903250854
880+907670164+908249315+906225719+906357417+909431905+912630688+915019694
866+917361742+919768483+923118782+928792315+935652987+940671804+944723699
853+951957569+961550836+969306643+975558710+982726653+990755342+998182673
839+1004051672+1009539300+1016554572+1024735624+1030391576+1030757757
827+1028751819+1027272058+1027082684+1029202818+1032619583+1035870645
816+1036678109+1034416253+1033382325+1033740719+1032441928+1030791839
804+1029752745+1028088236+1025449249+1021666534+1016132334+1011569373
793+1012473530+1014455719+1010001248+1002537908+997151290+992863910+987774617
779+981067156+974233703+968708370+962867361+956104846+950464624+946642199
766+943721540+941370393+940126580+940305854+938782837+931986472+924411481
752+922731011+924964492+926239302+927350568+929147778+928900496+926239996
739+924265671+924875279+926229355+924241074+918110297+912375387+909820370
725+907478553+902508313+897297731+895590197+896077821+895887752+896774174
712+900376151+903578558+904504845+906042898+910010670+915167200+919612033
698+922460288+924260505+923819376+920113537+915809964+914288335+916236982
685+918750593+920082694+921765091+924049463+925147930+924646811+923272842
671+917343159+905348858+901943505+912220788+921668553+925934267+924218713
658+919288415+916951070+918010058+919696465+921460287+924102976+927046998
644+931858089+940778674+945825096+937320811+925995875+929676192+941851772
631+940678512+928363523+918795778+914119239+912295350+909930941+911137511
617+921467613+933740348+940353121+940857477+938003902+931854850+922701787
604+920116158+929954009+943416582
##END=
