##TITLE=Sample description
##JCAMP-DX=4.24
##DATA TYPE=INFRARED SPECTRUM
##DATE=13/9/2023
##SAMPLING PROCEDURE=Instrument type and / or accessory
##ORIGIN=Default
##XUNITS=1/CM
##YUNITS=ABSORBANCE
##RESOLUTION=4
##FIRSTX=4397.6552
##LASTX=599.8556
##DELTAX=-1.9287962
##MAXY=1.8486007
##MINY=0.46627873
##XFACTOR=1
##YFACTOR=1.7216436e-009
##NPOINTS=1970
##FIRSTY=0.48164225
##XYDATA=(X++(Y..Y))
4398+279757230+279240255+278825758+278817760+278883384+279331775+279591673
4384+277905312+274855862+273806576+275654615+277570547+278442281+279771199
4371+281600232+282419014+281560470+280254852+280173302+280748769+280527594
4357+280014064+279942122+279205323+277261799+276135827+277285877+278940820
4344+278851256+277898457+277824507+277869514+277224339+276353228+275671891
4330+276146231+278173295+280409953+281221446+279634828+276464984+274584227
4317+275044372+275713938+275372370+274550732+273904016+274210254+275349624
4303+276381029+277054818+277486055+277251083+276146231+275145603+275407821
4290+276192207+275514921+274076116+274613672+276417744+276513886+275333110
4276+274731348+274091591+273112585+273349183+275076379+276685865+277211668
4263+276733832+275870788+275777104+276298770+276569054+276560416+275955401
4249+274995713+274520750+274616425+275381250+276408050+276508243+275606233
4236+275086125+276001516+277275249+276770253+274744262+273595181+274191957
4222+275320819+275980743+276549424+277145542+276386499+274295196+273526441
4209+274924048+275924052+274829897+272918552+272159146+272891894+273767316
4195+273898580+274050115+274652413+275028204+275209929+275090591+274305980
4182+273995934+274540242+275029018+275138264+274744141+274105595+273836886
4168+274313908+274513913+272823830+270833481+271077385+272602084+273454898
4155+273371739+272801240+272504540+272727030+272684239+272583458+273306080
4141+274267690+274418861+273933236+273585868+273453876+273497135+273650280
4128+273425955+273621943+274667802+274881707+274165922+273913294+273671987
4114+272981441+273115095+273931158+274026071+274090241+274604446+274528263
4101+274353445+274919357+275252080+274453984+273448822+273471793+274287250
4087+275039439+275242905+274859359+274636245+274945357+274799171+274068222
4074+273800742+273867127+273837076+274088077+274376936+274231857+274386958
4060+275303682+275803346+275349745+274934884+274948369+274863998+274347612
4047+273986932+274679608+275788754+276058034+275854325+275902171+275648938
4033+274793804+274291041+274731850+275657974+276702448+277910765+278866143
4020+278864585+278483774+278906511+279265476+278301322+277280615+276908026
4006+276215351+275819739+276380959+277277032+278437884+279560947+280014480
3993+279926802+279701490+280019188+281129511+282185497+282580728+282185272
3979+281411618+281513957+282289307+282462965+282343696+282176755+281916130
3966+282448822+283447580+283976412+284310243+284374499+284027824+283809990
3952+283599011+283333331+283765831+284817091+285534140+285375109+284733517
3939+284112939+283242833+282545622+283291267+285313276+286847635+286550467
3925+285038959+284321876+285239275+286799997+287081031+286683359+287428052
3912+288356876+288382841+287622898+286417801+286230225+287625720+288757334
3898+289105723+289242233+288581045+287536813+288272972+290067644+291172290
3885+291892367+292057889+291192750+290707921+290823139+290722843+290533709
3871+290126205+289786541+289730126+289867605+290831898+291978296+292678640
3858+293050051+292032374+290079329+291052571+293132830+294384267+295359465
3844+295986621+295473679+294218053+293249052+293113615+293428630+294128939
3831+295518790+296998551+298162779+298561576+297099367+295259965+295417005
3817+295967960+296730690+298324250+299681039+300142257+299898630+299393202
3804+298553301+298438187+300079801+301400307+301968261+302815050+303732051
3790+304296473+304203343+303747976+304258564+305674207+306362468+306488176
3777+307607120+309182608+310029536+310483380+311830301+314228171+316576083
3763+317926882+318592709+320178964+322976081+325279297+326667452+329738177
3750+336909525+345269751+357528485+378281911+398357983+413388871+424554454
3736+430688217+432599527+433408614+434065440+433314792+432470980+435121097
3723+441683015+449756235+457932832+465960630+473409429+481649971+492386740
3709+504488503+516989929+529435614+542885683+557841618+570794360+579489265
3696+585845155+591009745+592430997+588806963+584620480+582669945+579708276
3682+574828442+570907570+568389808+563270364+556892178+552728233+546492996
3669+539979892+536493545+532155146+525546108+518573448+511683602+503984009
3655+497859489+493662897+487077194+477775005+471785853+468776372+465094902
3642+460240515+454374059+447335966+439886612+433443824+429043626+425127185
3628+421190006+418911301+416947922+413360586+407442129+402229555+399853773
3615+397697626+394809630+392306824+390226669+388034828+385444051+382488786
3601+380000487+378342498+376533562+374210196+372304495+370978623+368950296
3588+366161592+364167435+362556738+360409834+358461376+357342086+356302182
3574+354968174+353520991+351403411+348277882+345966079+345563509+345009645
3561+343422698+342134286+341579868+340472627+338421172+336819788+336271083
3547+336075961+335264311+333505264+331960900+331425974+330956828+329776364
3534+328687159+328271710+327812188+326753589+325710257+325114502+324510785
3520+323889550+323494769+322819872+321595958+320213827+318823491+317688622
3507+317177723+317078396+317043014+316538070+315382324+314400687+314126282
3493+314163119+313977309+313519726+313120064+312936435+312710916+311985125
3480+310982889+310293623+309698111+309126661+309145945+309376727+308977999
3466+308056255+307027914+306301813+305993376+305707893+305312524+304767454
3453+304239245+304068080+304177759+304426267+304436030+304107825+304017326
3439+304214422+304283941+303917964+303104445+302262606+301835628+301924015
3426+301973800+301630500+301384935+301438355+301581096+301755724+301967880
3412+302151508+301937206+301262170+300882588+301278234+301867722+301795122
3399+301080861+300567573+300718554+301099521+301069332+300749332+300768062
3385+301103122+301445487+301834347+302125716+302085798+301857786+301701265
3372+301607547+301498110+301403388+301364059+301465844+301550699+301338370
3358+300953145+300550193+300197165+300049335+299933043+299664698+299223214
3345+298500574+297974234+298107490+298263941+297694325+296505725+295539147
3331+295426906+295494555+294761911+293599622+292917662+292762803+292598977
3318+292089463+291134103+289759052+288278027+286908048+285548802+284251561
3304+283187024+282293548+281396004+280756680+280867137+281557216+282090376
3291+282089026+282081427+282700567+283909352+285334828+286271043+286244143
3277+286111303+286918400+288255558+289034526+288997066+288917577+289406976
3264+290119558+290702139+291046755+290995758+291089996+291802492+292533267
3250+292947989+293205395+293243305+293352083+293532804+293333630+292966581
3237+292732925+292656275+292674347+292970424+293945726+295051098+295806489
3223+296581960+297271744+297689548+298221530+299163077+299951669+299909570
3210+299657774+300092126+300839969+301258985+301845876+303019971+304158752
3196+304904553+305385539+305698373+306054413+306601352+307110866+307259735
3183+307366021+307912372+308715297+309504893+310185018+310530603+310591189
3169+310791782+311333528+311949916+312332857+312624502+313208762+314153079
3156+315091129+315780982+316183172+316068058+315786522+316146301+317172634
3142+318324502+319038659+318936597+318108157+317327077+317441741+318011669
3129+318045216+317742077+317755129+317968081+318031195+317826655+317223977
3115+316390343+315939303+315891596+315658079+315389248+315183878+314367797
3102+313064186+312240454+312328079+312657115+312414215+311952997+311975259
3088+312333964+312496509+312672694+313378473+314152629+314443235+314612358
3075+314974526+315311490+315488748+315688753+316112338+316676795+317050423
3061+317130743+317096641+316983362+316693171+316250336+315773885+315320665
3047+315015482+315000457+315048614+314877865+314576214+314125105+313239021
3034+312002644+311020417+310681272+310573359+310107260+309371880+308913881
3020+308940366+309068117+309008119+308752687+308120789+307169063+306383933
3007+306057875+306149343+306513484+306965770+307395379+307881178+308731291
2993+310508722+313387267+316689120+319665226+321938184+323411610+324323244
2980+324867345+325013479+324884240+324726369+324505419+324108907+323588176
2966+322802007+321663538+320597391+319986680+319654009+319411283+319419869
2953+319544642+319449643+319380782+319656952+319855606+319502924+318927838
2939+318573356+318167012+317342483+316278171+315328420+314863082+314955969
2926+315033762+314689978+314071547+313493622+313219495+313062386+312680588
2912+312316585+312530126+313201942+313530112+313236286+312933285+313078000
2899+313384601+313675554+314136980+314634308+314993429+315289437+315507548
2885+315721365+316189369+316616174+316463670+316122343+316119470+316171886
2872+315918531+315582848+315652055+315996289+316001101+315551724+315034593
2858+314725810+314632300+314415954+313544238+312214869+311476754+311864922
2845+312692740+313122903+313074399+312761012+312450567+312596355+313363136
2831+314269508+314868240+315327312+315859641+316388473+316691994+316651037
2818+316557873+316662324+316942267+317404801+317928094+318329245+318743898
2804+319397088+320094732+320507619+320845206+321504282+322251849+322683535
2791+323018837+323339460+323178716+322717983+322643340+322868722+322946030
2777+322915737+322936959+322822711+322520956+322396460+322492982+322473941
2764+322395767+322627172+323040095+323139664+322977085+322896245+322950011
2750+323194538+323583156+323686153+323362345+322989202+322725080+322672664
2737+322979612+323276658+323247785+323210740+323484521+323784337+323787592
2723+323648070+323477355+323477424+323865177+324208684+324235827+324230184
2710+324304203+324516879+324873161+325138841+325189941+325112044+325088018
2696+325106020+324988864+324777711+324557627+324429565+324521760+324639055
2683+324598168+324576219+324569537+324397575+324248914+324198506+323966270
2669+323558610+323117368+322629873+322240389+322089650+322038654+321955045
2656+321789627+321483233+321170295+321090391+321155789+321024542+320780673
2642+320707693+320616501+320370936+320134165+320079222+320271228+320382673
2629+320228126+320154487+320352691+320652161+320875084+321015852+321169915
2615+321356347+321528101+321711003+321902456+322069882+322376276+322869899
2602+323318861+323693631+324216924+324906985+325453440+325720851+326006161
2588+326470737+326882136+327079162+327123027+327198639+327529579+328009527
2575+328327761+328469014+328680131+329001585+329070342+328796942+328633255
2561+328807986+329017476+328936810+328690414+328592921+328623769+328574330
2548+328549680+328774473+329122239+329301505+329271177+329296035+329501128
2534+329793224+330193405+330611451+330808617+330728470+330604804+330775069
2521+331254879+331729218+331924237+331837027+331739535+331896644+332295337
2507+332785186+333336972+333888170+334206058+334312932+334563344+334990253
2494+335340546+335618032+335989997+336479327+336883248+337135287+337472078
2480+337870390+338047095+338003853+337925126+337870460+337805130+337749356
2467+337859796+338128246+338297957+338371215+338537775+338704820+338737883
2453+338760906+338858017+338965134+339049089+339141458+339354479+339667174
2440+339941198+340256039+340640918+340862768+340870419+340869000+340863772
2426+340745369+340679971+340860691+341093931+341143335+341237954+341479468
2413+341567959+341619959+341995664+342618596+343058937+343102871+343177341
2399+343585381+344065190+344508717+344914577+345136253+345133345+345010268
2386+344886361+344434906+343178829+341390320+339540220+337605991+335328186
2372+332441471+329266192+326615279+324597683+322731519+321141664+320707623
2359+322048486+324834247+328248168+332213943+336433005+338974482+338334828
2345+335483565+333466835+333473863+334456920+335653587+336556566+337279621
2332+338532721+340474427+342610633+344551232+346239514+347990010+350111260
2318+352320412+354215726+355817283+357310443+358886000+360653183+362349671
2305+363659375+364786835+366028683+367308232+368562024+369844204+371069295
2291+372194955+373301504+374300729+375147969+375987662+376877208+377883842
2278+378950092+379773478+380275653+380730016+381513796+382682974+383743859
2264+384461305+385237642+386099180+386686244+387224805+388118298+389130402
2251+389801284+390114429+390356809+390816019+391592944+392424431+393094412
2237+393788559+394599101+395244882+395635716+396017722+396444457+396777163
2224+397106580+397611039+398073296+398329801+398655721+399111331+399588717
2210+400087394+400495989+400829837+401267547+401793437+402238903+402639188
2197+403236431+404042161+404792705+405364536+405919749+406665585+407582932
2183+408493804+409311028+409993473+410524902+411065609+411826920+412795263
2170+413814880+414831761+415801524+416772360+417922705+419160501+420259746
2156+421222827+422140485+422999496+423874294+425059259+426615256+428222491
2143+429606491+430782351+431972579+433288307+434561002+435644320+436740934
2129+438094848+439627787+441151794+442687780+444500593+446536779+448253762
2116+449588463+451159277+453210316+455302934+457132919+458872440+460743001
2102+462840605+465148599+467496996+469844354+472426441+475318003+478269044
2089+481099639+483860646+486639899+489586404+492915954+496502147+500033363
2075+503606089+507522738+511826724+516286365+520571794+524666048+529200712
2062+534571538+540201811+545548679+550687580+555885267+561428435+567370746
2048+573450605+579406210+585270243+591477126+598062413+604378490+610497782
2035+616984747+623489853+629585949+635681838+641923549+647868352+653760463
2021+660145227+666490039+671985534+677068903+682538986+688013709+693015788
2008+697637939+701924961+706271877+710986397+715497831+718937128+721464653
1994+724231130+727842354+731748132+734958448+737546698+740133978+742510348
1981+744554428+746437522+748325047+750348354+751666713+751966045+752440419
1967+753319856+754104086+755215205+756706876+757741414+757977597+758257264
1954+759125137+759649158+759236201+759024460+760085449+761677797+762811904
1940+763853782+765444330+767388702+768496775+768376918+768471779+769775182
1927+771949367+774418659+776979766+779617039+782319121+785533592+789402048
1913+793182083+796750170+800781968+805440194+810130825+814394997+818519094
1900+823006570+827912196+833009206+838037182+842552008+846288629+850515065
1886+856312522+862156371+866503426+869771904+873092868+877077512+881234568
1873+884424526+886037301+886856913+888748108+891802145+894176923+894971539
1859+895150321+895533919+895780211+895772041+895604338+894809376+893106656
1846+890105796+885905119+882986864+881921790+880704177+878520783+876352553
1832+874480746+871841119+868556023+865589783+863175676+861552446+860382264
1819+858653302+855711159+852347127+849192343+845912301+842843238+840792857
1805+840002534+839445070+837979642+836153188+835053217+834657016+833791705
1792+832012197+831075358+831152424+831072796+831025643+830996146+830461809
1778+830235874+830684351+830657416+829522409+828846542+829469716+830687398
1765+832284177+833393427+833403606+833474440+834216640+835267589+836049741
1751+835758096+834773619+835271189+837617093+840042625+841138303+841538589
1738+842867958+844889396+846815696+848512737+850124265+852339718+854909273
1724+856788835+858007417+858689239+858281614+858530468+862103125+866833846
1711+870156472+871978771+873786738+876347914+877600771+876472549+877598832
1697+882869984+888261963+893093570+897558058+900808603+902946436+905150603
1684+908750333+913823662+918219601+920953950+922964310+925949313+929959923
1670+934009654+938266002+943092139+947209796+949596968+951963437+955602358
1657+958511473+957615141+954640177+958212626+963949012+967582602+970791325
1643+974631115+977548401+979087433+979273485+979555714+983206544+987408953
1630+988870781+989131406+990642326+993278352+996997801+1000189976+1000140883
1616+998486702+1000676605+1004797655+1007092944+1008866705+1012024951
1605+1014524086+1014395505+1013239171+1013123953+1013706205+1015215256
1593+1017961584+1020344324+1022702623+1025904214+1028228584+1029551582
1582+1031176405+1031912789+1030744268+1030413709+1032534093+1033685650
1570+1033326147+1033508599+1034034073+1035188884+1036418199+1034128657
1558+1031823606+1036195933+1040614376+1045489120+1052630348+1058565735
1547+1060274616+1058818259+1056382133+1054439422+1056464530+1060978180
1535+1062148501+1061561194+1064026886+1067340510+1068777342+1068116846
1524+1064684473+1060070492+1058397755+1059834725+1063138586+1067667607
1512+1071200865+1072409131+1070753565+1068395821+1070832847+1073741823
1501+1072912378+1069480143+1068178748+1069891992+1069308840+1065747816
1489+1064282664+1065730159+1067116237+1067926709+1067652582+1066082668
1477+1062561319+1056895351+1051992703+1050528174+1051608897+1052763084
1466+1051946519+1049908809+1048260513+1043422883+1031614635+1021443534
1454+1020833862+1021594550+1019004639+1012150624+1003770664+997189185+991269447
1441+986057288+980703877+972167639+964574264+959237955+951380838+944695219
1427+944471569+946601509+946054085+943398740+943921306+952171923+961775658
1414+967685633+971981033+974785316+975118091+976091420+981299701+988203154
1400+992692707+995903092+1000929060+1007890814+1012928761+1013402927+1011920673
1387+1011437298+1012569605+1015053784+1017323315+1019115841+1021382186
1375+1022694037+1023737784+1026921649+1031122743+1034067309+1034063224
1364+1032185462+1031507379+1031850818+1031701671+1030838021+1029866839
1352+1028742495+1025746135+1022357246+1020980308+1019763180+1016607427
1341+1012133868+1007761609+1002525355+996212948+992635652+993446332+995057306
1327+995491036+997344909+1000125996+1001094132+1002398297+1005515483+1008458041
1314+1011698685+1015858510+1019454639+1022764732+1026306092+1028378007
1302+1028514967+1028639809+1029929641+1031436061+1032102995+1033172639
1290+1036467429+1040227038+1042535967+1046281520+1052360098+1058156656
1279+1062963959+1065473411+1065292829+1066126428+1069737653+1072895830
1267+1071935657+1067316899+1061789968+1056721763+1053509093+1053449684
1256+1054398501+1053587336+1051698911+1049389220+1045061692+1040191587
1244+1039400086+1041469578+1041177517+1038837083+1036785594+1034384643
1233+1030613125+1027174381+1026746676+1027279767+1026160269+1025419731
1221+1025884480+1025875686+1024952558+1023375443+1021540818+1021118514
1209+1022290428+1022158592+1020672391+1020617136+1021352412+1020905527
1198+1019827851+1019187298+1019242345+1020203348+1021350473+1020494648
1186+1017798866+1016397278+1016095247+1014300159+1012369774+1011820550
1175+1010503645+1008799748+1009305419+1009891549+1007987337+1005483354
1163+1003798223+1002374616+1000845139+998964469+996356694+993405480+991206714
1150+990350473+990183670+989156818+987826203+987168408+984883921+980177988
1136+976122371+974664144+973455117+970553065+968510785+967873693+966062334
1123+962793440+958927337+955739040+954408356+952448335+947457404+942455740
1109+940377662+940635448+941539604+940623469+937724256+935654695+934801293
1096+933381979+930828420+927101770+924382861+924967953+925536287+923790154
1082+922373679+922217262+923395061+925550066+925323854+922705623+922768010
1069+926802854+932131546+936150395+935893440+932205634+929542396+930648599
1055+935242777+939245701+939710519+938609302+937742674+937495136+938242321
1042+939686216+941216870+942609248+943783793+944033201+944076546+943959943
1028+941422517+938797846+938569695+937623233+935686546+935536569+935721652
1015+933186441+930224910+930546260+931896194+931318581+931466273+933288849
1001+932625100+930634543+931952418+934310162+934698469+934250476+933538534
988+934456816+939287315+944974055+947893072+949360993+951093832+952732849
974+952870640+951067728+950059224+952473678+956998060+960006052+959548157
961+957543337+958016465+961212240+961861033+956991205+951095424+949139627
947+950924329+954078420+955265705+953160762+951688755+951681347+950506110
934+948679171+946429513+943267458+940149372+938454824+939086168+939858281
920+938116163+935072443+932475192+930372880+928716760+927288376+925486018
907+923851986+923487430+923632421+923029743+921850974+920762497+919826421
893+918904261+919002584+920186754+921279662+923619889+927421320+928973161
880+927572820+926660355+927956141+929771794+930543075+932127807+935773652
866+939925791+944428362+949986659+955443656+959326653+963004627+967848766
853+971858268+975755044+982812837+992105331+1000105778+1005306442+1009395780
839+1013598258+1016939440+1019070834+1021459252+1025506213+1029818370
827+1032003495+1030910933+1028688417+1030146021+1035192208+1040012320
816+1042624458+1042145514+1039222966+1036372291+1036409336+1038288136
804+1037475725+1033968640+1031093523+1029364422+1028840748+1031934046
793+1036846111+1034946261+1025055035+1015128635+1006343681+996368949+990069906
779+990104527+990132085+985902049+980633736+978522422+980047952+981585115
766+979383718+974356088+970507919+968604122+966957973+964054190+959079946
752+955731978+956336803+957180788+956274208+954757472+953795222+953861763
739+953460993+950396085+946458871+946071880+948179801+948563815+946971328
725+942400969+933385995+926609670+927346400+929781072+930315548+930976943
712+932107034+934833629+940073068+947483300+954625982+956624502+952587926
698+947595264+947399241+951460189+955319991+958948387+962559334+961670619
685+955685170+951815814+953417163+953296475+949090812+949112138+952409283
671+950335429+944778309+945970303+953032249+958089376+961697623+965036728
658+965569126+964001567+961043429+952372931+940911237+938323957+946511356
644+951116128+948044087+949968172+955215851+952795443+945497314+940827870
631+940396980+944361475+952243450+955530485+944556736+929588719+928590048
617+943174744+958613465+964048097+964507445+967285209+971135871+971038240
604+965202977+957975474+952804168
##END=
