##TITLE=Sample description
##JCAMP-DX=4.24
##DATA TYPE=INFRARED SPECTRUM
##DATE=13/9/2023
##SAMPLING PROCEDURE=Instrument type and / or accessory
##ORIGIN=Default
##XUNITS=1/CM
##YUNITS=ABSORBANCE
##RESOLUTION=4
##FIRSTX=4397.6552
##LASTX=599.8556
##DELTAX=-1.9287962
##MAXY=1.7057778
##MINY=0.29932106
##XFACTOR=1
##YFACTOR=1.5886293e-009
##NPOINTS=1970
##FIRSTY=0.33989364
##XYDATA=(X++(Y..Y))
4398+213954023+214921821+214244406+212111551+209344579+207302240+206492062
4384+206975051+208674836+210366574+211225471+211318688+211103457+211546376
4371+211974868+211224927+210607543+210702148+210281386+209482501+209435526
4357+210244054+210734472+210297313+209873661+210187418+210679712+210605517
4344+209749771+208738451+209013600+209848354+209319760+208526221+208535582
4330+208162094+206611036+204735828+204344106+205289673+205928518+206297898
4317+206751997+206822178+206918321+207743545+208692996+208544249+207170490
4303+205771931+205187545+205461963+206649513+207637852+207127324+206242782
4290+206258334+206719618+207239714+208082703+208924360+208363405+206063026
4276+203879370+203403003+204720858+206938301+208242424+207497661+206167030
4263+206053064+206603889+206876618+207161467+207277515+206200779+204225225
4249+203147026+203882203+205402776+205858638+205041706+204323489+204389579
4236+205439489+206814486+206845777+205539591+205036210+206353071+207551708
4222+206905190+205736287+205858807+206858684+207244385+206546165+205730359
4209+205661679+205692183+205135055+204540539+204653829+205156329+204903503
4195+203969998+203488904+203788554+204264189+204256854+203844308+203605571
4182+204222842+205527153+206292345+206238355+206158832+206014532+204954830
4168+203725671+203890851+204701404+204800944+204491933+204382169+204269029
4155+203954034+203853613+203948950+203889481+203993073+204485611+204994451
4141+205065194+204266853+202891799+201962234+201652003+201688191+202031607
4128+202275166+202604925+203574111+204334482+204189056+204070007+204197798
4114+203927808+203444593+203036456+202816835+202777984+202620345+202198851
4101+201667386+201547793+202219299+203320291+203993486+203979116+203940508
4087+204186148+204350521+203895166+202903580+202535889+203104366+203488866
4074+203197865+202375193+201584956+201898920+202863491+203056229+202453834
4060+202214290+202865911+203338000+202910390+202354745+202195455+202095991
4047+202157035+202899641+203835041+204323958+204512156+204477056+204237288
4033+203994649+203806826+203687063+203875449+204443833+205034428+204888946
4020+203995512+203791630+204634638+205222513+204766613+203758069+203360231
4006+203705861+203726928+203118080+202642876+202783218+203248666+203486334
3993+203767487+204717181+205826634+206640639+207160979+207037896+206197702
3979+204885344+203939270+204225112+205064537+205241517+205000454+205392570
3966+206042653+205932045+205652994+205900079+206199353+206451578+206589313
3952+205902555+204730426+204687503+205284702+204808560+204494315+205508056
3939+206367703+206061694+204739224+203781763+204597513+205523589+204534386
3925+203435045+204202563+204789688+204086609+204306080+206816944+209703359
3912+210843560+209737371+205608158+199084147+194980429+195873600+199395578
3898+203990934+206831501+205483274+203164791+204216370+205111774+203575143
3885+202747405+201963903+201695207+204777419+206128479+203529819+200627570
3871+198934032+200018834+201284837+199975462+201175712+205693721+207365310
3858+203338319+193999068+188414659+196980089+206740047+210170215+208122267
3844+203797971+199958672+197012431+196445379+199043476+201787881+204395751
3831+207604441+209197877+208820900+206730911+201321494+198565740+202042019
3817+204700935+207809467+212477367+213874144+210116731+205626467+204840302
3804+203267013+202235489+206264431+209804006+212469506+216108133+218128054
3790+218121544+217549071+217154572+217404714+216895368+215432049+216536775
3777+219943118+221495039+219459172+216425229+217118009+220794324+224155324
3763+225032944+222758941+221723420+224601094+226513953+224544177+226357965
3750+242379616+262256719+282548488+309070995+327085459+328612580+318247656
3736+305346768+302199591+308535760+315407202+318750831+320764279+324918706
3723+332225937+342537920+353876701+362977328+368094243+371694356+381670202
3709+400611830+422944662+444738150+465540785+484603376+496745112+499329346
3696+495531805+487498421+475503649+464155789+459842429+459905687+458002621
3682+451437039+440813081+427628264+415654502+412984274+413478556+410061689
3669+408781823+409333547+406555638+401228651+394875017+387102281+379072461
3655+373222752+365420263+351905687+341430418+343403646+348944682+350089441
3642+347656936+344271661+339743014+334097336+328168198+320218895+310094735
3628+307737607+312778226+313978720+308701803+300390174+295707529+294654487
3615+292235039+289358116+287209053+284957561+284775104+285660827+283703170
3601+279671958+276281167+273527195+271698512+271219087+269057942+262953851
3588+258355456+260381473+263386676+263135108+261084158+259072191+257579702
3574+256738870+255143502+250310347+243740075+241999918+245173171+247264942
3561+247075656+246349371+245245884+243137867+240904291+239492750+237797298
3547+235856487+235523295+236591176+237339222+237011245+236052621+235190403
3534+234375535+233057511+231282274+229845463+229008777+228597225+228753419
3520+228866653+228343799+227760371+227157450+226183781+225643931+225872068
3507+225388291+223740865+222840940+223323966+223604481+223095660+222672139
3493+222769727+222568341+221611706+220828898+220654807+220504541+220431678
3480+220573840+220393258+219875020+219592516+219710178+219707908+219302584
3466+218784514+218220596+217838440+218049750+218516812+218540844+218005684
3453+217361286+216635789+215671405+215347762+216158578+217052124+217437769
3439+217608427+217716352+217843824+218011724+218002363+217645233+217289773
3426+217008602+216300345+215728960+216296425+217467072+218171820+218346924
3412+218501748+218748214+218629183+218032304+217733367+218177486+218752304
3399+219016554+219229646+219437354+219615403+219902090+220067570+220121429
3385+220365775+220802203+221283128+221615195+221873367+222211268+222635952
3372+223179310+223561390+223579155+223586415+223815678+224060925+224343034
3358+224874930+225504602+226085104+226430772+226124143+225328129+224804975
3345+224936387+225230972+225171916+225043712+224948694+224520558+223929850
3331+223483049+223086355+222602203+222006392+221429548+220975656+220529679
3318+219919162+219000420+217661067+216203920+215275030+214820162+214222344
3304+213225975+211866136+210801219+210898732+211547426+211468691+210853465
3291+210586326+210533123+210214132+209918309+210230378+210869767+210977260
3277+210794765+211247401+212555126+214214034+215128460+214798269+214231724
3264+214371203+214743772+214658415+214506780+214734861+215105855+215418392
3250+215689677+215788054+215616664+215668460+216278453+216952323+217256887
3237+217247751+217302042+217833657+218882984+220003374+220444979+220125800
3223+219987147+220461300+221009930+221662132+222848331+223888954+224140973
3210+224627207+226146355+227729773+228474593+228563758+228578184+229245638
3196+230754655+232373136+233482832+234343624+235387230+236399076+237212856
3183+238001536+238690301+239280671+239845227+240390818+241145167+242213198
3169+243417763+244414620+244933796+245359531+246283356+247368608+248024431
3156+248619979+249361365+249758303+250027074+250653069+251329640+251892546
3142+252567860+253180498+253464333+253272308+252722309+252599114+253156129
3129+253555618+253271783+252665204+252510605+252923376+253078951+252551183
3115+251642666+251000669+250930413+250555387+249291222+247913824+246991837
3102+246211356+245356323+244536502+243891128+243710772+243949884+244238428
3088+244662605+245318728+245871935+246205465+246693819+247374818+247682159
3075+247542230+247507468+247707429+247864223+248100633+248582103+248957467
3061+248969492+248761034+248647499+248862355+249202714+249134784+248569628
3047+248147870+248073788+247703208+246714755+245536829+244622516+243751462
3034+242535660+241315731+240502476+239787560+238878217+237999022+237304929
3020+236628752+235886428+235187251+234573788+234082545+233626870+232928143
3007+232208050+231803476+231469196+231237438+231500093+232150082+233058074
2993+234802151+237659339+240747516+243175762+244852041+246045463+246927735
2980+247474132+247843568+248100108+247753896+246561676+245056710+243860344
2966+243103875+242552525+241906213+241142578+240592185+240405976+240318968
2953+240078205+239728448+239529369+239696706+240038716+240127318+239894397
2939+239461177+238747950+237789982+236814211+235991614+235508325+235387549
2926+235425744+235468742+235161025+234248494+233422482+233436139+233762372
2912+233671706+233693448+234366155+235089607+235363818+235541004+235936948
2899+236277231+236368366+236516494+236879345+237374734+237994219+238609127
2885+239083093+239456412+239806901+240121559+240292029+240236988+240073140
2872+240122028+240360558+240363972+240044869+239594053+239211410+239128529
2858+239173252+238951662+238522270+238031101+237386253+236800273+236647324
2845+236840475+237079943+237365373+237867910+238487808+239072906+239763022
2831+240531141+241109129+241390282+241515316+241853949+242471539+242868833
2818+242824860+242765411+242974282+243250820+243648133+244412462+245269540
2804+245922042+246464988+246994632+247555643+248085044+248387376+248573680
2791+248923831+249273682+249334370+249198192+249044813+248916890+248846766
2777+248857684+248916646+248947037+248811347+248418274+247955395+247750463
2764+247817342+247961248+248184827+248445213+248520983+248409757+248282434
2750+248235816+248328790+248427747+248321980+248168000+248153423+248075683
2737+247789896+247569507+247576316+247486270+247183543+246992231+247077325
2723+247302049+247488727+247624135+247660135+247445974+247091283+246926290
2710+247083141+247333884+247441302+247439032+247421680+247271714+246830766
2696+246383364+246352091+246586701+246660746+246551827+246470841+246310313
2683+245898630+245420500+245001257+244599441+244257019+243852464+243334432
2669+242921379+242619910+242356354+242171120+241974367+241674811+241315749
2656+241015274+240875495+240840264+240781077+240637790+240545586+240724517
2642+240925302+240808673+240643305+240666380+240765432+240837282+240794903
2629+240715793+240774342+240897407+240931643+240970495+241189646+241590130
2615+242029052+242416329+242888400+243508504+244060229+244418897+244677407
2602+244925598+245219320+245688108+246413905+247259858+247917744+248289769
2588+248677290+249137767+249448410+249705776+250045365+250374730+250592531
2575+250771180+251100752+251491518+251697407+251813811+251998970+252061496
2561+251823791+251534853+251512548+251593478+251504800+251427041+251590307
2548+251852981+251974939+252075078+252436898+252888540+253065651+252886063
2534+252552533+252517903+252892685+253179504+253144141+253114295+253294914
2521+253487276+253523802+253591506+253820975+254034762+254165179+254312575
2507+254530826+254810910+255126036+255499018+255827989+255935820+255928861
2494+256045659+256349755+256778491+257253300+257743193+258283005+258856567
2480+259246432+259247914+259013849+258798336+258660884+258526958+258240346
2467+257964633+258145027+258678274+259011147+258949746+258709021+258552902
2453+258568360+258700185+258977473+259292675+259405815+259501453+259827647
2440+260199391+260468012+260674276+260836379+260970999+260976702+260757513
2426+260555264+260653190+261004748+261382907+261578441+261546624+261430407
2413+261397428+261527245+261779508+262043402+262247921+262434149+262670165
2399+262943101+263185009+263319591+263398101+263552269+263723827+263680829
2386+263116779+261808736+259701150+256655351+252640986+248107443+243503683
2372+238750013+233869077+229442991+225744802+222722303+220693903+220149119
2359+221570265+224988295+229844262+236200804+243076260+246875320+245455468
2345+240999516+238060029+237912502+239105004+240862588+242795783+244372091
2332+245692685+247638524+250314568+252929455+255213119+257818720+261248325
2318+264959345+267991281+270167677+272195645+274490266+276910651+279325578
2305+281531652+283451789+285319512+287146507+288683420+290017709+291396102
2291+292779316+294153338+295525034+296758264+297739681+298447844+299062357
2278+299727091+300400154+301111112+301912211+302750153+303522249+304191298
2264+304772344+305254789+305698683+306183604+306663123+307123037+307575054
2251+307964657+308321730+308608398+308812429+309091931+309450487+309857442
2237+310270983+310514410+310618226+310789728+311050583+311260017+311357868
2224+311436096+311633974+311984819+312410009+312789632+313086074+313430278
2210+313884415+314404079+314947475+315446335+315902047+316390889+316901418
2197+317376865+317965509+318733797+319495969+320245834+321060309+321913128
2183+322770224+323627433+324524413+325456436+326374652+327209124+327969007
2170+328793649+329803375+330927160+331950055+332852776+333756059+334716071
2156+335779412+336932988+338159802+339470172+340760807+341888907+342917280
2143+344028534+345230060+346465728+347798573+349209720+350526356+351762287
2129+353130625+354621426+356044580+357402900+358890625+360586696+362376528
2116+364285597+366367819+368305253+369966581+371712290+373676288+375723880
2102+377899713+380326815+382932922+385570621+388288424+391211834+394334961
2089+397493993+400706679+404278577+408295982+412597898+417009633+421504887
2075+426264128+431263232+436322329+441453502+446767394+452484810+458671520
2062+464959720+471285102+477910115+484665321+491339072+498195956+505543407
2048+512978242+519962242+526793951+533847737+541161534+548588264+555762601
2035+562776279+570002130+577229632+584004423+590303279+596415850+602664167
2021+608957320+614656163+619768726+625116123+630616225+635606024+640278783
2008+644730402+648600542+652279408+656211231+659886495+662945164+665487713
1994+667063008+668117457+670239488+673187848+675630145+677265322+678446362
1981+679561968+680695058+681679271+682499073+683315873+683749599+683335534
1967+682669937+682541695+682910737+683434210+683894650+684173645+684544038
1954+685099703+685373145+685388453+685263213+684597766+683648297+684111288
1940+686750262+689669208+691592309+692938210+694441768+697024313+700707682
1927+704088643+706717862+710146398+714604545+719165195+724896605+731758479
1913+737774363+742769189+748346319+755380107+762627907+769100854+775536806
1900+782085917+787793465+793267866+799714323+805430726+809526734+814739174
1886+821450595+827043933+830630801+833165546+835872581+838813963+840720931
1873+840607922+838166976+835489882+836549284+840048281+841762549+840480356
1859+837664139+835488906+834311093+832267328+828450390+823767801+818280268
1846+811330148+805922232+805046150+804448539+801071180+796590972+791942826
1832+785618907+778585944+774564299+771947912+768697444+767258644+766863488
1819+765115978+762527730+759846659+756437333+752786757+750770907+750265068
1805+749286409+746385623+742783522+741631221+742320605+740940787+736837124
1792+735369660+739429650+743096885+743268574+742097814+741327313+741565112
1778+742425585+741402953+737343638+733875707+736144289+741788578+746229541
1765+747300424+745679805+745598313+747803111+749863984+751460366+750617527
1751+746756841+745015334+748169902+752326317+754570511+755466928+757120039
1738+758691882+756512072+753731499+758281043+766146190+772567509+776474569
1724+778684095+780008910+777698382+771511934+770796962+779905731+790121402
1711+796201744+797469154+796394594+797178303+797951355+794999468+794970803
1697+801995437+812410036+823417444+830057502+832328260+832251870+828823560
1684+828529181+839375105+851281482+857562328+860087543+864052083+867655460
1670+868595399+874265128+884158730+889886314+893218424+900102585+906967685
1657+907149430+898572088+893708654+904314153+911110143+912129849+919411116
1643+930024194+935038531+932992515+925228146+921340446+931384953+942166643
1630+944367164+941785445+939947437+940813839+946021476+951174785+951050746
1616+950910422+956458212+960663177+960863156+961582631+964295594+967040524
1603+969861993+972885768+974687532+975263832+976367957+978326477+979923759
1589+980819200+981797109+983841249+987173885+989983949+988697103+982355851
1576+979454539+985891917+990536686+989097587+989543769+993103473+994389043
1562+990788968+980185195+974778029+987822823+1002181176+1011266308+1016977158
1549+1023865220+1030514734+1030314079+1022347780+1014617254+1021159161
1537+1034671899+1040977658+1043662857+1048884376+1052692835+1052572247
1526+1050219397+1044502694+1038092630+1039040149+1044927715+1052165085
1514+1059360583+1060928524+1053985308+1042492022+1043424683+1061615657
1503+1073741823+1073338113+1065917723+1061825391+1065146696+1067839624
1491+1064924731+1061740372+1064936287+1070660568+1072863941+1070589881
1479+1065911420+1059955192+1052951495+1045438882+1043496195+1048641250
1468+1050889721+1047267059+1044130650+1041483422+1031386913+1012799357
1456+1003710398+1010791986+1016881783+1015223945+1007933147+1000621114
1445+995595821+990468851+984053835+974646185+961182448+951529645+947664607
1431+942702122+936849299+933025307+930819158+931194729+933372513+936263619
1418+943472098+953740296+961794766+965334960+966590589+969002796+972744920
1404+977627413+982153920+984796797+987458733+990933943+995117897+1000807061
1391+1005391799+1005851113+1004872828+1006917943+1010191899+1012686273
1379+1015439682+1018311428+1021634684+1027093026+1031982198+1033103882
1368+1032482183+1031530012+1029947738+1029816720+1031974769+1033446886
1356+1031635217+1027587084+1023363959+1020067492+1018881725+1018750781
1344+1017649133+1014627834+1009392282+1004467242+1002675234+1002122571
1333+999782327+997008207+997072966+998619221+998145725+997499788+1000226783
1319+1005452130+1009841166+1010893214+1010668697+1012370433+1014367448
1308+1015967507+1018919469+1022149527+1024220680+1026265045+1028875880
1296+1029629948+1028211484+1028464966+1030970521+1033641837+1037518356
1285+1043388664+1048994684+1053033587+1056285031+1057906926+1056029598
1273+1051455440+1046611818+1042890855+1039882163+1036315855+1032152236
1261+1028755893+1026380380+1023936057+1021184599+1017595330+1013072049
1250+1009528553+1006774544+1003274796+1000714763+1000038435+999211129+997988293
1236+997217866+996558723+996217970+996008611+995279006+994792753+995117747
1223+995099888+993911344+992647536+992721374+994458904+996249637+996355592
1209+996461022+998134844+999423265+998839986+997582256+996482033+995307446
1196+994804759+995037906+995243438+995746650+995180180+991959953+988811613
1182+988426662+989551873+989606652+987109651+983144436+980109180+978537262
1169+977487465+976385441+975316509+974288849+973000353+971972993+971798902
1155+970954712+967778908+963500630+959971467+957545828+955681783+953671335
1142+951596055+949004505+945377341+942909005+942986670+942745645+939477393
1128+934815965+931776432+930507071+929463652+927950939+925396309+921360332
1115+916770791+912348813+907764000+903871122+901254059+897916471+894056461
1101+893132805+894338758+893147062+890196375+889655944+891361957+893084404
1088+894176448+894690466+894872661+893977745+893492467+895739662+897571141
1074+896971354+897002345+899608002+903411583+905064544+904594199+904999710
1061+906774910+909812717+913686310+916390568+916988480+916658533+917568006
1047+920078664+921924100+921394249+919153732+917493868+918146483+920718973
1034+922486818+920863573+918012388+916718789+915203600+912824036+911367602
1020+910784098+910063423+908077138+904931800+902464215+901078393+900128698
1007+899013242+897053522+894965259+893942701+894451316+895671152+895614872
993+895439806+899252617+907112736+914248127+918578107+922495673+926154278
980+927103823+925988292+925943194+926944440+925994895+922866516+919639610
966+917569957+917480136+918629959+918810879+917337711+915713641+914886035
953+914258333+913649090+912647619+910758135+909063752+908105278+907039273
939+905230906+902862222+900986245+899761532+897674095+893868113+889212838
926+885149021+881838447+878483299+875695673+873412458+869844050+865747966
912+863202566+861537674+859162612+856183335+853393157+851288385+849845834
899+848018782+845532888+843080610+840493113+837899462+835961502+835682957
885+837899987+840442987+840731137+840440660+842389500+846493613+850270630
872+852086576+854193148+858794245+864461421+870642541+878416365+887170949
858+895892967+905979195+920020809+935843400+948259217+958316255+970865866
845+986580101+1000953087+1008767507+1011283642+1014616203+1020843171+1026762179
831+1028892239+1028712970+1030338992+1031658930+1030153345+1030967970
820+1035784428+1038407645+1035891209+1032764931+1032910957+1033349485
808+1030285189+1026270973+1024154121+1023080086+1022888437+1023733902
797+1024007044+1022835834+1021233450+1016913299+1006499526+994936528+988448274
783+985065362+979155058+969852163+962362287+958676142+954221072+946793103
770+939523692+935339513+934344344+933770070+931037822+927705561+926511164
756+927011150+925571750+920520344+916417507+916371283+917191385+916505003
743+915578945+915042266+913742214+911413901+909587525+907781259+903398751
729+898871268+898038335+897031310+892405301+888063314+886985903+887924192
716+888605922+888765005+890216861+894065165+900931466+909187116+914537178
702+916309151+917327206+918830089+919326022+917586316+914898641+912438034
689+912753049+917685818+922937278+926654189+929895052+928317730+922971946
675+921163804+921480769+918208090+914495381+919516846+926561290+927822697
662+928404701+930532134+930808503+928941905+927843258+928689174+931869930
648+935702326+936238181+933680548+930901176+930149134+929980446+928893805
635+933772396+943549914+946589297+942055886+932919427+918954128+906166643
621+902781705+910326285+924404967+934951410+936231727+936653447+934331588
608+925052705+917350243+917119948+930172396+947738971
##END=
