##TITLE=Sample description
##JCAMP-DX=4.24
##DATA TYPE=INFRARED SPECTRUM
##DATE=13/9/2023
##SAMPLING PROCEDURE=Instrument type and / or accessory
##ORIGIN=Default
##XUNITS=1/CM
##YUNITS=ABSORBANCE
##RESOLUTION=4
##FIRSTX=4397.6552
##LASTX=599.8556
##DELTAX=-1.9287962
##MAXY=1.6850876
##MINY=0.28995031
##XFACTOR=1
##YFACTOR=1.5693601e-009
##NPOINTS=1970
##FIRSTY=0.31948027
##XYDATA=(X++(Y..Y))
4398+203573592+202869970+201620782+200954077+200337050+199355262+198578661
4384+198635612+199218628+199390602+200033683+201397648+201930112+201385134
4371+200538061+200267338+200411928+200319219+200275940+200063460+199818013
4357+199947962+199671770+199385608+199955786+200378392+199839396+198453022
4344+196976351+196910418+198179318+198765676+197814423+196783412+196539275
4330+196328352+195772492+194998626+194594821+194826158+194702172+193981991
4317+193392196+192980927+192433081+191775568+191753045+192972021+194234445
4303+194177285+193196123+192062888+191169688+190764477+190820517+190963607
4290+190924241+190801907+190684681+191253985+192612652+193106224+192267715
4276+191201212+189981078+188836430+188997770+190151324+190666545+189878494
4263+188386953+187725623+188635249+189877126+190399525+190266708+189624178
4249+189198382+189374040+188686294+187169573+187097012+187825435+187097145
4236+185997048+186213592+186852267+187241527+188040232+188880525+188951434
4222+188577633+188296769+188210611+188180550+188126181+188076902+188192343
4209+188379851+188014120+187562725+187807679+187991066+187820193+187875151
4195+188068052+188273487+188643984+189064691+189003942+187738783+185926310
4182+185420603+186177549+186817212+187010303+186853939+186401328+185901584
4168+185952193+186843456+187564643+187055765+185692275+184757032+184987780
4155+186102994+187338433+187912789+187581924+186825491+186402563+186454861
4141+186460425+186345421+186469389+186943610+187248249+186800462+185953257
4128+185283399+185139720+185737586+186801944+187865618+188433327+188260916
4114+187814743+187933545+188718995+189106565+188552490+187993174+188131916
4101+188188488+187778548+188044486+189081934+189926520+190661399+191223031
4087+191032959+190560979+190621083+191057647+191533937+192280325+193155047
4074+193160213+192032941+191419180+192239952+192791748+192152711+191749703
4060+192382397+193207783+193372142+192995321+192503193+192158313+192208694
4047+192433784+192603233+193040347+193755325+194137520+193820119+193345936
4033+193317926+193440716+193504029+193807889+194153016+194148325+193683314
4020+192981649+192887629+193342404+193496091+193850256+194823329+195732404
4006+196356343+196668788+196712560+196960134+197434887+197557544+197024453
3993+196728587+197620496+199064504+199888789+199724999+199316142+199574996
3979+200361035+201000603+201001211+200690741+200774905+201058959+201367625
3966+201880168+202276909+202733412+203478679+203835959+204165191+204994926
3952+205255242+204951856+205196924+205230270+204780205+205582176+207067772
3939+207257711+206686869+206356080+206532346+207521750+208344003+207688768
3925+206720405+207255983+208228771+208515768+209113615+210446189+211540779
3912+212243356+212586963+211193697+207915168+205595412+205727052+207707853
3898+211298142+213864960+213421693+212660607+214448336+215930248+215279400
3885+214522170+214151559+214547218+216602536+217316621+216156781+215281375
3871+214364305+214543799+216090791+216763629+217975578+220622420+222065004
3858+220973186+216901498+212980362+216624090+222628099+225418126+224400370
3844+221420498+218946011+217987143+218984352+221598018+223767296+224818722
3831+225705883+226635791+227073702+226128982+223482008+222820032+225117075
3817+226338861+227727114+230205817+231211192+229877877+228461804+228849715
3804+228720145+228897836+231306579+233305023+235427262+238167232+239567885
3790+240055209+240785094+241561011+242249859+242509643+242608791+244573565
3777+248153485+250438034+250324017+249848638+251762024+255315112+258662917
3763+260627918+260992794+262398556+265744956+268387924+269990803+275314851
3750+288616987+303622593+322424361+350254254+372718416+384419325+389569861
3736+392042905+397408485+407053335+417390792+425230897+431743214+440235364
3723+451744662+465231477+479375236+492786356+503416754+511919767+523240341
3709+539374036+557415629+575740706+595251944+616673245+634801889+643858577
3696+646709828+646875422+642824299+637458453+639006375+645436047+648935545
3682+647879543+644969802+641997774+639684019+641276605+643853867+641991393
3669+640313883+641558039+642315820+640996083+636776860+630185203+622834359
3655+619392135+618041711+610962311+601735510+601587957+604610423+603819902
3642+600199134+595495777+591289809+589161512+587850244+585035416+579186880
3628+574304712+573659542+572396396+567564590+560636808+556854585+556907454
3615+556207554+554241356+552424610+549933715+549166325+550951281+549790985
3601+545176389+542516102+542210323+541272098+539653419+537548023+533402710
3588+529751063+530360570+532392929+532655980+530631369+528210547+526966011
3574+526136485+524938513+522887961+520487877+520017340+520876984+520924384
3561+520062574+518390039+516924534+516852904+517207981+517115879+516587460
3547+515484021+514592283+514444616+514383012+514105414+513157162+511145350
3534+509313260+508323115+507490171+507152603+507465408+507576614+507585995
3520+507777492+507580526+506980591+506316734+505166769+503838487+502858331
3507+501240412+499055675+497987672+498449131+498992210+498372449+497343033
3493+497039647+496685824+494982449+492825628+491772360+490841047+489258525
3480+487936624+487051457+486553916+486464282+486144641+484995777+483506383
3466+482384333+481269272+480014481+479166079+478694820+477768976+475976804
3453+473920250+471895943+469835857+468581940+468520185+468399749+467656590
3439+466901695+466376999+465761985+464387329+462229444+460329104+459548648
3426+459285977+458381136+457329084+456890489+456373008+455658068+455527037
3412+455574968+455281115+455409678+455603301+454601952+452759114+451065804
3399+450027462+449880859+449957503+449272454+448277979+447625251+447031582
3385+446776963+446817298+446121159+445203632+445412486+445669460+444319263
3372+442331758+441361059+441539339+441758408+441194592+440505213+440148579
3358+439711426+439346588+439158776+438719497+438183064+437710476+436818131
3345+435631781+434837766+434171365+432696935+430869783+430063652+429460526
3331+427179624+424112114+422096389+420297304+417618597+415012394+412895642
3318+410533273+408030414+406024678+403941653+401185770+398760847+396914666
3304+394781507+392396197+390575274+390392855+391752167+392711623+391877046
3291+390516556+390476525+390931604+390050691+388029459+386491792+386101241
3277+385858890+385046151+384575462+385202553+385548325+384302840+382413096
3264+380868592+379531726+378235196+377062214+375986918+374778198+373452688
3250+371860557+369676580+367790293+367148807+366645151+365103382+363425264
3237+362723199+362463377+361765604+360993884+360523005+359845020+359043447
3223+358825099+358944091+358381756+356965170+355425793+354310846+354184752
3210+355100797+355570802+354830112+353838790+352970942+352534663+352919744
3196+353023886+352408644+352169521+352678380+353505020+353853716+353007137
3183+351340147+349901646+349274934+348964864+348434394+348191549+348526192
3169+348860266+348902804+348754871+348197815+347339804+347071360+347700122
3156+348228845+347759144+346832996+346456346+346407959+345901645+345255601
3142+344934782+344326757+343388380+342909297+342945758+343000488+342741121
3129+342383119+342101800+341285605+340052615+339663963+339983301+339580521
3115+338247187+336744613+335709273+335335699+335289211+335318646+335239495
3102+335113401+334933678+334144184+333257839+333349068+333859370+333902174
3088+334085884+335032351+336097354+336799039+337342384+337880488+338656158
3075+339809769+341049216+341799667+341648202+340921640+340093140+339139532
3061+338247529+337677180+337095133+336534127+336484107+336659804+336683807
3047+336797672+337124606+337694461+338736372+340315020+341962640+342973256
3034+343311812+343684170+344264659+344402869+343928458+343208999+342464511
3020+342153567+342939036+344712028+346522546+347941563+349403459+351372886
3007+354005675+357145576+360743670+364978465+370066827+376205684+383553984
2993+392462131+402789599+413580274+424129319+434262328+443415637+450479693
2980+455207395+458261840+460557593+463353279+466617679+469221565+471459018
2966+473992071+476531543+479727692+484625318+490258127+495298748+500114564
2953+504694371+508211036+511123017+514021706+516254981+517082304+516122278
2939+513426594+509634762+505271784+500454069+495419867+490584529+486358621
2926+482791215+479183853+475271701+471588075+467913412+463463042+458460439
2912+453656511+449019771+444385766+440084088+436595871+434022179+431796576
2899+429896387+429061468+429501963+431001764+433543248+437171841+441713326
2885+446727817+451573409+456009917+460386378+464338600+467045716+468833559
2872+470092718+470119114+468659610+466290859+463127980+458708564+453139752
2858+447191593+440569893+432392524+422909508+412877792+402875624+393377075
2845+384704481+376691945+368948651+361658728+355130535+349207254+343702438
2831+338869797+334927184+331567415+328614377+326166894+324009503+321879990
2818+319830311+317964400+316513669+315576147+314855225+314502693+314672255
2804+314851579+314834203+314727688+314462168+313934072+313079555+312054374
2791+311080390+309973703+308449481+306693959+304901274+303082097+301411613
2777+299893999+298480489+297319225+296345963+295325700+294138837+292833571
2764+291663020+290752027+289891756+289081675+288598187+288396588+288087600
2750+287448260+286655195+285906472+285289464+284929545+284738865+284495791
2737+284106969+283561402+282921834+282231544+281516053+280949198+280749498
2723+280745586+280440662+279820293+279316694+279071874+279029070+279164413
2710+279292482+279126357+278581511+277870996+277228523+276636069+275981442
2696+275274307+274553272+273830603+273092249+272314395+271590967+270970142
2683+270354501+269720308+269026048+268184805+267304386+266474100+265537223
2669+264480594+263555548+262864669+262281729+261682762+261094145+260648352
2656+260369653+260021944+259468287+259001017+258747385+258562079+258457406
2642+258287368+257935633+257658739+257499450+257217655+256894121+256805779
2629+256921182+257056087+257161805+257249046+257404993+257840265+258512743
2615+258992832+259141259+259308580+259709842+260228442+260744784+261254326
2602+261771465+262264315+262673115+263099861+263625033+264059583+264249428
2588+264163630+263881969+263675186+263733542+263894331+263845432+263554522
2575+263261600+263135639+263090841+262949706+262627330+262162073+261679496
2561+261206813+260750690+260359930+260047163+259893153+259907851+259914802
2548+259772490+259621708+259601275+259569277+259560769+259680920+259781491
2534+259909940+260198476+260431390+260434808+260381579+260522390+260963398
2521+261486423+261774389+261933432+262226050+262588458+262865979+263139361
2507+263540147+264020217+264418762+264615329+264715977+264955917+265359988
2494+265757394+266058976+266297340+266480842+266634624+266815922+267013590
2480+267150984+267147451+267036568+266834931+266516220+266313349+266425599
2467+266720953+267008862+267171607+267197851+267096102+266896459+266801755
2453+266869721+266971166+267122726+267276166+267314052+267328807+267373073
2440+267439140+267634700+267893136+268037784+268031726+267893326+267730049
2426+267658760+267699228+267849288+268022516+268064674+268005083+268016895
2413+268123657+268368668+268816094+269254385+269577483+269904189+270157213
2399+270255145+270421480+270849820+271380062+271729101+271808612+271696855
2386+271391760+270694007+269318306+267186685+264578146+261815389+259041997
2372+256273790+253425805+250375252+247239282+244740867+243519917+243489210
2359+244581237+247053255+250830901+255519446+260068622+262435435+261513067
2345+258599756+256506400+256304003+257331995+258817553+260051910+260818123
2332+261620570+263254365+265673990+268016686+269966818+271986284+274331619
2318+276771469+278983209+280781174+282279702+283681989+285182683+286967582
2305+288757457+290179779+291385784+292582958+293795970+295030708+296190396
2291+297219603+298171919+299043812+299926738+300935151+301800758+302251830
2278+302575023+303034318+303450619+303784313+304177617+304609396+304993262
2264+305330773+305735623+306111950+306250673+306352099+306666366+307062576
2251+307376881+307606225+307738035+307900268+308261859+308554553+308542437
2237+308567561+308871213+309166073+309268315+309364785+309580988+309792537
2224+309883291+310020780+310354075+310706095+310889254+310968462+311197768
2210+311676110+312160661+312490804+312873417+313471739+314057526+314403298
2197+314696544+315233546+316012084+316858093+317612418+318161783+318596372
2183+319166075+319913184+320605678+321240593+322009958+322772905+323448725
2170+324240575+325086888+325832288+326608300+327519407+328501272+329528865
2156+330564206+331591191+332657562+333683825+334581488+335441246+336478942
2143+337809085+339284959+340733220+342090785+343403914+344819209+346269559
2129+347557013+348833566+350274346+351681133+353034673+354567516+356184182
2116+357706430+359246148+360846521+362465124+364279401+366313698+368330523
2102+370393875+372693539+375126628+377613118+380281950+383197767+386162959
2089+389079271+392323275+396095205+400058707+403983697+408003942+412328294
2075+416838597+421339329+426006833+430967999+436209270+441783703+447585828
2062+453419970+459408729+465764567+472247677+478712557+485438285+492479248
2048+499547102+506358209+513004406+519912400+527170497+534464029+541659952
2035+548636729+555256833+561736601+568234143+574695035+580974609+587018098
2021+592945367+598506128+603510022+608496787+613927161+619356624+624053676
2008+628124586+632128651+636014104+639536275+642890233+646059227+648579594
1994+650405531+652208149+654383960+656638162+658903150+660983935+662506866
1981+663619762+664407776+665016979+665617066+665930935+665799675+665142845
1967+664309103+664334322+665214324+666031354+666494105+666377886+665611825
1954+664914964+664806720+665147555+665289449+664575421+663518735+663715548
1940+665283296+666626504+667639741+669025335+670732850+672828447+675345928
1927+678005607+680747323+684126272+688061706+691813772+696364942+702552832
1913+708987745+714736432+720615314+727320191+734295562+741275796+748189108
1900+754652126+760877540+767246444+773599775+779298328+784494934+790434129
1886+796885070+802405495+806800946+810425019+813294576+815938228+818550583
1873+820192696+819948180+818482751+818379293+819542703+819194120+817386793
1859+815926302+814166299+811085419+807578097+804262576+800549857+795638635
1846+789560584+784471690+781764459+778756122+773898831+768516198+764029595
1832+759781203+754616045+749820966+746067380+742856229+740944684+739535390
1819+737171197+734016636+730819688+727820011+725374236+723928557+722874910
1805+721210768+718657206+716105847+714868679+714963933+714856905+713540890
1792+712996558+714591727+715991678+716263616+715737362+714561039+714106568
1778+715146086+715646286+713876408+711739944+713000432+716557431+719687078
1765+721157900+720847070+721022690+722650826+724389865+725957005+726273912
1751+724778706+724059437+725852711+728535178+730545699+731268615+731879565
1738+733426271+733860005+733866614+737305495+742149265+746598116+750194235
1724+752480189+753926324+753894724+752363286+753683023+759663085+766317599
1711+771135087+772942186+773352828+775875626+779012185+779636352+781027263
1697+786116309+793886531+802270513+807858467+811354699+814164172+815378171
1684+818173136+826627609+835722126+841689578+845178821+849250149+853505605
1670+858227990+866926220+876242465+882152947+887155170+894552806+902045848
1657+905643107+905297335+909551424+920409817+926159719+929062775+936825021
1643+946559276+953077746+956143053+955730588+955991892+963265560+970295700
1630+972453736+973697132+976112143+979113112+985365264+991766603+992489822
1616+991269366+995270430+1001394133+1005878078+1008720822+1011558932+1014603579
1603+1017499571+1020997017+1024428303+1026074138+1026222868+1027412409
1591+1030214437+1031720201+1030863899+1030261077+1031601323+1032475476
1580+1030043906+1025737405+1024305626+1026112346+1026407604+1027133862
1568+1032791244+1039001010+1042198109+1042176081+1036485656+1034801309
1557+1048891212+1063431028+1071913379+1073741823+1071251840+1067991541
1545+1064190861+1057981170+1048583268+1045633800+1051844022+1056439553
1533+1058245513+1061313023+1064680426+1065484239+1063544513+1059227909
1522+1054995165+1056213799+1060140498+1063055708+1065223011+1066123674
1510+1064595426+1059459968+1057829021+1065102462+1069665102+1068398917
1499+1064908079+1063914441+1066063058+1066559687+1063787663+1062802911
1487+1066218853+1068765047+1068116724+1066935995+1066811952+1065113552
1476+1060127584+1054766752+1053992335+1055783786+1054385051+1050655317
1464+1048309279+1045388904+1037585943+1024968457+1017390567+1018995384
1452+1020732219+1018549116+1012752878+1006698831+1002507941+997881191+990755721
1439+981234383+970315221+962272074+957434457+951434341+944597294+940457677
1425+940454183+943506122+946150685+947953150+953142692+961906856+969741036
1412+973353791+974895788+977302671+979161423+981056484+984320656+987625315
1398+991564548+996541476+1001905651+1008738901+1015289274+1018335136+1018616645
1385+1018505363+1018217017+1018288420+1019660265+1022345087+1026494730
1373+1032021309+1036662872+1038853191+1039189468+1037785719+1035873111
1362+1035830497+1035894760+1034199930+1032038855+1029348716+1026515696
1350+1025458934+1026180558+1026719194+1024153022+1017284830+1008825116
1339+1003242935+1002457124+1003455168+1003589010+1003587491+1003283498
1327+1002608361+1003292309+1004984480+1006321308+1007789471+1009812981
1315+1011293526+1012543683+1015894602+1021095386+1026167341+1031179819
1304+1035384229+1036620865+1035554229+1034879092+1035095124+1034511520
1292+1033445035+1034499822+1038410949+1043936464+1049573412+1053280890
1281+1055150124+1058022569+1061757696+1063038617+1061164748+1058144257
1269+1055183471+1052029517+1048091500+1043792823+1040003460+1036359258
1258+1032472134+1028755997+1025658634+1023852902+1022480145+1019422357
1246+1015096942+1011301426+1008172843+1005868659+1005679594+1006914938
1234+1006432969+1004033455+1002924812+1003601088+1004179071+1004849118
1223+1005963458+1005775836+1003880471+1003043614+1004574597+1006273073
1211+1007327632+1008250095+1008058295+1007015358+1006075196+1004976504
1200+1004005577+1003322389+1001874507+999397893+997122498+995946554+995685782
1186+995329679+993712937+991569713+990748201+990874523+990473680+988985311
1173+986098966+983382393+982600076+981802719+979098072+975944802+974270254
1159+974005684+973608031+971890945+968508882+964958415+963041629+960890277
1146+956890884+954343854+955198333+956098617+954753889+951890484+947598643
1132+943079604+940735389+940101499+938623005+936180801+933854284+930024055
1119+924543205+920384674+917667189+914779553+912430021+911146669+908830027
1105+903986713+899221107+897385827+897081985+895587235+892513420+888711068
1092+885998672+886852240+889964339+891314764+891139599+892160356+894744530
1078+898288009+901933427+904691247+906239700+906069473+905180432+906257779
1065+908441490+908961591+909013168+910476242+912468229+913554235+913890892
1051+915703080+919158521+921123010+921081459+920595768+919790056+919751696
1038+921085182+920726572+917028894+913927125+914600970+916940476+917253433
1024+914074033+909643564+907348951+907609419+908138256+906301836+902737392
1011+900384593+899186241+897260264+894767850+893586209+894197995+894919163
997+895483701+897076972+898846926+899350847+900271184+904555809+911327911
984+916727331+919968639+923216784+926919020+930341265+932907589+933141927
970+930420948+927272995+926605075+927641100+927751242+926747425+925689524
957+924151173+922447608+922060514+922571272+923702019+925699399+926432189
943+924846895+922529949+920356037+918210838+916484105+915580024+914324094
930+911719259+908425310+905224261+903459852+903756857+903469043+901058590
916+898809933+897319361+895484233+893837942+892612396+891240399+889423121
903+887936575+887877706+888454322+888621131+888812703+890257927+892561883
889+893249705+892657517+892953155+894258231+896636021+900106046+903390880
876+904796680+904247258+904284554+906778260+911075722+914873896+916442631
862+918371571+924435493+933073183+938826351+940790004+945104786+954445186
849+963640121+970539001+978763466+988891348+998515536+1005942873+1010398864
835+1014138093+1018963480+1021989213+1022067148+1022656905+1024982586
824+1027534173+1031652293+1037908395+1041046929+1038891703+1035927195
812+1033812380+1032053440+1031599424+1030877116+1027990544+1024899105
800+1022468067+1018867162+1014705214+1009901247+1002603879+996691346+995707051
787+995735612+993696910+989824902+983716391+976808168+970935287+964556508
773+956437172+949166011+945973697+946721452+947233273+944386124+940988261
760+939565370+937846233+935713872+935023619+932779596+928107345+926154174
746+927399393+927791881+926461206+924012925+920748981+917788954+915950863
733+915633349+916239057+915636919+913337900+909478654+903022396+896462755
719+893829055+894690370+896676052+898848521+900644150+902714148+906722201
706+911446409+915005459+918650725+922066363+922492805+921618728+922326451
692+922267202+920417641+918845488+917611131+916892773+917728717+920362494
679+924570019+929034214+930100927+925849269+918625354+913337368+920259264
665+931982011+933977720+931099275+931254310+933370948+931689715+927329358
652+925834153+926487868+926071453+925998987+929506156+933837193+935231979
638+937154234+940384224+940884879+938486808+937362897+937867502+936086306
625+933912850+934572794+935873009+936291323+935406612+938329570+953639397
611+970438125+966671323+947632901+935747522+941678894+956053724+963271941
##END=
