##TITLE=Sample description
##JCAMP-DX=4.24
##DATA TYPE=INFRARED SPECTRUM
##DATE=13/9/2023
##SAMPLING PROCEDURE=Instrument type and / or accessory
##ORIGIN=Default
##XUNITS=1/CM
##YUNITS=ABSORBANCE
##RESOLUTION=4
##FIRSTX=4397.6552
##LASTX=599.8556
##DELTAX=-1.9287962
##MAXY=1.7222053
##MINY=0.33182782
##XFACTOR=1
##YFACTOR=1.6039287e-009
##NPOINTS=1970
##FIRSTY=0.37466919
##XYDATA=(X++(Y..Y))
4398+233594675+233369624+232915360+231715132+230463843+230146743+230253081
4384+230796793+232193904+233395675+233536666+233398406+233972424+234298889
4371+233461451+233177573+234346474+235402200+235293409+234641389+234284451
4357+233381498+231279727+230068963+230847184+231661043+231915173+232245131
4344+231369566+229644652+229742275+231378577+232354665+232487091+232198159
4330+230923143+229300293+228967845+229052908+227925944+227151383+228739970
4317+231523656+232729589+231149197+228715183+228114725+229142022+230165175
4303+230828492+231144886+230711247+229685176+228857270+228315045+227614510
4290+227007883+227512632+229714367+232207301+232541124+230334762+228110563
4276+227842887+228411776+228398157+227747846+226328178+224818486+224883129
4263+226446408+227894319+228550389+228087188+226423888+225026387+224894649
4249+225486355+226751468+228581345+229894025+230086801+228951364+227390054
4236+227484742+228517706+228319727+227939396+228670626+229557080+230317965
4222+230959747+230620349+229691828+229282028+229149658+228360475+227401128
4209+227718693+228997890+229788579+229347600+228219799+228088637+228987503
4195+229102853+228437567+228506985+229249140+229412354+228822989+228172139
4182+227462500+226469244+226013642+226835490+228133566+228735417+228705279
4168+228849132+228920111+228136594+227085886+226393750+225591801+225187761
4155+226147944+227181335+226982558+226932352+227601541+227462482+226597897
4141+226402873+226712058+226882203+227105024+226983765+226323440+226086107
4128+226275873+226201401+225980456+226180628+227020667+227347541+226255360
4114+225293765+225828280+226475487+225808249+225096511+225790430+227027133
4101+227712914+228014258+227985941+227340406+226637326+226371713+225665270
4087+224818988+225545294+226959220+227411403+227492360+227350997+226708769
4074+226248894+225910035+225513297+225808863+226401498+226034935+225089506
4060+224897027+225598323+226134696+226042071+226192408+226993149+227302780
4047+226455438+225601612+225927185+227165003+227776721+226905577+226011003
4033+226018399+225864475+225442932+225516753+225934618+226213887+226061878
4020+225890154+226281726+226687717+226803606+227046123+227482828+228346019
4006+229550019+230112758+229636959+228684729+227565364+226532586+226304915
3993+227092222+228079180+228321938+228073884+228431416+229420975+229944806
3979+229493441+228504996+227554754+227089676+227157942+227304303+227494106
3966+228082951+228648478+228647474+228472090+228628856+228829622+228563489
3952+228069555+227750671+227664251+227288380+226487007+227070408+229154972
3939+230273334+229690639+227923026+226122581+226337543+228024849+228568469
3925+228010821+227933302+227452467+226277694+226996623+230046908+232131825
3912+231894121+230606674+227872784+222681784+217938786+217552955+221625352
3898+227717058+230649187+227594907+223967744+226222397+228625716+226381709
3885+224048292+222911350+223213418+226798310+227274332+223330812+220163710
3871+218484412+219933661+222257955+221684625+223442483+228519954+230211218
3858+225514449+214384515+206884401+216546004+228494127+232855381+230792556
3844+226284569+221861979+218036075+217382587+220822437+224240882+226889096
3831+229931149+231516967+231021639+228649351+222958489+219955865+223271074
3817+225980717+229872397+235637191+237425578+233049978+227520305+226442747
3804+224914474+223506456+227457725+231323912+234630817+239282694+242239814
3790+242964058+242474899+241299457+240759238+239623114+237823430+239918512
3777+244836708+246717720+243924445+240100121+240258113+243404739+246983277
3763+249020627+247695201+247401828+251273664+253757196+251835214+253409716
3750+268164380+286409731+307332041+339363326+365595255+375061258+372056701
3736+364465504+362221349+367456051+374684030+377949982+377459634+378368125
3723+382926783+389897529+397435065+404069684+408579659+412900520+425672349
3709+450048017+480158731+512671501+547377069+581105843+603995416+610382910
3696+604393380+590906375+571526868+551905551+540155630+534415492+526778623
3682+514207021+498728002+481615952+465765948+460894910+459206507+450898759
3669+447083186+450280983+450498044+445851946+439053815+430251074+420295838
3655+413288116+405354808+391178900+380131409+383236822+391163589+394768381
3642+394115711+392204227+389485629+386054791+382394182+375707759+364970605
3628+361562101+366716943+367654085+360131043+348417280+341561326+339468159
3615+336069614+333213294+332899873+333485578+335874626+339047005+339123150
3601+336231527+333577256+331556405+329558966+328175400+325634100+319663932
3588+314604001+314924334+315907446+314775725+312899916+311040644+309459360
3574+307992422+305161075+299364210+292261930+290004490+293123263+295754680
3561+296097979+295664526+294717963+292571134+290221774+288889826+287288679
3547+285109723+284394696+285209242+285489051+284491168+283423662+282997009
3534+282203366+280219175+277746532+276086112+275468652+275396949+275554254
3520+275657898+275762304+275925146+275507913+274099115+272516437+271774821
3507+271318383+270477043+270273118+270869507+270771177+269639215+268778885
3493+268969543+269048307+268081677+266904823+266302172+266186748+266401282
3480+266871173+267224543+267099308+266639507+266185485+265872769+265535936
3466+264935125+264272180+264120300+264508751+264882839+264862158+264288457
3453+263394496+262378608+261167992+260581433+261050580+261501871+261704607
3439+262082949+262199990+261921426+261700147+261469912+260966780+260610567
3426+260544141+260063734+259623740+260420727+261625973+261806485+261369408
3412+261170538+261131518+261048536+260986699+261017803+261159724+261104297
3399+260934914+261341147+261937647+262190384+262543215+262757861+262590875
3385+262558972+262723226+262823321+262793536+262782443+263007327+263560961
3372+264088880+264031465+263653104+263376658+263079662+263051512+263641825
3358+264253432+264344348+264562728+265269877+265528244+264954746+264252633
3345+263685899+263223719+263239996+263575919+263454623+262758511+261942478
3331+261242446+260705813+260341759+259794330+258663241+257397311+256531946
3318+255966122+255525719+254947614+253965803+252533816+250985494+249827667
3304+248641913+246927441+245294818+244106314+243398348+243508718+244064210
3291+244589973+245079857+245021178+244411319+244403998+245375050+246419869
3277+246870435+246817945+246751685+247274550+248378511+248972577+248387504
3264+247656999+247538193+247662313+247945652+248502817+249171745+249539478
3250+249329496+248584517+247873521+248145285+248922391+249193113+249175517
3237+249039524+249126074+249876553+250611611+251068476+251724082+252393233
3223+252877543+253260809+253621240+254058150+254288478+254315420+254781632
3210+255850048+257103789+258393819+259657650+260652096+261441168+262202090
3196+263099692+264382122+265802645+266839344+267405818+267780537+268321537
3183+268955905+269486592+270552667+272346460+273804163+274333215+274333884
3169+274416736+274888169+275550742+276121378+276882282+277993099+279074819
3156+280067054+280775522+281052730+281248089+281435718+281690870+282464092
3142+283787623+284371024+283424275+282295806+282324402+283037199+282884298
3129+281763930+281353591+282332986+283180086+282402367+280987474+280863707
3115+281918856+282165257+280862704+279286957+278506023+278023572+276388180
3102+273918677+272424053+272806763+274203131+274326451+273014032+272810758
3088+274712041+276147001+274909499+273036459+273037964+274599441+275594686
3075+274877447+274077338+274762265+276184348+276499628+275452914+274477830
3061+274433867+275104338+275269447+274451296+273729747+273629039+273778837
3047+273723392+273294584+272677329+272007490+271218789+270197847+268748264
3034+266920096+265492959+264940978+264486064+263524097+262692456+263243155
3020+266912515+272959033+275868474+272827573+267633154+263561537+260726605
3007+258576060+257179172+256810900+257110813+257422320+257600510+258124954
2993+259733051+262709365+265996704+268250279+269603279+270694996+271756500
2980+272752990+273192668+272936420+272231389+271305562+270649454+269991842
2966+268661120+267108376+266267166+266399833+266458177+265669068+264934289
2953+264757660+265042039+265706768+265967067+265652847+265299235+265177493
2939+265449424+265257577+263835735+262174293+261416882+261752322+262260805
2926+261820365+260811445+260120164+259821124+259608522+259344080+259096230
2912+258854865+258915922+259565414+260113772+260084711+260122152+260619300
2899+261427139+262235740+262414153+261993650+261778075+262147611+262914311
2885+263601691+263919924+264069593+264266828+264512430+264562672+264202948
2872+263854520+263918011+263939397+263562243+263126876+262930495+262917935
2858+262907511+262929362+263009482+262742587+261964571+261100730+260547337
2845+260478086+260879246+261448098+261924455+262441318+262963272+263293602
2831+263784173+264648609+265485062+265988825+266173073+266190817+266236824
2818+266409198+266543314+266484079+266429321+266589581+266921508+267345820
2804+267857536+268427336+269096227+269841560+270401345+270698879+270900834
2791+271035211+270923391+270600252+270523309+270899441+271335031+271414446
2777+271237649+271053123+270836377+270607647+270441330+270298518+270173469
2764+270156691+270252345+270306731+270318474+270473401+270815102+271096621
2750+271108289+270998885+271067913+271300155+271274309+270885821+270452925
2737+270177724+270154387+270274252+270408907+270577918+270621676+270411880
2723+270164736+270194113+270433917+270483082+270275942+270122168+270143052
2710+270316059+270494527+270280811+269717366+269352494+269311951+269201432
2696+268878014+268720504+268903414+268998455+268629941+268061294+267713126
2683+267536943+267363212+267178667+266958837+266631536+266089608+265373224
2669+264787668+264570272+264532646+264334091+263909575+263452858+263219799
2656+263203057+263055804+262726979+262691453+262971262+262994079+262688015
2642+262419151+262349900+262474243+262597378+262517536+262403580+262450887
2629+262593198+262789783+263013273+263241706+263537011+263926855+264338718
2615+264581030+264700412+264985238+265415291+265847834+266333723+266826337
2602+267207393+267547274+267897652+268255668+268708780+269253068+269804250
2588+270253906+270456585+270449395+270488544+270749456+271181944+271633272
2575+271914734+271949109+271973190+272260394+272626845+272721105+272624057
2561+272595554+272592321+272387654+272149392+272304356+272686378+272864140
2548+272850521+272830713+272923971+273159910+273412182+273625174+273861485
2534+274081853+274248096+274319428+274289216+274287079+274297874+274339793
2521+274554290+274866169+275121692+275281989+275433813+275667170+275993598
2507+276372888+276656878+276759685+276826428+277048450+277422055+277761675
2494+277965339+278241859+278756938+279318544+279804544+280203103+280471856
2480+280664353+280746871+280708297+280690478+280722270+280648485+280368379
2467+280081491+280080544+280257675+280236827+280041357+279957000+279996540
2453+280009899+279969783+280095148+280480645+280840685+281045260+281291140
2440+281667625+282051747+282353964+282557145+282583195+282424701+282281238
2426+282291198+282380832+282501514+282669559+282859994+282977518+282919267
2413+282829001+282918115+283136365+283418942+283757541+284095823+284412980
2399+284754049+285439905+287143377+291000496+298908459+313004600+334503882
2386+362776655+395452119+429972956+465224354+501165509+538012072+576862650
2372+617991870+658864861+696746933+730270983+756125164+769716594+772716134
2359+768553731+751836858+721093763+685048295+652109392+633610468+638957659
2345+662900468+678061606+671030844+657279991+646925861+643321032+647665007
2332+654211255+654762586+650049670+645414125+641798073+635788290+624818838
2318+608970878+592166601+583825258+586949922+589577957+579159129+556425226
2305+530895020+511598124+499362983+489172923+478094550+465069613+449324145
2291+432637372+417563007+404435429+392990865+383696178+376542707+371046313
2278+366673464+362782044+359145701+356041328+353581189+351476799+349525998
2264+347851456+346485097+345162959+343811241+342701557+341872703+341057897
2251+340179470+339362545+338616488+337898970+337319992+337075059+337105049
2237+337005641+336594894+336213764+336240557+336450223+336396079+336270695
2224+336365681+336506449+336581924+336712993+337005493+337490081+338097562
2210+338659298+339100778+339612532+340400322+341293576+342062079+342830991
2197+343674784+344477773+345258390+346066805+346862436+347678915+348569866
2183+349504704+350467117+351349483+352030693+352731711+353770082+355001508
2170+356065706+356981221+357894394+358719977+359338682+359780014+360280172
2156+361018649+361812162+362531351+363339431+364245024+365102157+365998571
2143+367308519+369113721+370956753+372672098+374475999+376314721+378034153
2129+379691675+381348936+383071936+385031173+387084726+388896245+390552577
2116+392410363+394517094+396675666+398911869+401206638+403433959+405807474
2102+408507566+411259312+413959850+417017399+420426795+423798547+427220615
2089+430946331+435089670+439786494+444993957+450479352+456216034+462201736
2075+468305315+474616665+481432522+488921970+496580133+504041339+511859148
2062+520180311+528547667+536772024+545115151+553883518+562725390+570932208
2048+578413406+585788694+593449718+601090489+608076212+614552373+621113152
2035+627255231+632827324+638650332+644727006+650443435+655719796+660870996
2021+665721930+670194483+674819995+679603666+683885432+687497545+690798912
2008+693694771+696410248+699764905+703521205+706836099+709409098+711072379
1994+712075149+713718809+716508758+718927461+720253018+721353597+722687255
1981+723984940+724929069+725646883+726404832+727050256+727286158+726919744
1967+726456710+726885184+728033033+729074600+729739497+730123228+730625282
1954+731396312+731882832+731863805+732082911+732725807+733160822+734395778
1940+737302339+740202286+742260596+744048666+745911803+748288068+751459741
1927+754641894+756545165+758263594+761681798+765938665+770958165+777476022
1913+783512115+787417285+790902305+796234482+802741637+808991633+814801858
1900+820096502+824723277+829616724+835902618+841594000+845287125+850095397
1886+856703780+862308204+866146929+868914060+871451606+874247203+876691548
1873+877187954+874552375+871847155+874106063+878936856+881220588+880795013
1859+879726169+878202764+875636455+872628144+869472005+865505444+860303035
1846+853887744+849748159+850539776+850591208+846813949+842418022+838486913
1832+832062927+824292647+820707068+819336472+816520584+814390850+812912262
1819+810667995+808273224+805492789+801248333+796966344+795188456+794851028
1805+793259915+789489196+785290077+783502082+783300814+781245997+776719336
1792+774542852+777823929+781370712+781916394+780844652+779531136+779082372
1778+779767261+778536690+772951813+767064218+768220020+774029130+779284382
1765+781713863+780624134+779770457+780987501+782440893+783798855+782521014
1751+778045487+775865659+778393023+782024163+784035128+784146911+785092006
1738+787303347+785567080+782116695+786639640+795206740+802434087+806924330
1724+808769629+808632057+804342190+796352805+794810596+804321899+815604252
1711+822634420+823613035+820940220+820611785+821057279+817306702+816634968
1697+823838309+835243147+847687842+854875798+856961533+855914541+849991122
1684+848522865+861159537+873906803+879328242+880694602+883763560+886580339
1670+888143507+895983502+906412549+911147390+914203193+920650368+925866750
1657+924729306+915393703+909686714+919877629+925788488+926803149+936701454
1643+949482313+955443860+953499637+944203351+939151373+949852592+961741869
1630+966162917+967030345+967903495+968421900+969855002+970817340+968451852
1616+968828151+976116815+981912844+983110936+982426196+982627760+985282217
1603+989947343+993812230+994405924+992845060+992673076+994858850+996934552
1589+998120826+999437687+999912761+999313641+1000546442+1001706109+997507362
1576+995651583+1002543584+1005026800+1002095414+1004794539+1010825133
1564+1013491482+1009584454+993703272+981000228+993130462+1008962145+1020620945
1551+1029233159+1034750625+1035726861+1031008817+1022216518+1013326707
1539+1019683283+1037120052+1045627321+1047485478+1052812750+1057166833
1528+1055432349+1051151773+1046492742+1044013762+1046875953+1048426337
1516+1049320223+1054155178+1057601698+1053763048+1041779231+1037506756
1504+1053904559+1068138663+1070486462+1066558772+1066758702+1072847268
1493+1073741823+1065187284+1059476801+1065580900+1072665324+1073122635
1481+1070267505+1067336789+1062166859+1054285838+1049146976+1052899262
1470+1059533658+1058936694+1051958627+1046621247+1042929385+1032681909
1458+1016726330+1011722290+1018199715+1021302787+1017794430+1010137196
1447+1004217642+1001422639+997589786+990143408+977597187+963167911+955848997
1433+951805586+944306587+937910025+936874627+938630664+938845235+934227305
1420+929934242+937290763+952036954+963569925+970749037+974578025+975070269
1406+975640774+979638254+984474695+987661381+989493228+991134732+996868924
1393+1006780904+1012997380+1012448503+1010985746+1012769505+1014828187
1381+1016549737+1019105493+1021096689+1023312787+1027827780+1031039290
1369+1030253247+1029266753+1028904576+1027468129+1028152275+1031318969
1358+1033794455+1035344765+1035099870+1032336157+1029542418+1028058331
1346+1025574445+1021373915+1016432009+1010254404+1004828282+1002523442
1335+1001238020+999212636+997540064+997990166+1000724521+1004267959+1007573860
1321+1009422726+1008947206+1008572542+1010984333+1015136777+1018482292
1310+1020428820+1022183296+1023752855+1024216856+1024725450+1026878299
1298+1029777206+1031377015+1031897427+1033946075+1038144376+1042200793
1287+1045504910+1049773596+1055105253+1060089671+1063776479+1065520178
1275+1066048766+1065883694+1063831553+1060827479+1058268378+1054477295
1263+1049186664+1044674719+1041380338+1038630896+1036452480+1034443372
1252+1031965507+1028942406+1025784112+1022962947+1021299815+1020492886
1240+1018292916+1015258444+1014142331+1014593696+1014856206+1014339213
1229+1012829335+1010302194+1008250202+1008734121+1010912091+1011762127
1217+1010930152+1011017259+1011972462+1011846261+1011485496+1012088258
1205+1013326484+1014115277+1013634034+1012880767+1012541481+1012128392
1194+1010889646+1007603069+1003748067+1003134900+1005113535+1005322384
1182+1003364336+1001967801+1001181609+998922478+995170562+993074199+994037504
1169+994517335+992429073+990239880+988952823+987363344+985240819+983421608
1155+982567707+981595781+979201902+976502107+974911811+973885852+972065823
1142+968793739+965846746+965011798+963975508+961348996+959430563+957491839
1128+952933219+947644818+944471361+942632454+940726358+938391789+935518227
1115+932667779+930206117+927963485+925755711+923736272+921337116+917343873
1101+914321813+915355576+916794475+914165808+908960724+904717680+904053601
1088+906462345+908250713+907950001+907688383+909786456+912697254+913352860
1074+913007925+913121863+913952946+916453257+918640740+919506681+921760090
1061+924664347+925620145+926188644+927377817+927807629+927907594+928152563
1047+928444431+929603131+931105652+932444958+934783912+936210771+933830121
1034+930274345+928511173+927759319+927412229+927815210+928048957+926793413
1020+925528282+925667415+925583058+924571666+923251313+921408243+919263867
1007+917735780+917249482+917476763+917731618+917443615+916636092+916221145
993+917603781+920242779+921675584+922060876+924058612+928839014+935455646
980+942298668+947928213+949698743+945815424+940091786+937037544+936427126
966+936837019+937081617+936221102+935680772+936113482+935718082+934313371
953+933140698+931636023+929126050+927303643+927446195+928485012+928612848
939+927275102+925885033+924377757+921578964+919124882+917870231+916474216
926+914500040+911498642+907302793+903244815+900314841+897926982+895149148
912+892872774+892275809+891205851+887717040+884139413+882350525+881039239
899+878316925+874228548+871549044+871749717+872335236+871821142+871968153
885+873533922+875962437+879131434+882858748+887469172+892566710+896436577
872+898483961+898603696+897899928+900708160+908294118+915794306+920969438
858+925963370+932305378+941272932+952834443+965245842+976104032+983649409
845+990181016+999491497+1009818275+1016245755+1021099811+1027496372+1031912143
831+1034423751+1036724206+1037599437+1037778705+1037843515+1037366062
820+1036680801+1036834873+1037476878+1037440757+1037394230+1036392724
808+1033220605+1030870650+1030249010+1027830455+1024443914+1023712870
797+1024138519+1022383969+1018950232+1016008515+1013111244+1009334802
785+1004401443+997238163+989932181+985656361+982566890+977122856+970159207
772+963995426+958849429+955052028+951746424+947529468+943692230+942285215
758+942751594+940868242+937316776+938119394+941837492+943259222+942460693
745+941113434+938290040+932991680+928133239+926080950+925576889+924896905
731+922306663+918145375+914669200+911783746+909394772+909382731+910842218
718+910747233+908997662+906596796+905387259+907801651+912736942+919207381
704+928253346+937501841+942827553+943406903+942113454+941895836+943297573
691+945699108+946798796+945440166+945452429+950238033+956533663+958062865
677+955922205+955951786+958267403+957892219+950836261+943107752+942882552
664+943721290+944118846+946704405+947954077+945405977+943994057+944755351
650+945733817+947407578+945649014+941633697+942362437+943860647+943070218
637+946006658+951629885+951124413+941410504+931848216+932480187+934493011
623+921371453+903320327+899113405+909734429+928367432+942509598+941782121
609+934025146+927908709+928299501+938805993+953604136+962385360
##END=
