##TITLE=Sample description
##JCAMP-DX=4.24
##DATA TYPE=INFRARED SPECTRUM
##DATE=13/9/2023
##SAMPLING PROCEDURE=Instrument type and / or accessory
##ORIGIN=Default
##XUNITS=1/CM
##YUNITS=ABSORBANCE
##RESOLUTION=4
##FIRSTX=4397.6552
##LASTX=599.8556
##DELTAX=-1.9287962
##MAXY=1.7292362
##MINY=0.3453021
##XFACTOR=1
##YFACTOR=1.6104768e-009
##NPOINTS=1970
##FIRSTY=0.36014462
##XYDATA=(X++(Y..Y))
4398+223626087+224094660+224035702+223620055+223350618+222943020+222421449
4384+222498265+222944704+223433651+223946229+223927187+223509060+223392569
4371+223368753+222998777+222776454+223359260+223654363+222922424+222972092
4357+223574606+222627802+221275732+220931645+220696720+220681879+221409766
4344+221980931+222047550+221907243+221547186+221610992+222235342+222124439
4330+221297198+221221326+221476773+221101375+221119344+221620818+221395035
4317+220652752+220263900+220706028+221952859+223407799+224326827+224265630
4303+223750184+223288459+222411438+221235390+220646848+220712135+220884253
4290+220600826+219376313+218230373+218961702+220938473+221774060+220968507
4276+219989781+219591215+219649802+219754376+219411140+219074695+218934351
4263+218821377+219502315+220968655+221996346+221542504+219792330+218729887
4249+219975347+222065463+222363121+221213277+220440681+220069743+219682742
4236+219393338+219050935+218502975+218124542+218529733+219488714+219998386
4222+219816054+219774121+220485519+221490264+221665305+220742595+220157587
4209+220666001+220961568+220358592+219547468+218995437+218785125+218814160
4195+218863273+218923026+219374462+220096446+220041226+219086169+218587914
4182+219204732+219826713+219600671+219099326+218610046+217825256+217004584
4168+217131900+218516428+219845052+220118412+219417358+217987510+216869921
4155+217167116+218184851+218657383+218955984+219594268+219740164+219151122
4141+218539634+218044729+217383720+216950437+217270653+217515885+216956563
4128+216459289+216864480+217765724+218156278+218109016+218291756+218455694
4114+218634917+218923082+218494185+217408961+216883115+217305332+217817058
4101+217688854+217153514+217128569+218033255+218703535+217990434+216574244
4087+215733475+215761621+216180636+216990686+218112661+218267569+217253091
4074+216671322+217031546+217524120+217855753+218103205+217830012+216899640
4060+216155599+216141609+216642195+217382610+218087346+218489910+218514578
4047+218356950+218323103+218581419+218940736+218817713+217866338+216617786
4033+216171013+216894755+217879458+218046579+217308163+216499186+216208709
4020+216377014+216775433+217155439+217598677+218352508+219220054+219732280
4006+219504684+218562969+217741760+217780732+218124338+218204207+218320772
3993+218465205+218425956+218593836+219352164+220209754+220671627+220964029
3979+220939546+220534318+220429856+220692630+220677068+220254592+220211882
3966+220697664+220561965+219852435+219701562+220118504+220382797+219948071
3952+219319132+219513474+220522715+221503106+221879726+221849062+221794675
3939+221840661+221827892+221420425+221055112+221349438+221641100+221409618
3925+221534972+222195333+222204900+221838792+222601598+224526554+225658448
3912+224820862+223129868+221384839+219165834+217421360+217480521+219172736
3898+222133378+224508271+224048581+222106119+222289599+223126112+222547008
3885+222247148+222030248+221791048+223099834+223465961+221769564+220133197
3871+219778303+221823507+223729143+222886505+222910100+225370321+226065379
3858+223147245+217577692+214409866+219399630+225523804+228152997+227032558
3844+223819782+221069324+220084862+221214701+223407836+224849231+225713594
3831+226695003+227454663+227583201+226151318+222534183+220807493+222835560
3817+224565822+226587931+229060977+229671781+227906969+225746644+225212545
3804+224326512+223783974+226055035+228320044+229811199+231482171+232640657
3790+233080028+233298926+233430425+233724011+233907806+233447561+233713926
3777+235448130+236973187+236818279+235569598+235751061+237709345+240277545
3763+242005901+241636813+241844146+244740630+247064763+247081270+250160826
3750+262357193+277409165+296865579+324150874+342435348+346933093+342377760
3736+334130919+330099692+331006117+332758900+333722174+335612674+340262606
3723+346664471+354421551+364063023+373954798+381558470+388013851+398130206
3709+412583348+429186174+447881983+468936698+488695895+500005915+502356049
3696+500597788+496346015+488716843+480010554+474594761+472000876+468380652
3682+462921890+456466842+448167964+438025590+432081547+429456314+424493198
3669+420848509+419568684+416382038+411130424+405224205+398830631+391946334
3655+386298967+380773735+372178699+363604611+361401964+361999500+360313928
3642+356466125+352444373+348283386+343499254+338633994+333489415+327373272
3628+324530010+325328994+324031848+319202118+312829233+308878059+307605377
3615+305970769+303771842+301116501+298171201+297024873+296651825+294309075
3601+291134920+288829440+286298991+283892490+282998944+281845029+278384505
3588+275095598+274831528+275170008+274536350+273309580+271380349+269229943
3574+267833997+266604062+264133515+260839427+259178800+259243328+259238054
3561+258934235+258412275+257547875+256212015+254536510+253068635+251602757
3547+250185290+249607296+249618085+249437936+249006911+248509489+247916987
3534+247229516+246251123+244952904+243815606+242929185+242209052+241810522
3520+241657188+241484348+240931744+239811304+238583997+237946490+238011981
3507+237977616+237190420+236471435+236482408+236375411+235772379+235305565
3493+235218257+234949708+234191640+233487273+233251127+233241708+233245539
3480+233216300+233031044+232762255+232637326+232717065+232782962+232460101
3466+231773425+231198799+231037322+231270100+231837009+232394722+232370406
3453+231879553+231385073+230873310+230370873+230005542+229827632+230064259
3439+230550874+230926605+231211420+231259626+231075443+231008380+230983509
3426+230833098+230467952+229740546+229338445+229983854+230828305+231086731
3412+231371491+231938437+232304638+232612344+233210453+233606725+233323650
3399+232966054+233160711+233677267+234306613+234918860+235229249+235261485
3385+235015032+234716634+235060074+235973772+236583188+236474821+236178644
3372+236490736+237444165+238374314+238812871+238811372+238716125+238780542
3358+238789980+238655169+238863186+239408741+239616166+239329686+239083769
3345+239103218+239015207+238663403+238197940+237946972+238177825+238208599
3331+237540781+236940969+236909751+236860082+236026235+234668724+233583427
3318+232821490+232184428+231474158+230515510+229537913+228624178+227841312
3304+227077266+225519622+223551289+222899977+223571867+224193848+224420186
3291+224519985+224452663+224150749+223898689+224266518+225317525+226138919
3277+226308280+226363610+226357504+226403119+226572313+226398622+226373011
3264+226980780+227613475+227907802+228159825+228650955+229059571+229085792
3250+229056832+229250693+229613063+230168907+230772752+230860541+230608629
3237+230839186+231488148+232019120+232457825+233121516+233942003+234436668
3223+234627809+235017401+235408232+235693676+236635391+238095643+239019019
3210+239405040+240137627+241335492+242321749+243021415+244010171+245292809
3196+246378051+247339030+248387743+249263042+249837724+250374007+251188609
3183+251963240+252420265+253126149+254016475+254597004+255120019+255794832
3169+256586766+257529924+258493402+259209575+259568299+259948972+260946517
3156+262372145+263335123+263472876+263411994+263996483+265088924+265776673
3142+265716993+265549354+265939723+266381832+266013559+265202472+264935090
3129+265501851+266242932+266315620+265963446+266020091+266292193+266010802
3115+265089054+264078462+263419248+262940165+262355398+261605657+260623156
3102+259579366+258817041+258471233+258301650+257895496+257508125+257710499
3088+258412922+259158907+259637213+259970993+260432977+261088286+261809677
3075+262172973+262203340+262252564+262273568+262336967+262422646+262262557
3061+261952409+262064828+262798729+263297206+263098922+262736570+262494965
3047+262310264+262010885+261255370+260003063+258816930+258043039+257271831
3034+256250580+255154624+254012219+252839761+251775282+250928592+250331852
3020+249989449+249822291+249383660+248464466+247606912+247110249+246687533
3007+246224013+245912569+245745152+245487244+245222378+245391868+246454626
2993+248641117+251603479+254523298+256883609+258676049+259956022+260772123
2980+261151204+261195839+261029513+260490362+259530567+258384239+257423889
2966+256865622+256341960+255624269+254873047+254175380+253776887+253620073
2953+253243565+252806137+252889800+253482339+253938068+253850483+253486724
2939+253102055+252670290+252278737+251928709+251527774+251051152+250398674
2926+249777138+249529981+249421448+249025379+248412836+247908900+247541885
2912+247327261+247579136+248244290+248724964+248859960+249031319+249201512
2899+249290171+249651709+250272431+250806845+251174934+251521908+251911851
2885+252325333+252854991+253437352+253832736+253961792+253926854+253866841
2872+253797576+253683158+253540464+253368383+253168878+253069578+253119191
2858+253117600+253009621+252808025+252288711+251379806+250445974+250031844
2845+250258793+250734823+251233503+251849562+252520064+252954550+253198838
2831+253698388+254453033+254936539+255025846+255076402+255234585+255465253
2818+255820129+256243826+256600571+256905926+257368577+258055956+258636892
2804+258973817+259355415+259939997+260575782+261100407+261551825+261941120
2791+262325864+262790642+263025807+262958744+263045164+263239007+263124126
2777+262856355+262651409+262390762+262164923+261959274+261675107+261600568
2764+261890990+262275899+262363559+262133760+262040882+262274327+262563101
2750+262716085+262743694+262685440+262514932+262138072+261707177+261536077
2737+261559357+261568683+261645573+261898725+262203599+262418927+262529625
2723+262536121+262472018+262361764+262181782+261961032+261875723+262038014
2710+262180634+262098193+261997617+262063422+262176489+262118956+261888602
2696+261633711+261512427+261660062+261913066+261926649+261679622+261377616
2683+261118191+260829027+260367783+259881242+259596150+259350529+259020340
2669+258741743+258554599+258336773+258004381+257578667+257107190+256802056
2656+256795098+256744505+256420588+256121155+256079462+256118804+255997206
2642+255702917+255412883+255316323+255365214+255327741+255244763+255339788
2629+255516402+255598158+255694904+255869686+256081072+256438946+256845211
2615+256999674+257056837+257381346+257964743+258626325+259176450+259449385
2602+259596594+259890976+260369375+261031327+261809178+262458954+262843530
2588+262996662+263121535+263470434+263961268+264386445+264821504+265310839
2575+265682333+265901176+266097332+266305831+266459629+266526803+266530263
2561+266469399+266281793+266026938+265960874+266181716+266517106+266683376
2548+266566941+266461738+266503838+266511277+266592830+266900757+267227857
2534+267426807+267672446+267943049+267974064+267993013+268279919+268501649
2521+268509902+268597673+268810354+268930287+268929417+269016299+269211808
2507+269353688+269533244+269882069+270276324+270586991+270742879+270790401
2494+271023179+271569769+272201077+272722426+273115496+273525740+274108046
2480+274602322+274657134+274404574+274117502+273928026+273862777+273819733
2467+273766346+273760424+273808390+273852969+273873047+273925880+274009727
2453+274027178+273966869+274072367+274441696+274759802+274902551+275112179
2440+275460393+275711565+275722280+275618909+275597887+275708586+275787492
2426+275788899+275903576+276164759+276341596+276354568+276439933+276662348
2413+276898919+277135805+277284643+277362329+277550250+277724458+277751365
2399+277944634+278443555+278875376+279053693+279137781+279156489+279072346
2386+278840586+278044248+276269629+273738125+270814494+267606493+264211681
2372+260549616+256676146+253121948+250019168+247330222+245601791+245171507
2359+246160984+248889772+253154925+258689946+264341089+267242735+266088505
2345+262956135+260987136+260507109+260954715+262457732+264435503+266091688
2332+267394941+269029938+271300813+273694045+275815213+278010050+280692668
2318+283549032+285981995+287939632+289862404+291973653+294078721+296021720
2305+297913422+299785231+301465103+302922635+304198463+305411169+306741477
2291+308061902+309273240+310446456+311519725+312376890+313050445+313812825
2278+314702337+315438625+316006626+316662712+317542860+318453394+319231578
2264+319942625+320546563+321033918+321528453+321992603+322314595+322630147
2251+323168465+323824403+324386483+324905149+325326995+325519820+325636996
2237+325802544+326012431+326341455+326772072+327094323+327255208+327510803
2224+327922101+328274405+328513234+328651098+328734335+329035453+329616260
2210+330207133+330719434+331166669+331562830+332038490+332657232+333372387
2197+334078845+334712540+335327507+335978560+336650931+337314086+337943895
2183+338616488+339545231+340693890+341756648+342504521+342950757+343547145
2170+344650837+345923630+346924063+347723047+348584171+349596521+350727490
2156+351858495+353005823+354248859+355394114+356403503+357574850+358982325
2143+360332877+361449486+362617687+364110989+365697076+367076904+368264869
2129+369417896+370781920+372395321+374014126+375664427+377431422+379098267
2116+380676656+382431808+384305504+386123056+387953265+389928445+392175578
2102+394554764+396769106+399008763+401575890+404352163+407168925+410169519
2089+413468270+416851443+420311264+424098369+428231560+432514903+436753315
2075+441008086+445513789+450369537+455491206+460737379+466160832+471885626
2062+477810979+483896958+490325840+497014870+503648383+510319907+517311053
2048+524393431+531196897+537980414+545054649+552094206+558911477+565706060
2035+572648205+579854642+587016999+593731455+600115591+606458312+612817763
2021+618857331+624322384+629570259+635240943+641373222+646952416+651426401
2008+655628431+659825947+663474226+666930272+670586619+673983374+676853913
1994+679200530+681157501+683204037+685487884+687635533+689522997+691420677
1981+693260916+694797150+696079714+696894760+697104314+697273378+697676646
1967+698021362+698283027+698411231+698326625+698429440+698920644+699566257
1954+700069748+700224749+700332005+700663176+700710253+700370422+700762438
1940+702271951+704006339+705684694+707465420+709522615+712221129+715171907
1927+717502314+719590153+722605626+726681969+731662183+737663446+743629770
1913+748613464+753138152+758449908+765060586+772025381+778522955+784576031
1900+790435765+796198827+801688974+806944917+812150008+817385522+822645314
1886+827850183+832990654+837747473+841756531+845086815+848083708+850840698
1873+852696704+852869617+852023852+852115194+853117440+853680445+853029133
1859+851035892+848711259+846806103+845257212+843809432+841600642+837790109
1846+832251331+826966963+824049717+821600876+818454017+815076433+811085585
1832+806064510+800658896+796775452+794093075+791174126+788819736+786954182
1819+784587949+781909939+779364057+776885015+774505236+772748863+771775189
1805+770884715+768979486+766082151+763982172+763108501+761941484+760095249
1792+759310551+760719913+762128461+762233867+762175687+762199596+761774418
1778+761437844+761011409+759618183+758237689+759423063+762012544+763734720
1765+764294837+764400021+765789398+768143121+769985951+771593024+772068017
1751+770305426+769015608+770982719+774002411+775936731+777129877+778714447
1738+780522191+780651728+780125734+782944162+787520295+791573174+794517882
1724+796536956+797987030+797629804+795599330+796924086+802952736+808804920
1711+812698653+814788195+816096296+818521894+821229883+821882527+822931110
1697+827650104+835325798+843274926+848493267+851826808+853856689+852956740
1684+853284062+860885512+869067214+873370432+876147778+880633014+884532891
1670+887232959+893302024+900879418+904998175+907584695+912667873+918049653
1657+919793220+917341049+917465922+924320870+928416236+929911093+934040731
1643+939641835+944209012+946499003+944169041+941701399+947212863+954151825
1630+956932428+956861664+956524127+956749374+958642316+961983111+964030017
1616+964366295+966700773+970725227+973610940+975470499+977070613+978486933
1603+981458955+985812137+989048044+990659188+991268826+991206352+990930327
1589+991369421+993576434+997346996+1001363900+1004249761+1004427856+1001539330
1576+999851797+1002431210+1003948421+1002786364+1003761814+1007422676
1564+1010375971+1010248507+1004262641+1001014668+1011830412+1022372204
1553+1027727039+1031867484+1036939041+1039874423+1038663733+1035615100
1541+1033617936+1038787867+1048522236+1052537437+1050581800+1050412365
1530+1053108584+1055121885+1056597940+1056642945+1053633394+1052478739
1518+1056801350+1064024627+1069540310+1069353555+1064074739+1056133235
1506+1052606647+1060079893+1067452989+1070128112+1070398807+1069855270
1495+1070130333+1069895094+1066435643+1063877621+1066781839+1071262190
1483+1073714509+1073741823+1071805505+1066805822+1058692590+1052631222
1472+1053671885+1056840877+1056140786+1052525890+1050081491+1048864066
1460+1042956884+1027626519+1014310490+1015124204+1018658342+1016600333
1449+1009233233+1002509451+999844839+997493336+991515316+980350193+965674692
1435+956460469+953380969+950217232+947079699+943942462+939877444+937781166
1422+938215596+939681584+944819982+952009357+957172404+962325607+968397633
1408+970713976+970546984+976415970+987165391+994021523+996352522+999168286
1395+1003551594+1008339502+1011918793+1012516884+1010591817+1008999474
1383+1009780841+1012640869+1015672626+1018208960+1022280787+1029256167
1371+1035265202+1036299573+1034954905+1034871483+1035425754+1035897860
1360+1035956411+1034498047+1031964230+1030071954+1029733012+1028660742
1348+1024641099+1020278220+1017347354+1013683531+1008504347+1002954466
1337+998304163+995978716+995480553+994958334+994512431+995405200+997824210
1323+1000811850+1003050249+1004693592+1007073445+1009548933+1011181469
1312+1013613433+1017352017+1020453206+1022969480+1025759040+1027644210
1300+1028854381+1030231470+1030688180+1030864720+1032049650+1033632148
1288+1036057820+1039668866+1042648734+1045079588+1049049192+1053647976
1277+1056537539+1057707591+1057465986+1056305334+1055320409+1053674180
1265+1049990593+1045088840+1040555343+1037110252+1034301077+1030788775
1254+1026630416+1023147871+1019949640+1016809887+1014873198+1013620465
1242+1012383054+1011153933+1008873046+1005959353+1004033250+1003100805
1231+1002598054+1002600423+1003351515+1004616536+1005129872+1003962411
1219+1002511301+1002084199+1001694996+1000183263+998869758+1000744047
1207+1004580784+1005689176+1003412804+1000672617+999949282+1001062338
1196+1001669163+1000745379+999498716+999176798+998990931+998436291+998103640
1182+996696054+993961196+992627854+993174574+992674783+989885667+986807203
1169+984843053+983215476+981477016+980073576+978989907+978233781+977025090
1155+973938706+969679975+966904849+966823278+967129503+965029894+960820757
1142+956642709+953535969+951391651+950662691+951167441+950917990+947989789
1128+943509216+940608329+939480543+938370744+936700384+934137403+930418286
1115+925224298+919552430+916982342+918046470+917899686+913722526+907978784
1101+904235314+902687902+900604726+898186234+898265436+900773716+902886279
1088+902636976+900423818+898799869+899384414+899777170+898842727+899777318
1074+903455205+907033386+909352468+911193225+912444922+913007112+912909256
1061+913305491+916162929+919643994+920591982+919325851+919159155+922540292
1047+926087310+926081610+924719326+923322917+922129105+924086519+928040653
1034+930081860+930573434+930364990+929816198+929211297+927075936+922977979
1020+918278304+915248546+914764818+914397969+912464093+910550499+909758325
1007+909124927+908325499+907598167+906961363+906991490+907914755+909054459
993+909955740+911500708+914895465+919315710+922992043+926299454+930450263
980+934701814+937810775+939443162+939558265+938751509+937232151+934355321
966+930690683+926902801+923187607+921280008+921722877+922491216+922280108
953+920996360+919296020+918600518+919043979+918997197+917843652+916315190
939+914637353+913076470+911719737+910532512+910190091+909272155+905297369
926+899996124+896200765+893084180+889615403+886886022+885299527+883675504
912+881280255+878978494+877026853+873964007+870130158+867822401+866837698
899+864790274+861706110+859597545+858168345+856605019+856566232+858111349
885+858681385+857851757+857451821+858344589+860330650+863189790+867148809
872+872452422+877017823+878888928+881199350+887078773+894490359+901333094
858+908941872+918734792+930430055+942786844+954825047+966261457+976487475
845+986065585+994787642+1000129154+1004183068+1010004681+1014617455+1017237507
831+1021066767+1025638311+1030038349+1034467032+1035090734+1029238847
820+1021161736+1018348638+1022602113+1027989666+1031705674+1034308923
808+1034520105+1033361379+1032043803+1029845450+1026806957+1023263344
797+1020283476+1019153247+1016859037+1010395735+1004363458+1002327581+999585321
783+992372703+984576355+979247722+973324330+965415766+958774147+954604464
770+951113850+947855958+944978461+942173283+940119123+937907150+934381080
756+931950671+931685823+931472346+930865743+930311473+930012502+931312313
743+932896661+930226275+923405303+918277416+917112323+917574289+917608117
729+913971311+907278840+902215796+897353052+892284382+893093803+899621281
716+904935553+907209334+908847866+910336134+911919668+914245708+917351042
702+920910273+924647377+927450039+927391192+926669930+927923774+928704327
689+927150327+924389784+923880222+929165922+937728759+941522341+937017638
675+930863300+928771316+926249712+920236385+920872892+928391809+932097899
662+933138266+933144483+931780200+931778498+935112779+940981543+949083377
648+956915551+959791568+957766572+949618179+937191514+931927280+937126301
635+943885466+944028030+941861876+943684498+943137630+939522365+938869721
621+936090006+933385200+940814403+949928920+950302504+951325920+955316177
608+957439324+961818932+963395582+953952782+943376793
##END=
