##TITLE=Sample description
##JCAMP-DX=4.24
##DATA TYPE=INFRARED SPECTRUM
##DATE=13/9/2023
##SAMPLING PROCEDURE=Instrument type and / or accessory
##ORIGIN=Default
##XUNITS=1/CM
##YUNITS=ABSORBANCE
##RESOLUTION=4
##FIRSTX=4397.6552
##LASTX=599.8556
##DELTAX=-1.9287962
##MAXY=1.7126127
##MINY=0.31500769
##XFACTOR=1
##YFACTOR=1.5949949e-009
##NPOINTS=1970
##FIRSTY=0.3365522
##XYDATA=(X++(Y..Y))
4398+211005188+209889401+208997757+208454625+207694056+207825840+208518882
4384+208038587+207256493+208355371+210268816+210403180+209483920+209423792
4371+210015188+210287408+209813802+209143425+208934771+208671164+208350531
4357+208494405+208117811+207012636+206517673+206477538+206364046+206622421
4344+206777711+206048682+204870263+203998724+204075594+205572385+207174728
4330+206583612+204314219+203126289+203691544+204161843+203629492+203517214
4317+204531636+205030972+204093793+202750498+201844916+201557224+202195388
4303+203772973+204800269+203970678+202537677+201749922+201554720+202149050
4290+202820622+202336515+201258826+200876888+201640185+203091535+203896910
4276+203060574+201050303+199322660+198988648+199698245+200538505+200770515
4263+200031845+199581501+200244049+200291191+199072413+198128209+197815386
4249+197936987+198622555+198783824+198438023+199421708+200973078+200667786
4236+199263783+198980389+199627709+199791912+199522906+199724927+199927191
4222+199454351+199343213+200005088+200162826+199398184+198508577+198191644
4209+198490808+198992946+199483480+199573448+199264942+199301022+199498148
4195+199655269+200387456+201159030+201013045+200349918+199615956+198734534
4182+198064680+197704883+197497612+197680406+198020882+198191326+198425896
4168+199008118+199721395+199778123+199147096+198556952+198329501+198717605
4155+199394185+199224732+198304332+198045584+198627170+199036687+199072263
4141+199001055+198917066+198967086+199109091+199089734+198915067+198894644
4128+198612820+197961296+198076377+198740214+198909368+198794643+198491480
4114+198004178+197996069+198414947+198572648+198603347+198884816+199254142
4101+199649757+200124373+200317855+200030331+199972483+200473238+200842770
4087+200778849+200599436+200849627+201777202+202848818+203327264+202983387
4074+202393841+201987818+201714813+202018181+202787438+202994168+202797285
4060+203180045+203898779+204183892+204076323+203831364+203359570+202722489
4047+202627458+203609480+205032186+205889150+205704114+204888611+204307249
4033+204075669+204128715+204621006+205238617+205881004+206746283+207267124
4020+206792547+206117330+206384450+206999164+206962056+206881207+207612179
4006+208713691+209157140+208784488+208474076+208605356+208981595+209597431
3993+210269228+210904925+211610280+212201826+212204479+211630423+211337686
3979+211766019+212629430+213324489+213300797+213081399+213394184+213975565
3966+214172672+214083320+214693158+215819185+216215118+215996318+215899586
3952+215791195+215557073+215869896+216551073+216768845+217222627+218376345
3939+219513358+220141731+219638790+218604095+218881809+219551102+218647668
3925+217930130+219141248+219728590+218665437+219232991+222629607+225303622
3912+225690867+225443628+224240769+220701064+216790669+216137408+219330881
3898+224042653+226641274+225294018+223174104+224539073+225687989+223996501
3885+223070067+222819820+223564843+227730174+229894895+227672662+224962081
3871+223277600+223909616+225701386+226376621+228728770+232636792+233767714
3858+230627623+223583621+219000177+225511062+233706297+237113227+235869280
3844+232404707+229283525+227355804+227823244+230940707+233993559+236437151
3831+238747203+239569227+238739636+236470224+232264308+231378495+235410622
3817+237984467+240890006+245519826+247209296+243819948+239605718+239268288
3804+238709964+238209545+241969115+245788552+248837311+252432398+254880905
3790+256068854+256226648+255504682+255737047+256500475+256827909+259179199
3777+263432144+266153768+265839525+264343930+265124678+268000434+271469379
3763+274144497+274711565+276045050+280096049+283057493+282459371+283948651
3750+295880866+310929050+329232929+359410166+386740720+400639932+404364095
3736+404829760+410189710+419861202+428532603+433653724+438274425+446809613
3723+458582483+471436500+484789253+497064262+505694705+512150526+523418007
3709+541327559+560409515+577682547+594046709+612965396+633690875+648903972
3696+655314836+655028360+650395550+646255499+647924211+651942436+653073396
3682+651815005+648890145+641721795+630685371+625789030+626745099+625904839
3669+627046823+630043283+628787509+623686232+618281960+613613014+609213953
3655+604926815+597081361+583295380+572161907+572939722+578002844+580055343
3642+578449637+573932974+567794460+561869927+556196219+548195344+536707942
3628+531908837+535597909+536511900+531386856+523284485+518799286+517978384
3615+514833378+509642526+505461555+503688807+505228256+506524539+504626789
3601+501672743+498603524+495122639+493553481+494409586+493919780+489213576
3588+484247503+484261741+485547860+484242234+481496525+479623140+478811654
3574+478014220+476049204+472043796+467393947+465971801+467504337+468316084
3561+468051991+467416032+465893474+463677669+461737018+460507028+459391540
3547+458469402+458808496+459816397+459942931+458696686+456232820+453662002
3534+452263511+451073059+448876761+447026881+446620597+446358597+445600887
3520+445318894+445479435+445231374+444538389+443749437+442561489+440831342
3507+439279673+437904015+436484337+435126131+433517959+432140209+431727946
3493+431863112+431181898+429012843+427015016+426384064+425838764+424375773
3480+422558256+421215559+420401644+419742815+419289594+418756401+417708291
3466+416724007+415615806+413615961+411589284+409975731+408096516+406088038
3453+404243689+402518363+400957912+399533113+398150132+397007064+396448460
3439+395997818+395207933+394503175+393750398+392743020+391873537+390656926
3426+388349191+385646532+384035670+383970459+384205291+383633944+382670401
3412+381825395+380919626+379865685+378834204+378135875+377809935+377276631
3399+376192309+374872594+373375074+371746274+370725368+370547488+370326707
3385+369212078+367417244+365865537+365079875+364735250+364128925+363120875
3372+362025566+361160791+360585147+359754192+358839678+358454209+358092245
3358+357423288+356717148+355946433+355018280+353893374+352667158+351622635
3345+350874230+350201536+349205145+347287476+344578577+342367705+341097767
3331+340224920+339291086+337900369+336322205+334846210+333402390+331985514
3318+330123377+327879059+325868077+323709859+321244573+319334677+317974753
3304+316451709+314740098+312972170+311488626+310789119+310620525+310563873
3291+310381209+309630562+308421387+307907347+308636880+309346383+308928738
3277+308119794+307889876+308014094+308011029+307443625+306055598+304896070
3264+304912045+305070923+304147851+302762721+301914090+301217199+300517057
3250+300550485+300725544+299679114+297738052+296323138+295917414+295703715
3237+295145298+294998528+295432971+295372861+294529425+293506296+292906379
3223+293078131+293628738+294007742+293819455+292885434+292034056+291963296
3210+292346804+292991844+293785560+294070468+293490619+292734591+292586625
3196+293035324+293841914+294799664+295530693+295845365+295675108+294864819
3183+293918073+293808430+294429162+294849422+294740882+294381889+294254065
3169+294489159+294617001+294605510+295005497+295809621+296316822+296264505
3156+296280013+296722789+297011041+296625702+296091445+296204806+296677385
3142+296852668+296882639+296852182+296342701+295542819+295102360+294857756
3129+294330692+293900005+293945167+294189715+294455320+294459450+293805983
3115+292872765+292290394+292082487+291849449+291290565+290713856+290420634
3102+290132681+290006483+290482742+291134416+291367229+291271170+291218217
3088+291659536+292636308+293481295+294035004+294743348+295562662+296261291
3075+296686765+296822455+297116872+297616731+297796368+297648084+297366727
3061+297049196+297035593+297220013+297299686+297419904+297556248+297554697
3047+297599859+298035291+298896908+299922765+300705009+300890494+301053015
3034+301761677+302372356+302552740+302696109+302892432+303273062+304111360
3020+305102313+305749652+306308536+307217687+308408439+309754686+311139349
3007+312581861+314703849+317854684+321432319+325085591+329195970+334464216
2993+341706110+350524225+359519024+368395137+377206973+385099401+391403276
2980+395999574+399289911+402204606+404938917+407004084+408525820+409811267
2966+410915283+412392361+414782796+417436948+419346209+420753369+422472866
2953+424454923+426356522+428144929+429601604+430516454+430986230+430729985
2939+428931376+425607407+422058397+418982040+415950191+413179444+411245034
2926+409761228+408204365+405963597+402270227+398075953+394726161+391226292
2912+386580030+381949015+378291146+375317706+372768637+370360116+367997671
2899+366439500+365857279+365433841+365134023+365552939+366614989+367953426
2885+369696092+371990224+374346390+376076088+376991088+377268484+376979728
2872+376321122+375668347+374649347+372461831+369527105+366798587+363963302
2858+360295568+355935185+351176851+345872768+340134112+334552894+329461744
2845+324868697+320792548+317158073+313752077+310518450+307799554+305906811
2831+304496343+302874438+300974127+299322550+298146915+297170610+296148714
2818+295216562+294384355+293558875+293075889+293011594+292987995+292990480
2804+293209934+293479221+293510743+293276957+292954157+292756657+292682628
2791+292434754+291781306+290921595+290243407+289681478+288869039+287830794
2777+287028278+286691501+286410144+285807257+285041082+284193816+283238681
2764+282541286+282222390+281906634+281447266+280979863+280664425+280415766
2750+280035995+279647462+279347233+278998479+278516278+278046614+277713518
2737+277289259+276734355+276478353+276647077+276710176+276387712+276164633
2723+276274332+276287393+275977298+275641437+275583645+275754724+275905287
2710+275897589+275884565+275992097+275993386+275742504+275422600+275164842
2696+275020445+275020445+274857008+274227140+273510892+273167575+272871307
2683+272278155+271733472+271356859+270838521+270231710+269744819+269282573
2669+268748054+268273140+267905141+267495493+266917382+266250144+265761889
2656+265520256+265267468+264771253+264288772+264227635+264290883+264088357
2642+263804814+263583697+263352098+263169546+263212222+263432405+263622132
2629+263759391+263879722+263990374+264154259+264365174+264580107+264879962
2615+265305137+265745820+266197229+266747088+267318061+267768648+268144551
2602+268524302+268862443+269228985+269709411+270234008+270721423+271029667
2588+271118495+271174102+271256857+271256353+271162648+271037141+270872808
2575+270719031+270637546+270523550+270279786+270005212+269851715+269744427
2561+269530241+269222146+268891180+268681218+268719821+268875410+268835163
2548+268534187+268270076+268243076+268403318+268654704+268956764+269151760
2534+269113120+269148341+269440965+269733346+269828994+269832152+270090658
2521+270664976+271241162+271736704+272200856+272489762+272587334+272760525
2507+273132578+273524625+273817436+274181960+274705044+275098847+275214002
2494+275292945+275585233+276043368+276394551+276571983+276727647+276943626
2480+277138042+277097981+276942392+277029464+277261231+277291557+277084603
2467+276971410+277189818+277508937+277681025+277668076+277449407+277211100
2453+277177187+277317828+277563198+277842481+278107134+278412464+278663944
2440+278732238+278725623+278721849+278647371+278458224+278290471+278385651
2426+278694139+278961931+279176994+279436135+279683449+279875025+280073533
2413+280251619+280366569+280477165+280595365+280786213+281096251+281410419
2399+281787070+282330987+282814197+283085147+283333862+283593638+283587771
2386+283024589+281583890+278940873+275138010+270640013+265886798+261082424
2372+256229432+251170719+245969870+241029844+236966551+234659395+234632059
2359+236533808+240019589+245147268+252147622+259684513+263813615+262201164
2345+257305645+254114637+253839652+255008691+256919391+258891750+260246461
2332+261319498+263232589+266014079+268671390+270996278+273789726+277462991
2318+281327888+284528967+286896250+288998713+291421079+294077325+296716212
2305+299232489+301376843+303149050+304889193+306595966+308072690+309380203
2291+310608754+311833512+313105954+314295920+315230950+315889219+316482689
2278+317228403+318039328+318686349+319150519+319589353+320081961+320611454
2264+321117142+321549100+321916445+322215254+322497396+322939705+323534109
2251+324049924+324433339+324707596+324896201+325107303+325344863+325648754
2237+326016996+326291216+326503887+326772053+327057446+327354760+327726141
2224+328070915+328318938+328596409+328874142+329086103+329355502+329710141
2210+330074348+330422485+330764456+331212893+331819779+332399796+332854586
2197+333343869+334004231+334738360+335374880+336025339+336876287+337764567
2183+338529564+339244224+339904138+340548916+341325648+342171139+342914873
2170+343643360+344573495+345649446+346737131+347809420+348765826+349667821
2156+350679122+351738482+352767048+353834516+355050343+356350961+357611146
2143+358930562+360259245+361403807+362591905+364135465+365888071+367467207
2129+368796862+370126741+371530388+372992482+374667807+376523256+378225861
2116+379751371+381493252+383453597+385359868+387346335+389496108+391554175
2102+393545163+395770311+398227076+400740793+403309369+406055153+409058302
2089+412211903+415486245+418989888+422670851+426402711+430262190+434486584
2075+438976006+443488222+448098647+452817668+457645660+462808933+468405510
2062+474310163+480394677+486522913+492680784+499175469+506171432+513355440
2048+520298077+526933085+533497951+540177504+547126157+554293162+561475115
2035+568543314+575356987+581984484+588581861+595206705+601850346+608175372
2021+613824042+619053460+624502650+630391719+636142035+641177242+645903476
2008+650715585+655107060+659070128+663037456+666620472+669702285+672774980
1994+675408953+677511079+680240495+683251380+685334298+686838357+688107212
1981+688828897+689592138+691099711+692754072+693949382+694768678+695040954
1967+695016365+695209791+695317042+695418016+695767648+695804868+695528481
1954+695567271+695957262+696184022+695902851+695136397+694099983+694083615
1940+695789322+697626421+698942212+700363012+701907058+703583691+705650316
1927+707708869+709313528+711591965+715007789+718502987+722913819+728809130
1913+734660120+739775971+744681505+750432045+757426177+764871512+771873866
1900+777721194+782367531+787455205+794031618+800124913+804969310+810569848
1886+816945809+822615480+827190740+831081534+834653938+837689562+840221366
1873+841555468+840419575+838829191+840487514+844075314+846159203+846156961
1859+845142745+843464691+841021678+837996443+834907455+831791710+827385661
1846+821330034+816810605+815525457+813526248+809366914+805474176+802323827
1832+797282566+790004423+784634308+782202730+780745457+779772347+778135550
1819+775732746+773703417+771348596+767575068+763750717+761658532+760646557
1805+759241677+756382140+752826403+751317933+751937151+751428772+748109213
1792+745923827+748600999+751630569+751931247+751430790+751372194+751723396
1778+752342763+751192520+747074817+743437913+745016264+749627025+753795103
1765+755681755+754783534+754290029+755595879+756968322+758054289+757183423
1751+753903251+752708987+755616806+759121720+761400829+762603913+763822841
1738+765299845+764279052+762932393+767718643+774894019+780652780+784134973
1724+785808692+786813042+785366980+781375886+781803172+788891401+796413419
1711+801419852+802930862+802393186+803640440+805307657+804249942+805349436
1697+811091157+819296220+829018946+836219359+840217106+841606067+839309020
1684+839710596+850041029+861133806+866789502+868658366+871900046+875967899
1670+879688362+887999854+898060851+903646441+907829542+915300513+922323270
1657+923497654+917995249+917654287+929406642+936338217+939806359+948376375
1643+957322407+961316417+960398465+956091446+957115304+969599732+980621582
1630+984124403+984808270+986876465+990176966+994777487+997854517+997395167
1616+999656414+1008092423+1015308532+1017855508+1016962145+1016303166
1605+1018725327+1022395490+1024153590+1024785887+1026948552+1031460059
1593+1036339658+1038917726+1039916995+1041485331+1043093727+1043362341
1582+1042938867+1042059779+1038110240+1033394096+1034249715+1035346593
1570+1034015331+1036305353+1041923380+1046184882+1046062384+1039102782
1558+1035776047+1046884819+1057720417+1063310342+1065523082+1067380212
1547+1067656898+1061921007+1050249073+1038874975+1042303206+1056082274
1535+1063094867+1064847287+1069832418+1073741823+1070535569+1063856763
1524+1057781479+1054555195+1058055251+1063456084+1067059579+1069315519
1512+1067394413+1058940691+1045764098+1042764424+1056871001+1066831324
1501+1066755912+1062994791+1063705789+1068868950+1070180855+1064111700
1489+1057933500+1060682721+1068305638+1072202187+1069874945+1065617553
1477+1061478997+1055464701+1048454948+1047126078+1051563368+1052657781
1466+1047664054+1042381533+1038421455+1029728641+1016264451+1011342624
1454+1015965044+1017360657+1013479803+1007374549+1002461242+999644530+995684826
1441+987401062+975356625+962539755+955206080+952976150+949260246+943568601
1427+939380941+937285691+936482090+935086328+935228633+943253573+954204495
1414+961390334+965931513+968932084+970443767+973667510+981094310+987093359
1400+987939187+989422768+993796978+997626486+1001622439+1006095754+1008758577
1387+1009151558+1010087970+1012421714+1014182056+1016018408+1018996258
1375+1022190181+1025535525+1028440355+1030175584+1030851006+1028684753
1364+1023637812+1022600576+1028477650+1033644324+1033835284+1031614023
1352+1029069438+1026594361+1023406867+1019486027+1016566025+1013362761
1341+1008077176+1004107008+1003620079+1002727539+998664545+994943559+996504869
1327+1001856524+1005532666+1006343964+1006462576+1007872912+1011954666
1315+1016355633+1018136529+1019145812+1021383068+1024263158+1027189812
1304+1029827896+1031220593+1030924923+1030439639+1030497263+1030516995
1292+1031094657+1032765237+1035742339+1041149825+1048889410+1056157986
1281+1060814188+1063303391+1064501691+1064895643+1063768495+1060839824
1269+1058029166+1056060152+1053920132+1050431960+1045400266+1040872765
1258+1037638857+1034409658+1030714606+1027419412+1026027387+1025923499
1246+1024628560+1022212154+1019914733+1017161326+1014141772+1012610058
1234+1012117674+1010504569+1008765602+1009032348+1010450607+1011398006
1223+1011497559+1011922603+1013163729+1012922843+1011164744+1010615333
1211+1011268781+1011473343+1010171678+1007292186+1005110163+1005678782
1200+1007011015+1006048818+1004030699+1003873521+1005113227+1005092300
1188+1002626865+999944759+999223373+998956702+998411626+998198469+996225791
1175+992677379+990922942+990450737+989039877+987295306+986334677+986086243
1161+985131295+982986343+981419651+980425540+978666020+976803509+975387119
1148+973634475+971530481+969454439+966746623+963101572+959710786+957385861
1134+954826553+950917821+946974933+944573550+943714493+942940041+940987095
1121+938442585+936103684+934032126+932107955+929330781+924781830+920002979
1107+917098449+915193336+912559363+909109458+905318441+902525347+901450218
1094+900748263+900027325+899474626+898628424+898842777+901165310+903038584
1080+902248586+901222486+902614810+904786145+905669343+906666070+908991668
1067+910661127+911291705+912419974+913060268+913443906+916270857+920825040
1053+922290385+919999541+919847446+923011323+925319357+926859067+928143916
1040+926984480+925433858+926384770+927069459+925094914+921408831+917160333
1026+914508273+913656391+912358538+911583563+912714821+914044887+914223141
1013+912900848+910932357+909759468+908101220+905279427+903548980+902844037
999+901727576+901178240+901829297+903851078+907854879+912400766+915692223
986+918117972+921255914+926355173+932264086+935951140+936822305+936829181
972+937152878+937626802+936139634+932268720+929406567+928891312+930116219
959+931699129+931326254+930015620+929487809+929144829+928986605+929018892
945+928395489+927693386+927808858+927311616+924984075+921737685+918911482
932+917530369+916984172+915455224+912923644+910310374+907412719+904296302
918+901837518+900965382+901963529+902801435+900874947+896915168+893340223
905+891375020+891672783+893758541+896017246+897524146+898038728+897929310
891+897921910+898824316+900282187+900139958+900086594+904085910+909451765
878+911364053+910788707+910742667+911965482+913391140+914813136+917843976
864+922419834+926439255+929987443+934599176+940439777+947255506+953664277
851+959037158+966202518+975668289+985125540+993879267+1001251058+1007481352
837+1013475991+1018597597+1021856917+1022366043+1021832327+1024542311
826+1030085971+1031408115+1025744721+1020525954+1021572831+1025009284
814+1026433148+1027215672+1026956549+1024713315+1023041016+1021808411
802+1018896107+1015427965+1014034445+1014551046+1013608131+1009487512
791+1004097292+999435708+996166448+993593463+989240628+982481253+976323233
777+972128622+968463690+964606006+960036576+955238293+952922860+952337350
764+949533344+945530964+942738393+939290506+934850525+932139047+932170736
750+932913200+931158912+928049819+927709156+929351035+930205533+930421680
737+929906425+927620216+923955210+920497681+917828580+915760460+914656930
723+914075830+912300166+908358698+904036283+901704108+900895500+900508349
710+901472490+904736070+909852369+916889850+925906511+932891974+933160363
696+928751624+923620227+919746548+920082652+923502811+924365978+923053626
683+924092880+927357356+930278554+931066384+929459557+927795854+925254558
669+920168154+920664798+925757181+925437595+922860947+921216078+918837864
656+917661163+920194088+922187394+917681567+911569811+913781804+922225062
642+925981923+922641810+919649536+917776636+912975812+911352244+919336302
629+930426837+931203008+916520712+901415314+900185250+906185943+906822949
615+901646409+896465235+895510288+903002111+917859148+931537767+937966942
602+936567593+931176550
##END=
