##TITLE=Sample description
##JCAMP-DX=4.24
##DATA TYPE=INFRARED SPECTRUM
##DATE=13/9/2023
##SAMPLING PROCEDURE=Instrument type and / or accessory
##ORIGIN=Default
##XUNITS=1/CM
##YUNITS=ABSORBANCE
##RESOLUTION=4
##FIRSTX=4397.6552
##LASTX=599.8556
##DELTAX=-1.9287962
##MAXY=1.79327
##MINY=0.43327203
##XFACTOR=1
##YFACTOR=1.6701128e-009
##NPOINTS=1970
##FIRSTY=0.44403777
##XYDATA=(X++(Y..Y))
4398+265872915+264376636+263737285+264285129+264663468+264637362+264361004
4384+263742603+263360838+263070419+262594167+262334333+262967010+264703101
4371+265875841+265084866+263975349+263620083+262806267+262098839+262628589
4357+263561803+264477100+265325053+265573002+265582335+265260920+263337283
4344+260969800+260566229+261685275+263124755+264295747+264402796+263516745
4330+262241613+261196265+260760466+260744264+260718211+260427203+261009326
4317+263355663+265370003+265223232+264559703+264881314+265243771+265211187
4303+265369486+265359868+264518928+263151932+262635745+263802525+264963863
4290+264198351+262945918+263561124+265142932+265464418+264257078+262705320
4276+261873874+261379688+260565854+260302380+260989947+261122406+260078610
4263+259768063+261212557+263099023+264337039+264338770+263152557+261958992
4249+261548622+261910437+262375072+262277159+261801425+261210594+260830488
4236+260628631+260025166+259426804+259624200+260569673+261480920+261882386
4222+262385868+263104216+263506181+263773974+263894263+263409660+262911621
4209+263318725+264093319+264173976+263488319+262878162+263152575+263779238
4195+263176700+261424621+260703614+261855173+263359036+263810305+263670636
4182+263689587+263077592+262012561+261718377+261557080+260868301+260793782
4168+261976444+263327540+263998511+264300636+264145692+263145919+262083225
4155+261701210+261495660+261169569+260778204+260552632+261415859+263034105
4141+263532609+262783729+262324037+262150678+261811632+261873481+261940666
4128+261419267+261109719+261638808+262384762+262851288+263409660+263938839
4114+263983325+263785251+263408304+262633121+261987418+262185564+262760924
4101+262429391+261652174+262117237+262798076+262206442+261856475+262531229
4087+262797594+262469719+262545969+262437260+261543287+261032220+261454528
4074+261889934+261753067+261825444+262245182+261779441+260568870+259859748
4060+260188193+261249941+262134439+262036134+261184345+260769103+261141589
4047+261350138+261198049+261701996+262770239+263109052+262855375+263146615
4033+263874438+264053561+263581039+263146900+262851859+262415276+261904192
4020+261685329+262021269+262738440+263402255+263797047+264209433+264555420
4006+264360433+263966444+263864659+263798492+263482056+263014137+262673396
3993+262656141+262672469+262808051+263686286+264813362+265402016+265837297
3979+266454663+266639764+266003055+265579034+266161210+266894209+267175313
3966+267008003+266456465+266539621+267441963+267853083+267601850+267348315
3952+266985430+266244276+265789188+265970024+266007052+266146114+266886286
3939+267319425+266853791+265740223+264878066+265484244+266854041+267491660
3925+267752493+267933526+267393765+266626060+266578647+267538092+268866275
3912+269678325+269718832+268285883+265030726+262668614+263378272+265430871
3898+267726030+268768523+266840657+264861970+266677345+268631888+268254905
3885+268248552+268267039+267664752+268919506+270014176+268598126+266654718
3871+266189262+267512663+268623037+268174766+268650411+270863967+272040918
3858+270524796+265505211+261078741+264929369+270416926+272581714+271729050
3844+269532375+267383469+265398126+265021197+267244371+269334515+270534575
3831+272000072+272823614+272213011+270053416+266002127+264717608+268161882
3817+270603883+272263207+274835884+276394958+275575788+273544371+272342062
3804+270346655+268389774+269805485+272084495+274380403+277289716+279522081
3790+280806617+280982778+279982005+279192939+278572986+277908671+279206751
3777+281735173+282804594+281820077+280151760+280315215+282414799+284603854
3763+285127323+283756062+284033330+287300622+289109090+287706620+288194131
3750+296053258+305411090+316532958+336233461+355622934+367469931+371928735
3736+369986147+368247808+370369982+373265537+374164151+374151624+376454420
3723+381512764+387807410+394241208+400264510+405377744+410707038+420075827
3709+433515874+447796717+461687623+476107118+492152925+506408429+514331849
3696+516385929+515203981+510763128+504340537+501154081+500738126+498525837
3682+492933336+484895175+475697765+466853354+462847336+460480335+454326589
3669+449752260+448400289+445189458+440257524+435739012+430818143+424377636
3655+418673178+412552231+401986897+391537160+389200066+390087865+388894818
3642+385816964+382405560+378256893+372538731+366803688+362095025+356721512
3628+353057966+352578127+351002387+346886804+342005727+339631553+338814239
3615+336691172+334518069+332780408+330214905+328147156+326797255+324476186
3601+321884808+320483230+319257670+317387174+316001192+314823848+312172798
3588+309566645+309615932+310248555+309650193+308522778+307072734+304873864
3574+302900762+301610106+299200367+295457591+294105281+295583430+296371729
3561+295688945+294670024+293921358+293216411+292471885+291918046+291193006
3547+290324104+289749939+289279327+288692153+288042596+287460901+286737235
3534+285656358+284553854+283703939+283183272+282854915+282356536+281867080
3520+281782943+281922754+281998576+281799413+281058099+280031845+279248435
3507+278501518+277744590+277643109+277848428+277433632+276782951+276787983
3493+277156507+276926742+276077683+275406158+275388796+275759908+276204664
3480+276797690+277133809+276673903+276004823+275905715+275854287+275245719
3466+274713542+274695359+274940364+275406337+275803555+275742331+275383425
3453+275018380+274762418+274572089+274382848+274248711+274274193+274688667
3439+275531855+276117101+275899773+275511619+275482729+275540064+275539350
3426+275374734+275156871+275169540+275348324+275810069+276532682+277108345
3412+277380545+277437326+277474764+277615967+277943521+278461172+278825913
3399+279093046+279575828+279642049+278888905+278328587+278718133+279473990
3385+279907236+280302296+281128871+282081909+282342511+281788189+281541239
3372+282012423+282269384+282111549+282060603+282058676+281934746+282056463
3358+282474952+282565210+282570813+283311324+284071928+283748889+282791906
3345+282112870+281976092+282097791+282054875+281754695+281313757+280725246
3331+279954935+279346330+279005072+278393184+277699283+277396908+276915999
3318+275992011+275113170+274125798+272526182+270720229+269481982+268421608
3304+266992175+265740455+264943645+264620606+265062311+265902929+266548293
3291+266885750+267054506+267293265+267871409+268819951+269606447+269708821
3277+269543081+269923615+270947479+272179766+273036320+273120011+273009375
3264+273407735+273947585+274138985+274354582+275136564+276045295+276276542
3250+276018689+275923845+276331306+277125119+277798374+278019485+277708384
3237+277429028+278092308+279272294+279900188+279930024+279868139+280003436
3223+280440073+281294503+282345151+283147458+283812076+284423839+284888028
3210+285533338+286309895+286884078+287461918+288567849+290407009+291871097
3196+291891243+291570917+292074381+292952188+293907957+294918062+295538194
3183+295985520+296576369+297050837+297567310+298236693+298924366+299647496
3169+300296358+301266635+302853653+304008584+304159691+304231319+304623077
3156+305167156+305920337+306478869+306855816+307568097+308232091+308676740
3142+309470571+310253444+310261367+309779530+309500763+309694483+309847803
3129+309310363+308653364+308649188+309151440+309622249+309366573+308345118
3115+307371629+306969058+306846180+306235970+305077684+304215295+303717291
3102+302902832+302103078+301929379+302051757+302055683+301576665+300702749
3088+300547894+301428199+302203221+302138517+301763889+301865460+302479382
3075+303266610+304000804+304374896+304440100+304785569+305308021+305262838
3061+304754770+304465832+304723256+305348385+305762663+305591427+304976684
3047+304319079+303889169+303591630+303241449+302738128+302087838+301276092
3034+300124658+298859394+297987280+297416417+296773587+295940641+295074184
3020+294436243+293987240+293703138+293668769+293559597+293013502+291998346
3007+290922733+290489969+290648481+290798393+291023983+291605374+292422706
2993+293686774+295898635+298869583+301760071+304012653+305344209+305660628
2980+305616409+305804740+305988324+305656773+304563120+303123283+301974847
2966+301293544+300916347+300462169+299676833+299017175+299000366+299082825
2953+298732074+298551077+298892853+299200117+299109235+298702969+297941991
2939+297145823+297022161+297152693+296654582+295963589+295680558+295531806
2926+295328254+295052235+294465276+293641396+292950921+292372955+291835604
2912+291692010+292091227+292877384+293901479+294670631+294715563+294431247
2899+294600877+295190387+295626810+295927187+296317267+296701424+297035847
2885+297358529+297750109+298194615+298387265+298287442+298289941+298510106
2872+298692352+298746278+298851132+299001472+298859466+298397507+297997951
2858+297714884+297387473+297193718+297036365+296321853+295245795+294859675
2845+295393565+296000581+296310558+296704903+297221055+297669470+298167706
2831+298804255+299481757+300039504+300402426+300733477+301070488+301173201
2818+301168276+301376842+301596115+301723454+302133770+302752367+303187166
2804+303580352+304188564+304995813+305991393+306949179+307416134+307497290
2791+307705536+307949577+308002432+308045152+307960462+307606856+307362814
2777+307599682+308162926+308433377+308198758+307972882+307892225+307695793
2764+307636192+307887942+308085873+308084446+308156002+308431200+308710217
2750+308922102+309079633+308985878+308671280+308439194+308471100+308777383
2737+309161004+309336237+309266358+309199834+309299085+309347265+309200655
2723+309151475+309237200+309199406+309159898+309286772+309532384+309873035
2710+310062722+309907868+309864220+310181210+310417185+310494167+310559584
2696+310385494+310077248+310095984+310375501+310491311+310411083+310270682
2683+310039632+309720393+309278599+308710145+308192940+307871989+307748470
2669+307661317+307467347+307228731+306871734+306345071+306011486+305991643
2656+305991322+305871193+305650349+305486251+305499314+305484324+305265301
2642+304982858+304855377+304894456+304916013+304885962+305028576+305330683
2629+305386608+305076613+304816369+304869403+305123687+305458949+305699672
2615+305789180+305955098+306262023+306649713+307073127+307382693+307581802
2602+307759569+307929092+308278772+308909183+309611471+310312795+311043813
2588+311590711+311756022+311784966+312051955+312484185+312871089+313173232
2575+313347287+313426374+313461635+313502713+313714099+314061888+314239405
2561+314148184+314006713+314031053+314239655+314475238+314678879+314808038
2548+314707216+314496223+314430662+314629522+315126669+315645016+315834703
2534+315821070+315952798+316162685+316172107+316160329+316351266+316570824
2521+316834709+317229108+317529216+317695384+317872116+318064159+318237786
2507+318383433+318609308+319024157+319525587+319947503+320173985+320210994
2494+320300574+320692403+321278238+321793587+322291806+322915007+323498308
2480+323855198+323997418+323977504+323856161+323692420+323553875+323489885
2467+323426073+323367900+323452376+323726110+324104592+324250382+323950166
2453+323581641+323541920+323848417+324255235+324458270+324537821+324820620
2440+325363486+325901497+326136117+326093611+326098501+326247788+326240079
2426+325982904+325820305+326033939+326618632+327304467+327700080+327604326
2413+327204966+327054930+327423633+327862572+328007469+328067177+328250047
2399+328499799+328739914+328956118+329148767+329335135+329503016+329552910
2386+329331531+328679386+327384875+325203813+322177993+318766982+315397406
2372+312111413+308686947+304968690+301337941+298795154+298165136+299111287
2359+300586938+302616856+306085077+311265227+316681603+319538792+318646960
2345+315666144+313457495+312675728+312874587+314252717+316340844+318043102
2332+319093965+320424201+322463719+324495101+326231478+328269212+331063767
2318+334224777+336865834+338656779+340148008+341856047+343633074+345287116
2305+346919245+348522894+350022260+351415630+352696008+353852581+354917755
2291+356072793+357443679+358798576+359896869+360803833+361670112+362602416
2278+363561129+364394039+365104250+365835375+366711825+367658261+368492492
2264+369304880+370185827+370934011+371540831+372242334+373014822+373640343
2251+374152480+374757623+375408876+376014232+376691181+377388473+377898861
2237+378251932+378658608+379164642+379619427+379917537+380078245+380354942
2224+381000520+381768297+382313839+382668374+382934292+383158776+383414131
2210+383801642+384362031+384967423+385549832+386096409+386588167+387176928
2197+387839173+388354273+388833504+389520339+390348895+391120669+391835663
2183+392610471+393414829+394174541+394930219+395677583+396480371+397502147
2170+398556078+399415041+400337459+401473582+402551176+403491117+404593442
2156+406012294+407358519+408258381+409029406+410071988+411321424+412648163
2143+413993459+415341932+416832519+418428780+419858517+421081258+422211100
2129+423443048+425002943+426752738+428554069+430381381+431980961+433357950
2116+434811491+436442692+438248020+440264412+442427487+444545378+446625262
2102+448860784+451172896+453447462+455859789+458464050+461149433+463868434
2089+466637900+469627603+472969841+476605372+480376877+484056341+487618246
2075+491343927+495466862+499921776+504474085+509027501+513712181+518655178
2062+523751816+529038462+534755446+540626785+546281885+551973601+557963285
2048+564100221+570202289+576453181+582952432+589320169+595705037+602624276
2035+609720461+616354403+622401617+628281593+634493833+640780021+646931804
2021+653200932+659271416+664848606+670280899+675781787+680990452+685612891
2008+690295643+695545851+700603552+704830129+708621656+712516396+716434690
1994+719730783+722328156+725026744+727590355+729480088+731772035+734699032
1981+736983056+738671431+740175151+741251245+742665672+744274888+744638987
1967+744795162+746287176+747842503+748448573+748897327+749522955+749764069
1954+749931808+750730170+751549590+751896558+752341814+752990497+753788289
1940+755191937+756891090+758130355+758932714+759790107+761143576+763202046
1927+765598348+767869667+770138416+772221868+774013384+776971074+781738124
1913+786993970+791959451+796548627+801125313+806106068+811075761+815925252
1900+821096516+826138942+830637112+835147058+840082346+845712071+851722811
1886+856871377+860807944+864335729+868223546+872250477+876136366+880023112
1873+882823127+883670955+884195226+886245987+888826016+889949862+889589261
1859+889702109+890842730+891592270+891303974+890047293+887943142+885288095
1846+881396424+877000540+875629940+876332370+876040077+874648349+872218000
1832+867493492+861412587+857524628+855860236+854224824+852603615+850683833
1819+848015795+845001574+841745025+838628877+836294602+834423143+832438407
1805+830720267+829046025+826504540+823915946+822673827+821883173+820008573
1792+818554246+819839050+821651408+821829211+820751903+819626843+819705716
1778+820728991+820373957+817407059+814403117+815616328+819310496+822231140
1765+823570406+823247920+823066977+824215734+825798255+827384131+827491056
1751+825179194+823295244+824691825+827663362+829616621+829986073+830511272
1738+832073451+832373524+831839902+834268681+837935154+841441026+845124773
1724+848260765+850023515+849523513+846773533+846344765+851381196+856397855
1711+858450400+859371248+861083820+863984050+865359504+863552427+863923450
1697+868529400+875267482+883416278+889201393+892231531+893109552+890650937
1684+890877633+899801381+909198435+914515738+916581346+919542390+923952265
1670+927188757+931509052+937002873+940562279+943056369+946699929+950169542
1657+950388173+945462164+942015249+948592731+954673850+959548109+968331456
1643+975203229+976371544+974347835+971335541+971922197+978846290+984477014
1630+984914204+983242246+983680721+985644115+988786816+992173345+992529164
1616+992956933+998624273+1003795608+1004650074+1004516098+1006526459+1009083004
1603+1009514341+1008927471+1010557388+1013878819+1015786182+1016522232
1591+1018540944+1020952949+1021918122+1022901925+1025612218+1028797675
1580+1029168698+1025126562+1021900991+1023947184+1024640550+1023141469
1568+1026636921+1033369863+1036851396+1033932750+1022000920+1014531428
1557+1026285598+1037748760+1043440655+1047338107+1051558687+1053169617
1545+1048861884+1041403598+1036217488+1042169984+1054193034+1059215761
1533+1059500487+1063187374+1066708308+1064306510+1059274219+1055548716
1522+1052725289+1053069117+1057206470+1063649761+1070011752+1072017259
1510+1065677181+1051591806+1046520329+1059409623+1070042659+1072366940
1499+1070331097+1070536595+1073741823+1073179008+1067516164+1062981592
1487+1064369537+1068742652+1070487772+1067248139+1063069886+1060224688
1476+1056495260+1052801735+1054117731+1058481424+1058144948+1051347051
1464+1044547299+1041129364+1036423128+1026856122+1017211814+1015869837
1452+1018227166+1018084125+1013765543+1007429247+1001858053+996980795+990550852
1439+979911321+966592189+958988720+955587845+950050483+945135395+943943454
1425+943068289+939793824+936138129+936000441+942778351+953308317+962710868
1412+969931893+973815641+973414354+973070169+978427729+986908077+992678487
1398+994531388+994855944+997827267+1004076409+1008281429+1008461088+1008026110
1385+1007659156+1006647444+1007954161+1012159395+1015916019+1018969497
1373+1024569172+1030248504+1031888485+1032179921+1031850654+1029745432
1362+1029248641+1029973841+1028794035+1026918792+1026043270+1025522853
1350+1023816634+1020881000+1017879341+1014413797+1009680224+1005124738
1339+1001727645+998841691+996988218+996117550+995192705+995041098+996743106
1325+999326989+1002127790+1004843580+1006494838+1008792852+1013180243
1314+1016492467+1017489261+1018632522+1020271432+1022423906+1025744910
1302+1028346638+1028902244+1029406386+1031821746+1034548599+1034666587
1290+1033824612+1036373520+1043550077+1052098162+1057073993+1058792775
1279+1061670093+1065743706+1068754001+1069971566+1068657426+1065328428
1267+1061192645+1058475999+1059751809+1062877166+1063111000+1058678213
1256+1052740778+1049195433+1047838681+1046576575+1043805396+1040145847
1244+1037961752+1037133268+1035498141+1032788632+1030913675+1030015455
1233+1028607810+1026813081+1025515858+1025037126+1024759537+1023907070
1221+1023064024+1022665307+1021989143+1021337034+1021547242+1021445029
1209+1019813399+1018069778+1018586126+1021247098+1023020341+1021976581
1198+1020035313+1019546803+1018942517+1016180545+1013257403+1012597799
1186+1013229851+1012298154+1009517696+1007788636+1008385927+1008534179
1175+1006020317+1003468554+1003148495+1003007453+1001617295+1000461899
1163+999614643+997963099+996269728+993646515+989435000+987181882+987974535
1150+988436565+986206074+982529751+980142229+978977197+977036787+974037270
1136+971490075+970254807+968769717+966015169+963766834+962877536+961507792
1123+958023047+953471987+949647126+946364881+943376998+941062353+938327149
1109+933673090+928023380+924177105+923226422+923968610+923989524+921029836
1096+916809898+915314958+916754009+918239099+918089777+916746871+916096761
1082+917362721+918674291+917767434+916004540+916351509+918732107+919949744
1069+918527467+917231599+918332676+920612560+923484239+927462848+930352372
1055+929824817+928348863+929265357+931728896+934192722+935896300+935454899
1042+932934613+930116182+928318813+927571557+927529301+927168271+926849854
1028+928879701+931836677+932887004+932177578+930506406+929149296+928761571
1015+928538015+927845863+926776834+926328723+927064060+927600465+926861917
1001+926531080+927813314+929301474+929625244+928613319+927841294+929199760
988+932002345+934531839+936187023+938208947+942321318+946811850+949113504
974+950505732+951628365+950696026+948648120+947546972+947331196+947353395
961+946980659+947151109+948556613+948399225+946547252+946874663+948704223
947+947739121+944669868+944023540+946369592+947420133+944540388+941022810
934+940345219+940732587+939251779+936389094+933485866+929536736+925575186
920+925227076+926917949+926136217+922851759+919092637+915661926+913741573
907+913782758+912770475+908652536+904808475+904696768+906950386+908246895
893+908001783+908180871+908864529+907783724+905494917+903901689+902503323
880+902384835+905417972+909512570+911507870+911983461+914340220+919291211
866+923980174+927559351+931256089+934961962+939423729+944968942+949394520
853+954157929+963117794+974297085+982693492+988627786+996813271+1007281852
839+1014361049+1017633873+1021751811+1024817139+1022628047+1018558574
827+1018412963+1022016267+1025586094+1030905396+1039519362+1043177984
816+1036927984+1028126936+1022483364+1017985695+1014972473+1017708034
804+1023994864+1024536909+1017366633+1011076306+1009671515+1011423488
793+1013380387+1010241540+1003222443+999616784+1001382104+1002333287+996711129
779+989274971+985195647+981002833+973151040+963373470+957299774+958312842
766+961090302+959441542+955286201+951707523+949260043+948988950+950024359
752+949101156+946535688+946019554+947572168+946303210+939587684+933240468
739+933374801+936181241+935119850+930796629+926033504+920907922+916283129
725+912945565+908963245+904823821+902863639+902476628+903096474+905004265
712+908070163+912437425+916952369+921190008+926082898+929514037+930273285
698+930048516+929163215+930406619+935479881+937620293+933854890+929879421
685+928480913+931237102+937151125+940479338+941435089+941914249+939235434
671+929070852+911757050+908011348+921809069+928650864+926178830+922001148
658+921129337+925832004+930492558+928524667+922621565+918637960+917275068
644+915188547+913951995+917309187+921986230+924535423+924721862+920374943
631+910026277+899696312+900995177+912410016+921822417+925917087+918529037
617+898935637+889738512+898794023+907923267+907607848+903119315+899528003
604+899172755+895257030+886488316
##END=
