##TITLE=Sample description
##JCAMP-DX=4.24
##DATA TYPE=INFRARED SPECTRUM
##DATE=13/9/2023
##SAMPLING PROCEDURE=Instrument type and / or accessory
##ORIGIN=Default
##XUNITS=1/CM
##YUNITS=ABSORBANCE
##RESOLUTION=4
##FIRSTX=4397.6552
##LASTX=599.8556
##DELTAX=-1.9287962
##MAXY=1.8107529
##MINY=0.43305892
##XFACTOR=1
##YFACTOR=1.686395e-009
##NPOINTS=1970
##FIRSTY=0.45869318
##XYDATA=(X++(Y..Y))
4398+271996282+270614616+268724308+268353103+269185234+269972160+270788952
4384+271021960+270085969+269047762+268411987+267981987+268494021+270096944
4371+271305069+271157912+270517896+270306024+270274461+269528853+267967319
4357+266805955+266837446+268009220+269207908+268601840+266744155+265330714
4344+264140933+263212170+263365459+264417061+266191916+268157543+268739524
4330+267240231+264888591+263974584+264956187+265801077+265472463+265321030
4317+266237811+266782097+265561036+263086326+261240817+261624428+263185326
4303+263691670+263157068+263364734+264502506+264807334+264273722+264145368
4290+263737140+262714414+262769569+264458149+265949577+265793567+264742035
4276+263654346+262505582+262148762+263274129+264446043+264006642+263076147
4263+263157916+263279377+263228358+263985205+265066373+265443251+265091786
4249+264584841+263843598+262966279+262880498+263798057+264393486+263872191
4236+263628509+264220369+264461418+264069731+263971332+264624427+264743148
4222+263788514+263447546+264161167+264753876+265231290+265823115+265980662
4209+265487626+264102831+262427736+261599793+261436201+261975539+263333772
4195+263841371+262749883+262302599+263231945+263267537+261984057+261311383
4182+261858461+261997736+261322163+261349307+261830928+261964247+262396173
4168+263390624+264170763+264226590+263991991+263552201+262751102+261958203
4155+261432119+261782506+263125788+263876221+263296007+262761246+262972870
4141+263082915+262676896+262384545+262682940+263203281+263249829+262482484
4128+261377371+260886384+261024527+261208548+261539495+261830716+261655991
4114+261455181+261165534+260255115+259347364+259130120+259506396+260312249
4101+261177745+261669492+261888380+262253594+262776568+262911230+262575122
4087+262170517+261826527+261563918+261168397+260687129+260811065+261504416
4074+261704041+261020392+260497807+260784132+261019791+260784662+260840206
4060+260935760+260509630+260909711+262254813+262435777+261467570+260957585
4047+261184797+261593519+261966544+262525074+262719751+261798093+260774024
4033+261030677+262257411+263334214+263551388+263132097+262673768+262021841
4020+261437703+261669421+262430864+263226520+263548012+263064466+262604051
4006+262445567+261854838+261348423+261953325+262999609+263437614+263331952
3993+263359114+264262341+265603290+266345046+266581111+266304417+265300353
3979+264403930+264128774+264119054+264428866+265455162+266765521+267194672
3966+266375159+265012597+264233129+264374683+264375372+264133475+264598042
3952+265090195+264553225+264055629+264228251+264290864+265143777+266933071
3939+267823326+267538786+266441642+265178680+265536383+267075579+267430190
3925+266660230+266486688+266384790+265195115+264650776+266822266+269339619
3912+269832974+269332250+267394439+263067540+260005813+260879880+263518394
3898+266524754+267920629+265968875+263840859+265221995+266395164+265414639
3885+265272095+264936253+263712682+264467232+265296271+265058862+264795653
3871+263556919+263657633+265407199+265581748+265842095+267711602+268544511
3858+266360138+260769994+256795656+261717702+268431320+271554212+270767250
3844+268166856+265641162+263426074+263107215+265163394+266773932+267396012
3831+268564463+270289447+271183996+269628984+265268119+263231857+265764885
3817+267743730+269958747+273008440+273716212+271011657+267660812+266730211
3804+265999342+266634304+270410060+272726621+273823093+275829878+277452240
3790+277853770+277466007+277112368+277435080+277330337+276496880+277325177
3777+279595667+280536694+279284689+277352516+277321395+279476786+282592237
3763+284369213+283176922+282115070+283819501+285456089+285040491+285900456
3750+292972432+302003672+314104893+336117111+357397877+369159191+371551301
3736+367203867+364379919+366066378+368307037+368761389+369098328+372371821
3723+378530868+385746430+392990692+399863767+405627876+411390641+421424107
3709+435550174+449754140+462742930+476566378+493228477+507809249+515375252
3696+516628953+512390981+504458104+497653173+495221478+495177050+493731004
3682+489595601+483870902+475588928+464056929+457571193+455540728+450769302
3669+447596646+447262818+444926552+440463755+435251054+428534838+420316873
3655+414022351+407369790+395145995+383937998+383896398+387757103+387789408
3642+384167631+379662950+375291305+370778919+365627506+358979292+351234129
3628+348470090+350507165+350391165+346225154+339796818+335840859+334774094
3615+332972801+330739741+328952940+327302391+326947356+327022393+324875396
3601+321402666+319184345+317401855+315331238+314312541+313271436+310255745
3588+307606080+307953480+308566317+307665352+306247617+305103695+304081818
3574+303240408+301958502+298422187+293323473+291403882+293373821+295255310
3561+295673417+295307531+294261973+292187609+289974377+289072830+288946049
3547+288439175+287853112+287692418+287406181+286560796+285637335+285170099
3534+285158984+284802429+283264028+281515434+280863241+280508949+279568222
3520+278843255+279001492+279425766+279218277+278463002+277987549+277932747
3507+277563469+276947504+276934586+277020190+276346508+275601713+275492728
3493+275574144+275160119+274454751+274254825+274441426+274306198+273987727
3480+273878266+273817809+273654341+273510277+273700236+274166888+274360434
3466+274048803+273457862+273096218+273296002+273858261+274214939+273869200
3453+273342710+273251503+273173816+272980323+272951129+272979864+273225260
3439+273842091+274508580+274911772+274914016+274766365+274775254+274728741
3426+274415254+273975799+273768221+274038924+274484900+274719763+274880245
3412+275124810+275041981+274728228+275190869+276238495+276676625+276482707
3399+276298651+276466608+276837777+277104981+277526958+278092469+278300930
3385+278320635+278777885+279508772+279820422+279795009+279772265+279732785
3372+279623200+279338077+279214972+279525243+279778839+279937182+280630675
3358+281639139+281853433+281252613+280838270+280657201+280416700+280596921
3345+281301954+281860236+281866863+281388830+280776753+280327367+279753674
3331+279045920+278577359+278104221+277603903+277389504+277104080+276234148
3318+274736499+273146442+272095547+271415255+270443125+269044228+267672688
3304+266713706+266120361+265312900+264196529+263724081+264092546+264511148
3291+264782398+265396419+266467797+267256490+267531664+267905183+268385125
3277+268702253+269008512+269706865+270856955+271592154+271584360+271895568
3264+273040568+274107739+274340482+274136103+274062640+274132498+274223015
3250+274317261+274424637+274579287+275049385+275828677+276251201+276278240
3237+276529115+276844864+276737806+276413503+276324382+276698573+277606395
3223+278649249+279489669+280501491+281541960+282048021+282427991+283147639
3210+283972613+284850674+285779738+286514990+287163736+288012055+288982772
3196+289735802+290385945+291490794+292783887+293522338+293830771+294235288
3183+294741703+295224649+295968596+296864347+297438764+297892198+298370408
3169+298828047+299810021+301074361+301569325+301761775+302875760+304403310
3156+305038732+305121686+305301730+305036894+304662138+305077152+306032653
3142+306896647+307352625+307604878+307820726+307740035+307488277+307467424
3129+307577804+307571937+307584308+307674754+307716072+307411191+306352095
3115+304801182+303591979+303235425+303478418+303721199+303575544+302976103
3102+302064783+300955710+300061921+299720211+299637293+299648709+299688330
3088+299654364+299852752+300436960+301094967+301430598+301366483+301300954
3075+301483155+301726961+301875443+302160283+302890499+303740214+304149184
3061+304161236+304155864+304110623+303910044+303888872+303967973+303864661
3047+303580881+302699886+301376167+300471810+300027248+299556566+298786977
3034+297765806+296896333+296302954+295608348+294646467+293566713+292645726
3020+292115613+291861946+291724580+291590395+291223696+290478177+289529727
3007+288874335+288724281+288755649+288805378+288968104+289219792+289868008
2993+291421802+293657530+296151803+298914994+301457424+302897037+303305053
2980+303319262+303144236+302850418+302620927+302322337+301479302+300239420
2966+299195028+298423389+298098256+298104971+297581485+296616406+296182588
2953+296307814+296301717+296164262+296257801+296393011+296297740+296130402
2939+296104901+295932827+295216466+294279680+293588255+292986464+292307038
2926+291868644+291786627+291543245+291084987+291105946+291472468+291311934
2912+290799281+290846978+291308081+291464798+291436099+291524318+291859772
2899+292556994+293291910+293878150+294414378+294765366+294953645+295161559
2885+295333934+295653429+296323789+296833279+297012793+297248010+297255928
2872+296767503+296356942+296438606+296651043+296718904+296619021+296183560
2858+295594051+295233432+295115894+294900558+294330170+293702400+293376701
2845+293310625+293461015+293864984+294364207+294834287+295352648+296031897
2831+296836142+297454068+297777116+297968718+298054110+298062593+298179159
2818+298644504+299341283+299920013+300331068+300739367+301227297+301655600
2804+301997416+302390835+302931958+303642027+304254510+304562749+304760572
2791+305121332+305461133+305401755+305240726+305296075+305324280+305215737
2777+305081676+305072557+305200150+305266492+305197641+304991830+304725651
2764+304575473+304558684+304692251+304906049+305088851+305346511+305573564
2750+305754315+306059656+306240902+306241856+306305299+306359659+306212909
2737+305889684+305832462+306335943+306822423+306672634+306329758+306547691
2723+307052056+307083866+306726075+306541471+306576674+306694618+306950618
2710+307193964+307306395+307405677+307497148+307596219+307715365+307718122
2696+307629266+307544687+307381855+307218917+307264759+307408080+307391893
2683+307117726+306621738+306095530+305749791+305527121+305178201+304686172
2669+304372313+304364396+304304452+303975431+303587279+303296853+303145155
2656+303062838+302907393+302766157+302668182+302502346+302358495+302276884
2642+302100516+301809631+301614389+301636550+301735903+301757993+301780401
2629+301925950+302042233+302009893+301936977+301839886+301816311+302107903
2615+302617004+302908984+302940900+303159823+303671681+304219025+304631635
2602+304923934+305264583+305659946+306081322+306616260+307183855+307688432
2588+308140099+308550200+308980235+309447948+309874096+310222980+310470391
2575+310632445+310813232+310989707+311099027+311175795+311180390+311086727
2561+310995044+310899720+310803618+310953585+311359621+311673762+311678958
2548+311532597+311627037+311931812+312091816+312176042+312473288+312975568
2534+313372768+313485234+313503790+313625410+313702426+313604133+313653191
2521+314011583+314322013+314366088+314363578+314599502+315016001+315368809
2507+315544082+315657537+315976450+316393797+316539734+316529838+316787216
2494+317381108+317948774+318299179+318688215+319227253+319795591+320332579
2480+320664639+320717939+320711824+320735964+320746886+320797888+320782831
2467+320614662+320564049+320683867+320707512+320576031+320397259+320389907
2453+320634384+320978427+321404398+321777600+321924562+322048833+322268922
2440+322412951+322493041+322671177+322826692+322770247+322604270+322498343
2426+322551253+322773040+323054593+323349684+323627243+323767349+323745965
2413+323696660+323822451+324190315+324589318+324836517+324944035+324976516
2399+325070144+325322043+325590908+325781556+326085129+326416236+326305290
2386+325637810+324453172+322386301+319265778+315590666+311738160+307324031
2372+302178167+297272681+293338211+289793962+286480069+284260193+283660645
2359+284830033+287912349+292844450+299518818+306409671+310026395+308555961
2345+304218706+301331704+301068989+302137062+303638528+305265113+306910254
2332+308293776+309836100+311992039+314229234+316314732+318823019+322080360
2318+325564365+328437901+330549836+332480560+334669934+336983615+339212999
2305+341446024+343574747+345321751+346765500+348059954+349318462+350770340
2291+352352709+353797589+355143964+356442023+357445521+358079742+358634932
2278+359367763+360271449+361148061+361881175+362617576+363483903+364386033
2264+365214542+365961369+366681512+367408688+368133390+368842187+369472519
2251+370052344+370635951+371114302+371527655+372088783+372853459+373583357
2237+373985647+374225106+374666239+375257551+375705824+376013321+376407871
2224+376922415+377446926+377815780+377946837+378037601+378292435+378788458
2210+379416670+379909194+380304910+380826453+381422359+382008440+382614385
2197+383224889+383855787+384487957+385040355+385652697+386521816+387443952
2183+388191734+388902227+389603743+390281790+391097433+391959908+392735400
2170+393612365+394754626+396029146+397166246+398142494+399110189+400068128
2156+401091526+402222123+403276023+404302637+405428745+406569698+407681916
2143+408805621+410012633+411301467+412652118+414068475+415425489+416819932
2129+418501089+420262902+421894471+423542369+425171393+426634121+428035810
2116+429631080+431436756+433173404+434916802+436982931+439160641+441161312
2102+443281835+445733996+448195946+450522528+452936339+455593497+458463145
2089+461409243+464415427+467604342+471032962+474642546+478310907+481919855
2075+485588888+489692339+494200660+498757297+503508930+508652320+513789913
2062+518715263+523795281+529265076+535130482+541286312+547439422+553518908
2048+559685837+565902425+571994848+578035102+584254234+590687872+597364644
2035+604219976+610890103+617282635+623609710+629735462+635705417+642055394
2021+648430678+654052773+659398828+665203582+671042338+676158301+680655241
2008+684977651+689207035+693565425+698202683+702523184+706007295+709131671
1994+712262550+715062605+717725806+720576970+722989933+724732624+726807624
1981+729482772+731776484+733474146+734912452+736099530+737260240+738217579
1967+738597319+739071005+740254831+741662458+742366448+742204429+742372598
1954+743245958+743757745+743982818+744647081+745230194+744980733+744955638
1940+746535533+748442294+749352625+750064108+751457385+753575293+756024519
1927+758116555+759582995+761539591+765030064+769079261+772813469+776706162
1913+780700788+784611718+789274212+794760725+799779844+804161844+809207330
1900+815370053+821081498+825431972+829855679+834769895+839490637+844616778
1886+850147260+855197412+859757972+864024043+867713010+871066842+874626378
1873+876932813+876066875+874751285+877447852+881677023+883701692+884444491
1859+885152934+885376381+885072561+884374367+882685470+879415334+875072424
1846+870793276+868484155+869120566+869694489+868054649+865267035+862436867
1832+858141531+851935758+847483211+845282031+843095979+841360144+839503573
1819+836850550+833946370+830683233+827357677+825117124+824077715+822806023
1805+820939343+818914815+816289432+813596541+812212383+811270454+809368571
1792+808242640+809908846+812180927+812952707+811917611+809782596+808389319
1778+808364083+807446754+804065637+800412650+801389853+806289720+810631003
1765+812263845+811667655+811536103+812563424+813392533+814849430+815693454
1751+813720176+812009365+813994802+816999925+818223902+818398645+820176611
1738+822847305+822285258+820468414+823860842+829545708+834369726+837390896
1724+838319535+838716665+838181126+835614627+835590310+841528808+848117077
1711+851703758+852523253+852692907+854217665+855296376+854038963+854637132
1697+859348401+867400919+877315593+883590145+885390802+884965750+882946241
1684+884484925+892835467+900432536+904941353+907676657+910875044+914102766
1670+916278144+921450093+929106824+934433510+938352640+943585451+948598279
1657+950172660+945599093+940839190+946402542+951713677+954375959+960560808
1643+967566424+970625625+969523869+965352026+963413173+968857909+974997375
1630+977686803+978916576+980712355+982490533+984878613+987322680+987232622
1616+988042221+993813540+998080954+998005317+998506006+1002030763+1005016376
1603+1005942046+1006452208+1006972195+1007531697+1008757865+1010721247
1591+1013650451+1017455772+1020368364+1021460789+1021319412+1020009053
1580+1018560497+1018092184+1019402684+1022070622+1022069491+1019851770
1568+1021804549+1027268725+1031144947+1029336232+1016977845+1006182388
1557+1015935397+1028825151+1037560453+1044722362+1051204457+1054028193
1545+1050384962+1042310883+1037083727+1045330145+1057386973+1059455752
1533+1057392840+1061204806+1065854576+1065677500+1062907912+1058960435
1522+1054382415+1053453846+1055482050+1057986555+1062032501+1065953045
1510+1065160765+1057718221+1054785482+1065300587+1073741823+1073444506
1499+1068487098+1067209256+1070372793+1069876558+1063501769+1059760916
1487+1064938307+1070211552+1069293658+1066799897+1066320556+1064170485
1476+1058536656+1053251111+1052166886+1053085204+1051321659+1047246095
1464+1045380122+1043804397+1036581978+1025526174+1019966639+1020750225
1452+1021508433+1019101196+1014049207+1010471221+1006224378+997637523+988797531
1439+981410831+971658671+962620892+957413317+952325771+947974803+946502072
1425+945906802+945251516+944585557+945400033+952630582+962449401+968070789
1412+970176963+972087823+975668071+980405636+985006914+988195192+991044517
1398+997127149+1003534526+1006368512+1009714144+1013334048+1013633062
1387+1013004850+1014970636+1017333410+1018629560+1021323158+1025284560
1375+1027955537+1029906549+1032268051+1035133988+1038513974+1039500790
1364+1036978048+1035568230+1037185590+1038974441+1038544300+1035365353
1352+1031829003+1029585622+1027910579+1025750117+1021709543+1015937730
1341+1011071793+1008840076+1007652716+1005099930+1001278987+998378412+998293162
1327+1001199816+1004969227+1007592419+1009358084+1011128132+1013986577
1315+1017140500+1019259963+1022644756+1026945818+1028412541+1028137137
1304+1029151663+1031357791+1033889370+1035920401+1036682922+1036584947
1292+1036038734+1036323328+1039888236+1045936584+1050831008+1054070818
1281+1058531778+1064665448+1069045469+1070226609+1070654488+1070738537
1269+1069429239+1068342681+1067179496+1064210283+1060611939+1057073751
1258+1053618410+1050852285+1049703875+1050383477+1050513827+1049003348
1246+1046508103+1042855258+1039636584+1037752444+1035550275+1033182482
1234+1031332555+1028609692+1024555758+1020702086+1018554277+1018492424
1223+1019603582+1020497442+1020179978+1019093632+1018996930+1020059100
1211+1020330970+1018860642+1017073628+1016885031+1018655998+1020460825
1200+1019468071+1016889343+1016701028+1018395227+1019728347+1020723010
1188+1020808190+1020004529+1018927019+1016591743+1013269580+1010790805
1177+1009868528+1010507131+1011077943+1008707606+1004692833+1002426620
1165+1001007471+998254141+995601755+995694004+997557432+997354343+993518838
1151+988181620+984269134+982683018+982423732+982901305+983840972+984113336
1138+983248882+980983305+976192936+970494356+967170496+966039263+964790827
1124+962380833+960014666+959361077+958984447+956817127+953230659+947909416
1111+941166479+936119721+935259367+937484228+937799995+933603552+928211833
1097+924773033+924090108+925066462+925011184+922927913+921026172+920494026
1084+918792546+916646716+917721964+920436485+922980506+926070951+928021892
1070+928715137+930042815+931125202+930268171+928637097+929974388+935749241
1057+941253568+941486558+939714389+941147181+944133290+945477791+945069422
1043+943261908+940653773+939364197+940776843+943520205+945766838+945980106
1030+944067549+943018668+943422513+942524129+940710607+940551204+940791829
1016+938242860+934065362+932152311+933723158+935781546+935031325+933529046
1003+934102333+934719234+933954169+933523179+934623663+937353383+939851243
989+940296653+941154533+944671797+948572619+951163576+953535187+955704415
976+956850139+957448449+958354185+958683666+956163963+952028030+950502989
962+952053478+953816882+954453434+954011559+952368043+950778181+950256215
949+948985512+947188107+947224653+947618037+946492953+945303119+944227376
935+942044929+940701135+941434107+940189065+936431459+936205255+939232362
922+938940700+935422800+932026555+928387918+924983615+922860547+921332890
908+919419909+917015075+915609711+915370146+914169779+911576418+909726774
895+909426488+909364141+909614450+909704507+907804038+905057919+904009957
881+905892895+909214139+910669975+910600983+912135355+915832381+919248913
868+921838528+926453377+933300792+939327722+943786207+948807094+956046337
854+965841193+976900672+985615615+990737233+995387073+1001579556+1009845059
841+1019818264+1027449193+1030646237+1034191282+1039295227+1041061741
829+1039954401+1040975854+1044879079+1048788454+1052003948+1054731476
818+1054357391+1049826803+1044045163+1041527227+1043989107+1046416915
806+1043181982+1036723356+1034067718+1038039440+1044050748+1043604913
795+1035698014+1029957162+1029724879+1029238116+1025497970+1017100561
783+1006360524+999206673+994833580+991442990+989555952+985339292+977883530
770+971979386+969948355+969429923+967166891+963910045+961058881+958993283
756+959723852+961444842+960059695+957996217+958026472+956186725+952134487
743+952413426+956887816+959520905+958754850+954715195+948577213+944726086
729+944188498+942970317+938670740+934098940+931698842+929023482+925751861
716+924761087+925351338+927186986+932443761+939462242+944163332+947317821
702+950759802+952806455+954832327+957870674+957863393+955094229+953446543
689+954764041+958466298+960552042+960619833+962472870+966034173+969299573
675+969781035+964149538+954340615+948009724+953486341+962330149+964514293
662+963246983+961259284+959428514+960771673+961816100+955038950+945909488
648+943521973+942382469+936499815+939015842+957022266+969943265+962142188
635+948157958+946880328+966231395+993092090+995717402+978477174+974920042
621+982248918+977896819+962820447+952064788+950854101+949378259+943228967
608+941297749+951395860+971172827+980363930+966884913
##END=
