##TITLE=Sample description
##JCAMP-DX=4.24
##DATA TYPE=INFRARED SPECTRUM
##DATE=13/9/2023
##SAMPLING PROCEDURE=Instrument type and / or accessory
##ORIGIN=Default
##XUNITS=1/CM
##YUNITS=ABSORBANCE
##RESOLUTION=4
##FIRSTX=4397.6552
##LASTX=599.8556
##DELTAX=-1.9287962
##MAXY=1.5918266
##MINY=0.23134504
##XFACTOR=1
##YFACTOR=1.482504e-009
##NPOINTS=1970
##FIRSTY=0.25062248
##XYDATA=(X++(Y..Y))
4398+169053493+169269275+168447668+167178475+166065740+165628788+166165430
4384+167032026+167357972+167599928+168901195+170576975+171439361+171888314
4371+172052473+171516817+171089996+171571496+172140985+171893260+170920551
4357+169789654+169069193+168901878+168589081+167029463+165144766+164816790
4344+165239469+164776796+163772375+163006382+162497020+162422167+162728623
4330+162500176+161378174+160279291+160018096+160225516+160248212+160127355
4317+160233879+160258283+159385314+158125398+157623936+157707925+157692104
4303+157555919+157747176+158413540+159049338+159089010+158731504+158449262
4290+158285295+158488040+159290208+160482609+161542373+161603445+160647140
4276+159442788+158218192+157226235+156816331+156757259+156689583+156523113
4263+156302958+156240358+156931348+158317489+159172447+158801250+157852062
4249+157580494+158024281+157827727+157134978+157354228+158286159+158328274
4236+157125550+156129482+156050197+156513162+157219872+157773560+158269313
4222+158810829+159083261+159221698+159348828+159497165+159671787+160070414
4209+161052189+161894673+161646013+160644516+160360717+161010466+160792301
4195+159658560+159293304+159942822+160425206+160097794+159802274+159831433
4182+159755696+159949727+160111735+159446667+158876716+159275463+159840328
4168+160483212+161291019+161145606+160240181+159698072+159489918+159510172
4155+160001904+160533007+160620373+160761745+161499735+162356331+162478013
4141+162000956+162051534+162739338+162898330+162340430+161722694+161206628
4128+161028739+161505213+162481903+163299087+163309852+162981434+163030013
4114+163152468+163363798+163996862+164383808+164572844+165719220+167135626
4101+166992314+165703912+165145620+165836771+167026719+167983537+168650675
4087+169654081+171129699+172246022+172297625+171763135+171774211+172521951
4074+173251538+173349961+172905732+172413779+172314532+172865908+173588017
4060+174077055+174642564+175133974+175371548+175415231+175260481+175150036
4047+175023973+174955704+175334117+175814169+175826090+175447174+175192855
4033+175395350+175603453+175366844+175280603+175648744+175848304+175740734
4020+175754444+176133500+176800327+177450287+177576391+177255412+177574522
4006+178590673+178991661+178829070+179032530+178977408+178287042+178336776
3993+179643310+181159234+182054929+182209579+182051090+182120243+182223913
3979+181970277+181868417+182302735+182633083+182582826+182857791+183872032
3966+184800053+184786644+184489788+184483757+184530013+184852279+185207816
3952+184688201+183706768+184139056+185003994+184251892+184857325+188418738
3939+191397415+191479996+188709463+186010174+187008957+189398142+188783723
3925+187093629+188057553+188822139+187108706+187033623+191004970+194961260
3912+196384330+196057319+192020839+183653395+177498031+178150544+183595318
3898+191275753+195759036+193187378+189594163+192387151+194803233+192715910
3885+191725511+191109122+191808273+197397586+199246089+194707765+189898337
3871+187354019+190038091+193605474+193054942+195480332+202274439+204749502
3858+198930899+185859706+178565685+191186638+205502569+210753131+207904298
3844+201315299+194824763+189636660+189521411+195749366+201397479+204620483
3831+207739878+209484732+209244766+205820815+197303324+194165937+200101499
3817+204260283+210334674+218624522+220537996+214901463+209547412+209171833
3804+206270914+204190808+209986194+215204611+219570876+225991274+230609707
3790+232477910+232606869+231826121+232295800+232436619+231455407+234919985
3777+242193059+246110350+244296464+241405617+243344823+248537730+254232763
3763+257462883+256179206+257563035+264771961+268918865+266651764+269889644
3750+292263137+319933368+351806167+401641908+444995656+464320495+466887890
3736+464878103+471355392+484508423+494942927+499577321+502165342+507469919
3723+516161640+526523895+537219291+546458368+550578415+551189778+559976464
3709+580026005+600322126+614724539+626188662+639984979+653411648+661920233
3696+666536736+666792322+663107056+664331712+676675931+691065761+698380085
3682+697256988+691082727+683108150+680733620+691717088+700756786+701773661
3669+709253310+720607713+725779653+727776172+730394025+730571090+726516859
3655+722760550+717751924+708473808+706101288+717843030+730658496+738131391
3642+742621850+746370680+748810504+748671795+746186942+739984859+729907057
3628+731058620+745270500+755295230+754682179+748163036+747001101+751691622
3615+753346475+752442819+755629739+764288693+774282626+780798230+783557525
3601+786669905+789405881+785762630+780004576+781250299+784688503+783252527
3588+784580029+793707616+800929951+802434356+801353474+801620036+806108244
3574+811213282+811217061+805232088+795839627+793325263+800769692+807329924
3561+810100558+813345535+817392528+820403349+822371563+824517244+823901458
3547+818263377+816150423+822241780+827753295+827789802+825776798+824476235
3534+825283559+828744519+831757752+829802724+824665039+822711138+825099740
3520+828317859+831805194+835221767+834927866+830371068+826207076+826345142
3507+827859598+827585397+829023464+832666795+834628094+833502585+829682350
3493+827224514+829359018+831457659+828234795+822727059+820675057+821563113
3480+820615311+818335666+818104646+818246571+817106025+816930488+818030105
3466+817941171+815893671+813892006+812656655+811774951+813194684+815673266
3453+814601229+810886252+806930042+803429520+801984860+801135481+800465337
3439+803116400+806505312+805399905+801231089+797558006+796152345+797217546
3426+797068224+793948527+790946391+788623082+787697233+789953157+791656498
3412+790233630+788415060+786052591+781644955+777522697+776351434+777985783
3399+780272745+781111510+779849463+777595308+776146708+774662084+771862824
3385+769886488+769619042+769946957+771792304+775221421+776839366+775258893
3372+773088847+770908027+768594770+767404127+766430755+766060303+767473844
3358+767976009+765838530+762894531+760738155+759932359+759958894+758814247
3345+756568294+756135764+757084048+755309302+751035791+748958299+750729507
3331+753845505+754725922+752164919+749588237+750805656+753476500+752636207
3318+749797466+746865046+743474365+743910673+747434113+747408864+744894821
3304+743292958+742418250+743328660+746004329+748488700+750631808+751662433
3291+751238829+750486505+747913522+744115721+743015943+745012140+747299907
3277+748852317+750628109+750936725+747993691+745541404+747380800+751186883
3264+751670715+748333105+746317529+747012599+745973049+743581713+744080662
3250+745855408+744569238+740308673+737483199+738423040+740172698+740334807
3237+739550962+738967180+738501602+736705225+734707982+735792402+739244034
3223+741128863+739862795+736573191+733413610+732403892+732270732+730103420
3210+726671087+725394244+727900648+731981334+733723835+732545656+730755230
3196+728705238+725909516+724041735+724651249+725340691+722774783+719589149
3183+719355074+721595479+725274191+727202843+725117631+722389615+721684734
3169+721178227+718805225+716565704+716261591+715695097+713179768+710630505
3156+710792613+711570909+708280500+702285636+698554898+697688392+696935103
3142+695789411+695595058+695660673+693838806+690631703+687966649+685095020
3129+681550111+678838258+677944974+678111344+676881381+673827541+670747969
3115+668194083+665979490+664094259+662049856+659242796+657021167+656279378
3102+654104065+648947162+643798943+641184507+640097474+638702186+637250571
3088+636172745+634868321+632962305+630113874+626796407+624390396+623030328
3075+622031988+620767006+618279941+614787139+612018556+610411748+608206281
3061+604610030+600893525+597882664+595356198+592871103+590218955+587559972
3047+585258696+583717422+582480865+580523748+577786444+575606508+574692158
3034+573050009+569347053+565469444+562986199+561867685+561654194+561519225
3020+560769153+559497859+559120773+560461582+561677232+561895226+562940083
3007+565755345+570146778+575783131+582345253+590781870+601637244+613606427
2993+625388213+635235919+641168867+644152830+646058606+645718428+641433821
2980+635084224+630339868+627393497+624225594+622074928+623284547+627278510
2966+632138657+636617457+640625331+644717475+648379582+650592447+652090137
2953+654202890+656718823+658807935+659521620+657586173+653154897+647784583
2939+642113895+636443649+631595161+627316866+622917633+618929660+615801199
2926+612807908+609600926+606230267+601252880+594328669+588059162+582973582
2912+577304221+571768985+567791989+565085724+563393801+562609394+562539276
2899+563344188+565018300+567579624+571001987+574987185+579305806+583282400
2885+586669101+590910970+596851959+602600082+605894069+606648242+605415304
2872+602038172+596321770+588220546+578226693+567602179+557206072+546643072
2858+535398751+523869495+512168683+499935028+487565681+475668867+465039890
2845+456845429+450663771+445056768+439795170+435068022+430623437+426559879
2831+423402670+421108149+418947311+416753665+415200209+414659366+414611120
2818+414449212+414232747+414113417+413722581+412704701+411374224+410000889
2804+408160608+405755562+403300340+400840373+398116900+395242014+392327285
2791+389426064+386667774+383819423+380609667+377418766+374745148+372490792
2777+370285446+368043634+365965619+364087183+362336600+360917109+359896133
2764+359041648+358099073+356955512+355924525+355111572+354025504+352638499
2750+351480905+350591080+349598851+348481262+347319165+345945669+344446571
2737+343223925+342349820+341598060+340898888+340166185+339357132+338686104
2723+338097779+337339867+336540343+335910143+335495365+335302037+335173340
2710+334916749+334464880+333738550+332706639+331392606+329850529+328343590
2696+327194842+326379919+325495180+324244189+322790161+321383898+319893001
2683+318230167+316670620+315155340+313515462+312121582+311088444+309985490
2669+308645143+307388021+306416558+305403483+304171148+302989733+301963450
2656+301121730+300558996+300152982+299709094+299147686+298609215+298312238
2642+298135234+297906626+297753645+297726205+297729723+297743714+297808505
2629+298051707+298566035+299214809+299777021+300271306+300898028+301629082
2615+302368720+303189152+303985500+304644687+305346995+306161053+306972740
2602+307725706+308233400+308457002+308784434+309219959+309387897+309353662
2588+309308934+309165923+308725433+307829235+306634411+305574778+304740155
2575+303800595+302667346+301499942+300350712+299213342+297992947+296622125
2561+295329642+294343826+293419705+292323505+291512804+291314592+291154634
2548+290615802+289996116+289482653+289091033+288926412+288852012+288596888
2534+288294082+288295549+288527816+288780687+289083112+289347684+289540549
2521+289833566+290257873+290842741+291660117+292524030+293226961+293924886
2507+294788116+295571397+296113225+296686714+297363271+297902284+298265821
2494+298574518+298860801+298970622+298753010+298394398+298153708+298027825
2480+297897098+297624887+297103001+296319820+295435402+294710117+294073344
2467+293289098+292442534+291706292+291201514+290862964+290364176+289715282
2453+289193315+288742251+288196503+287668365+287274031+286862127+286375501
2440+285978191+285650658+285231074+284722858+284181875+283609350+283069733
2426+282670092+282501350+282494897+282385558+282094612+281847470+281792670
2413+281838202+281928705+282060116+282147744+282248358+282397419+282495721
2399+282632540+282862435+283058295+283258719+283463083+283391939+282927969
2386+282031570+280224881+276894227+272052171+266422975+260560708+254425829
2372+248010678+241726697+236001028+230759894+226072991+222711540+221590553
2359+223204598+227240174+233111708+241030219+249633407+254362747+252395296
2345+246417881+242381803+241897188+242877817+244338800+246013375+247426896
2332+248646084+250785211+254098999+257448892+260329869+263382282+267062884
2318+270860222+273899890+275998752+277879057+280145435+282669670+285247418
2305+287723909+289778283+291419327+292938407+294447837+295917284+297248424
2291+298391945+299440844+300428750+301277566+301958706+302494925+302923032
2278+303310914+303683597+304014387+304319888+304664448+305101802+305615185
2264+306074973+306342681+306441667+306499663+306554724+306564474+306520087
2251+306433646+306306114+306171064+306128024+306224377+306386143+306508066
2237+306483520+306348993+306300968+306359487+306397541+306483641+306732553
2224+306986872+307112473+307257313+307482665+307650140+307729365+307875793
2210+308221921+308645525+308976335+309328011+309779578+310236351+310742899
2197+311298156+311839742+312450764+313059674+313566765+314107989+314680393
2183+315164547+315677226+316356154+317092636+317771584+318427073+319054197
2170+319692377+320455093+321207054+321842721+322638989+323682902+324667552
2156+325455035+326163132+326971843+327962705+328973408+329898715+330821690
2143+331814059+332904831+334024511+335123344+336250261+337386264+338579439
2129+339958725+341388147+342613889+343711496+344864948+346037739+347257611
2116+348683816+350321502+351987975+353474087+354879064+356557317+358516968
2102+360503114+362523877+364696053+366990615+369359436+371925504+374914051
2089+378224763+381565067+385002507+388684235+392538001+396618245+400999144
2075+405535156+410250363+415175201+419973714+424707335+430020477+436025513
2062+442166524+448227606+454375894+460604432+466880211+473295704+479887940
2048+486520662+493074261+499556495+506001177+512634944+519490284+526194412
2035+532698879+539245562+545785531+552078438+557943157+563246207+568264121
2021+573490218+578657092+583286863+587784478+592526261+596936671+600801937
2008+604732737+608668683+612226176+615506373+618380053+620807533+622912728
1994+624306809+625341816+627230625+629726535+631798882+633412967+634815934
1981+636079951+637154078+637784981+638271466+639158115+639676564+638827949
1967+637542744+637177920+637529998+637929921+638003015+637507845+636723398
1954+636154411+635846559+635614855+635285774+634235931+632397299+631891836
1940+633855387+636215644+637908331+639610145+641499235+643425234+645502686
1927+647605749+649593262+652556560+656677049+661052360+667357087+675835478
1913+683243160+688754675+694446712+701561939+709371272+717052029+724607505
1900+731884921+738354691+744372392+750536360+755799084+760342614+766499024
1886+773801528+779933332+784186659+787117310+789725675+791986826+792901820
1873+791463432+787015671+782664564+783269172+786082826+786358554+784427007
1859+781867854+778566268+774438944+770082932+765078970+758711321+751045521
1846+742012979+734988857+733274741+731812230+727506394+722999772+718590930
1832+710918617+701674916+697159610+695570935+693559942+692791617+692034308
1819+689864022+687697273+685515085+681957472+678375172+677225780+677317368
1805+675984399+672326674+668324871+667378597+668559992+667134912+662033412
1792+660219666+665830569+671183836+671995663+670760754+669519172+669461276
1778+670939387+670381175+664779721+658635051+660374537+667608934+673848166
1765+675890881+674265699+674210256+676526287+678457834+680228881+679002698
1751+673739813+671415017+675369659+680508389+683310303+684113526+686159658
1738+688878990+686504460+683861197+691686934+702968726+712262924+718978912
1724+722910195+724522993+721028502+712905245+712418921+724549207+738139271
1711+746814306+749062431+747552638+748366395+749466977+746442407+748287432
1697+759016158+774397774+791510553+803501085+810454365+813018906+810058181
1684+815083613+836885788+857570172+869203841+875219210+881760063+886897347
1670+889670473+898177209+908383748+910646748+910399405+917205211+925376795
1657+923800342+908534518+899073065+913770787+924082745+926989674+938238659
1643+953247490+961111502+959810215+950650785+945949087+958606063+972904224
1630+977672824+977981441+980025482+983632147+989518296+994430187+993350432
1616+992407374+998304378+1003835433+1005658989+1006039492+1006595855+1007878004
1603+1010153629+1012819970+1014407761+1014315449+1013835960+1014939035
1591+1017399604+1018898783+1017722614+1013556211+1008392714+1005153446
1580+1001575086+992600440+985213827+988276271+990046836+986722011+989275857
1566+997976142+1004668489+1002606515+987198043+980508108+1001885150+1020671679
1553+1027747264+1028092950+1026582836+1023006647+1014075664+1000152298
1541+989129268+1000293982+1022750539+1033859287+1039211830+1048862007
1530+1055566094+1053678853+1048560225+1043565671+1040595860+1044137874
1518+1049507625+1054257570+1058742641+1058017899+1048369652+1032072881
1506+1028621973+1047148936+1061253467+1062764064+1057173666+1054936719
1495+1059763697+1061920234+1057582957+1055643288+1061284989+1067929652
1483+1071402593+1071767980+1070049360+1066596844+1060085823+1051925496
1472+1052278178+1060351580+1062691292+1058399528+1057204624+1057348077
1460+1047368216+1028981731+1022688703+1029168444+1032165354+1030407253
1449+1026778877+1023706623+1020961319+1015890133+1007434458+994341092+978313859
1435+969234759+965218965+958425702+953216853+952036906+950561046+950008383
1422+949499705+948273682+956266593+971510866+982219651+987269769+990767236
1408+992830094+993225312+996740630+1003409819+1007116595+1008221760+1010530193
1395+1014632027+1021365464+1028521620+1031791363+1030905237+1029772168
1383+1031331896+1035651080+1040224523+1042441368+1044199388+1048927863
1371+1052846361+1052882304+1053077863+1053446145+1051878456+1052331490
1360+1055699737+1057890850+1057513804+1054550989+1050371639+1047543914
1348+1045828028+1043578215+1040697017+1036481643+1030664004+1025901596
1337+1024222780+1024462806+1023826676+1021171915+1019324558+1020939849
1325+1024949613+1027732228+1027219850+1026507411+1029042119+1033359454
1314+1036845582+1039602144+1042991377+1046718417+1049517596+1051834069
1302+1054027193+1054797689+1054541018+1055329204+1056696187+1056552975
1290+1055540523+1056318015+1060143236+1065908608+1071119949+1073741823
1279+1073494319+1072293866+1071609812+1069972086+1066712555+1062381470
1267+1056431957+1049810774+1043865282+1038553346+1034434626+1031608509
1256+1028746368+1025249143+1021327188+1016429127+1011873294+1011060341
1244+1013194282+1013517131+1011020216+1009182589+1009609007+1010319356
1233+1010183461+1010542656+1011173961+1010480016+1009633211+1009843243
1221+1009432103+1007691773+1006444039+1006970971+1008435251+1009306100
1209+1009277071+1009552398+1010744327+1011196878+1010193593+1009379434
1198+1008697712+1007973211+1008756009+1009522324+1008015989+1006128588
1186+1005496800+1004390589+1001935648+1000167576+999791334+999463178+998608492
1173+997326905+995869138+994169737+992450876+991123455+989084640+985305977
1159+980951412+977537010+974795486+972566258+971622155+970883984+968166582
1146+963732089+959586190+956592739+954624203+953235267+951653185+949313554
1132+945977150+941545391+936281943+931873664+929319094+927010099+924062883
1119+921306241+919290745+916664931+911720634+906218849+902168076+898815670
1105+895644350+893305763+892397443+892084726+890846963+889524286+890158245
1092+892252302+893684337+893836877+893737489+894621605+896348185+897662660
1078+898224973+898171097+898022579+899670356+903517529+906825065+908543202
1065+910894735+913258651+913603613+914717624+918240259+920530438+920322576
1051+919824190+919146006+918687343+920352971+922441400+922646287+922310572
1038+922531138+923477895+924531035+924069477+922328342+919536963+915685126
1024+913409421+913476886+913379347+912452452+911377360+910010618+908420656
1011+907945027+909421208+910652940+910417577+910355822+910235045+909530486
997+909332193+909104952+908387125+908387849+909505156+911806593+914970033
984+917553149+920203649+924582819+929015061+931750153+933685479+935064845
970+935800282+936680620+938397792+941028510+943418560+944802911+945857257
957+947275060+948296920+947784462+947180738+947554648+947366407+946622205
943+947264768+949011772+949340491+948243367+947845735+948734274+949175327
930+947041467+944333152+943314991+942136329+940817352+940899290+941099995
916+940665295+940521279+940063903+938443384+937208597+937267377+936439307
903+934080939+933149381+934603931+936238039+936454022+935422834+934676622
889+934488300+933268228+931196042+929789819+929256213+929565633+931273478
876+933278520+933628146+933082640+933046133+933358609+933916017+934271030
862+935011453+938445395+945029991+952929304+959596000+964299387+969532922
849+976746653+985060644+993733750+1001881371+1008493307+1014327109+1021113858
835+1026839909+1028085392+1028979640+1034596252+1040453533+1042907911
824+1045693260+1048896423+1049276927+1046606324+1042687666+1039977019
812+1039669367+1040186971+1039757176+1039255975+1039231933+1037646795
800+1033858000+1029544445+1026524940+1025887042+1025008393+1020392091
789+1013934222+1007782235+1001294372+995107487+989553757+983607943+977320303
775+971206512+964503470+956852385+949402970+943664375+941718113+942249709
762+940028039+935522544+933284712+932188793+929566437+927149290+926297096
748+925524590+923289814+920174620+918743952+919432509+919931217+919647688
735+919207600+917569150+914264429+910622062+906364392+900503492+894619756
721+891282387+891387645+892224480+890668773+888518589+889623754+893971967
708+897619882+900101117+905062220+910440897+911373983+910357993+911655823
694+913853288+915501146+917952308+919976247+920532689+921647263+923583313
681+925237845+924564164+919535435+915689307+918904854+921444628+915950964
667+914319349+921480089+926109820+928489174+930996141+931395782+928186749
654+924623266+926254720+933212905+937763833+933908860+926709604+924160341
640+926068408+930292225+939029659+948956851+949654415+938545345+927883038
627+929976372+940909020+947938047+946255532+940860934+938684617+939438307
613+940164255+942570306+945687510+948599908+954788803+962173487+968143826
600+973839562
##END=
