##TITLE=Sample description
##JCAMP-DX=4.24
##DATA TYPE=INFRARED SPECTRUM
##DATE=13/9/2023
##SAMPLING PROCEDURE=Instrument type and / or accessory
##ORIGIN=Default
##XUNITS=1/CM
##YUNITS=ABSORBANCE
##RESOLUTION=4
##FIRSTX=4397.6552
##LASTX=599.8556
##DELTAX=-1.9287962
##MAXY=1.6478257
##MINY=0.25808963
##XFACTOR=1
##YFACTOR=1.5346573e-009
##NPOINTS=1970
##FIRSTY=0.28517398
##XYDATA=(X++(Y..Y))
4398+185822583+185790230+184319958+182246729+181506554+182586125+183737411
4384+184042123+183845636+183312318+183101247+183447672+183784174+184270730
4371+184919750+185303752+185424230+185055531+183897836+182794302+182674988
4357+182448207+181454723+181282958+182053738+182722139+183235844+182858678
4344+181845891+181601516+181270976+180298504+179925066+179910269+179177026
4330+177890696+176788715+176322724+176548612+176559720+175559304+175058280
4317+176006613+176862238+177122925+177014215+175962162+174697989+174230367
4303+173963368+173644596+173817741+174253379+174404250+174239766+174040774
4290+173942939+173871067+174164535+175041191+175242338+173994400+172972118
4276+173066244+173221309+172823247+172068838+171842153+172152808+172021551
4263+171707731+171362938+170573534+170131623+170816394+171773195+171986868
4249+171819180+171852096+171883711+171393523+170469639+169883228+170066723
4236+170744076+171386358+171797314+171956729+171800984+171649550+171972439
4222+172277831+171902296+171693380+172024095+171883206+171404631+171769039
4209+172733976+172579338+170980082+169239237+168435948+169160180+170703586
4195+171423391+171007871+170700809+171006725+170987073+170559396+170454007
4182+170364405+170222293+170721569+171673145+172494358+172727859+172037630
4168+171270908+171247120+171278230+170858146+170461075+169969004+169123963
4155+168489197+168174115+168242394+169200864+170475174+171190842+171524955
4141+171665144+171525615+171159207+170497196+170071772+170628239+171473726
4128+171525751+171137691+171303669+172041378+172800565+173324058+173288675
4114+172872243+172816120+172843366+172516516+172429924+172395960+171871069
4101+171870700+173092460+174416969+174812157+174714943+174581026+174077768
4087+173751481+174491676+175699377+176511773+176833497+176701716+176308101
4074+175871045+175520834+175807155+176739584+177111662+176690957+176582927
4060+177203555+178066190+178589624+178722493+178682683+178532298+178194942
4047+177572701+177418898+178319266+179526966+180218360+180117533+179775497
4033+179927047+180297824+180418866+180189055+179910677+180231041+180678835
4020+180454326+180182997+180258150+180362200+180577155+180987703+181599632
4006+182353343+182723304+182281121+181764931+181861038+182072711+182102229
3993+182016530+182073507+182763386+183850414+184701882+185050793+184846286
3979+184316657+184044997+184101586+184295237+184917963+185501714+185526474
3966+185549370+185737584+186025750+186526075+187061666+187309129+186926195
3952+186004001+185220694+185555312+186057812+185423104+185964074+188317371
3939+189629025+189124661+187498780+186370777+187603917+189384746+189057547
3925+188362638+189398457+189587059+188052081+188342578+191679843+194992116
3912+196201506+195318966+191177421+183236407+176727019+177041208+182656190
3898+190172538+194858335+193212996+189926241+191760590+193138580+190614876
3885+189676467+189230381+189576378+194251067+195559361+191231058+187232305
3871+185331677+187482293+190589748+190335488+192051902+197456882+199684496
3858+194395762+181606293+174084255+186316558+200629916+206231344+203728710
3844+197496828+191702234+187015175+186188739+190988256+195665877+198205000
3831+200995800+203615824+204911184+202354254+193657490+189277007+194688841
3817+199683253+205400071+212358166+214259668+209366743+203466138+201818139
3804+199262121+198529325+204729612+210024152+214368146+219820509+222870870
3790+223368709+222697046+221814137+222604318+223060677+222153435+224819426
3777+230090643+232003098+229603194+227051681+228704769+232838468+237602001
3763+240848422+239545624+238700700+242490557+244479544+240936684+240844519
3750+255235691+272564378+289997386+317850487+342698416+352693221+351549022
3736+349559569+358800740+376563162+391775140+400260620+405908091+414394503
3723+428131140+446332288+464851489+478773350+485374903+488382910+500178721
3709+524255636+549800939+570194358+587583381+606488293+624844409+637416418
3696+643513063+643039770+634355900+625674322+631451593+644052654+649874085
3682+648918683+644396729+634694111+624272349+627023863+634143412+634177940
3669+636697973+644476932+649686609+650180487+647168984+641433892+634942564
3655+631094934+624561894+610215250+599889265+605152035+614432900+619306620
3642+620795243+620727236+618859932+614648807+608482601+599507011+587890404
3628+585162349+591650103+594423677+589936290+581800595+578780975+580922677
3615+580013998+576457234+574052513+573342031+576243153+580200426+579834795
3601+577395741+576916234+575480898+572255974+571336071+570391194+564866688
3588+561135419+566048250+572227427+573793845+573153622+573164963+572753114
3574+571253421+569568195+565950064+559790151+557837672+562038427+566003157
3561+567930934+569343433+569930951+568686548+566104372+563262091+560626278
3547+559909309+562687933+566878823+569470942+569668594+568996134+569507411
3534+570548065+569803676+566537233+562326497+559839205+560086493+562103871
3520+564579007+566334416+565907264+563208454+560925145+560577457+561273842
3507+561607042+560743922+560654398+562264082+562822083+561151693+559118740
3493+558058783+556981427+556110616+556832168+557883503+557702668+556700076
3480+555797457+555323154+554686310+553634199+552939640+552410730+550682702
3466+547992476+545626517+544000209+543694895+544453034+544828918+544689564
3453+544047166+542185881+540083057+539523270+539612444+538467041+537061883
3439+536395366+535636529+534715227+533815443+533184230+533533821+534130505
3426+533259850+531167085+529706348+529499103+530024984+530340629+529577014
3412+528187702+526668318+525274306+524787808+525193948+525560550+525310893
3399+525067916+525790982+526848920+527007538+526563336+526128067+525563696
3385+525143652+525010317+524926114+525466288+526747899+527143980+525496777
3372+523119321+521819495+521923272+522376563+521701968+520513803+519958987
3358+518963426+517605845+517575201+518669725+519033413+517925646+516946164
3345+516590087+515404370+513917300+513176445+512684276+512460136+511861626
3331+509743654+507623586+506566619+504913551+501951452+498624653+495783926
3318+492802057+488676611+484913805+483228734+482803873+482114674+480485958
3304+478107260+475607617+473936955+474201643+475627658+475846516+474784812
3291+473846382+473032626+472132492+471554218+471864464+472414231+471368955
3277+469036631+467645571+467621297+467451531+466766760+466200331+465081106
3264+462901225+460176121+457215963+455076980+454664432+454598366+453291665
3250+451336351+449679827+448167744+447069182+446776607+446096652+444299530
3237+442580591+441263558+439837737+439108418+439107951+438517171+437508481
3223+436961084+436258019+434672647+433489377+433577697+432958524+430646474
3210+428444377+427885172+428984590+430135740+429671653+427964016+426444671
3196+425966523+426163825+426035151+425245010+424156234+422940960+421460066
3183+419804629+418245007+417101236+416645459+416626817+416413979+415502970
3169+414409573+414364014+414999577+415070846+414774699+414442663+413832424
3156+413410399+413385697+412967595+412137138+411621588+411379893+411008125
3142+410156540+409204750+409272447+409520123+407989204+405542965+404323613
3129+404093258+403377221+402057431+401173027+400936264+400366379+399134598
3115+397801175+396790933+396189898+395468074+394278628+392822086+391210925
3102+390036121+389701445+389489889+388834674+388073001+387760230+387927316
3088+388320483+388780649+389036404+389145153+389490665+389995029+390265039
3075+390105177+389714922+389331037+388789387+388070904+387376733+386416515
3061+385170713+384285727+383713783+383211399+383105485+383116399+382733291
3047+382147753+382062346+382954596+384143653+385001958+385986062+387012656
3034+387226154+386741132+386372472+385881313+384804578+383809599+383568369
3020+384004920+384825318+386076596+387983089+390258164+392463640+394650667
3007+397286674+400804872+405076236+409632524+414680242+421298612+430154306
2993+440752320+451985274+463163039+474121285+484185495+492640758+499055922
2980+502951985+504970567+506240294+507377695+509201733+512312042+516893731
2966+522838554+529215733+535565647+542431383+549442649+555933588+562149779
2953+568500820+574990671+580816957+585422182+588501847+588902550+586278544
2939+581707692+575994078+569590760+563903906+559793452+555299928+548749333
2926+541924728+536797195+532650621+528100275+522968043+517656802+512383040
2912+507313339+502430881+497448917+492842217+489239622+486312361+483932692
2899+482344368+481609689+482233211+484962548+489782903+495721822+501824992
2885+508052291+514909832+522412373+529772452+536410707+542509411+547711708
2872+550581798+550860740+550176823+549067230+546513951+542164714+536159108
2858+528566422+519608775+509101761+496781274+483213820+469423352+456060579
2845+443335466+431292406+420009893+409594423+400073532+391577216+384286232
2831+377969952+372187010+366998889+362535232+358402252+354513530+351449439
2818+349573162+348366278+347182580+346204379+345690189+345585207+345878714
2804+346295146+346536880+346484603+346021253+345282184+344351057+343021790
2791+341205365+338862632+335918282+332566044+329350713+326730786+324439864
2777+321954708+319443918+317336666+315593239+313986584+312514214+311248022
2764+310070053+308821552+307630416+306645671+305794824+305185556+304915488
2750+304683444+304136338+303343808+302637480+301890974+300932426+299999551
2737+299069064+298128130+297397237+296877687+296426125+295787863+294927888
2723+294210919+293728966+293167333+292343537+291438956+290766633+290361095
2710+289974569+289461718+288858120+288196982+287521222+286859307+286047843
2696+285029638+284031513+283017289+281790441+280517821+279506296+278763053
2683+277968813+276988846+275966602+274940513+274044360+273327002+272388689
2669+271161123+270124547+269347591+268433009+267322056+266378228+265689884
2656+264972255+264216699+263602440+263087589+262679061+262533317+262530424
2642+262268551+261750496+261357426+261087125+260783035+260569925+260511802
2629+260564468+260657526+260650283+260562895+260568993+260791851+261186961
2615+261538959+261793744+262162074+262659991+263074054+263401001+263693265
2602+263935834+264212854+264570542+265042048+265480619+265669921+265820907
2588+266036387+266107190+266095500+266040387+265805100+265539887+265307824
2575+264877759+264387494+264075402+263731599+263309749+263098930+262960916
2561+262624181+262284786+261930884+261373000+260877550+260628203+260454612
2548+260306402+260267116+260269349+260202857+260142035+260140074+260069425
2534+259918147+259879638+259963065+260069969+260304887+260610687+260772626
2521+260889648+261122275+261430171+261803861+262206253+262526540+262832475
2507+263208903+263537617+263762282+264036816+264370191+264528887+264686749
2494+265171615+265624188+265737190+265790574+265989993+266242098+266344264
2480+266351663+266420039+266373626+266153195+265997955+265966651+265948086
2467+266013413+266217474+266345565+266303405+266175158+265957446+265749211
2453+265725111+265782865+265693884+265493378+265345245+265256887+265192724
2440+265242497+265464947+265665182+265623663+265439430+265322175+265295415
2426+265278714+265198143+265073042+265030047+265105744+265274850+265551073
2413+265818907+265967933+266134125+266426486+266707273+266851482+266979787
2399+267216977+267470791+267697708+267920663+268015334+267920197+267657082
2386+266970660+265286463+262163492+257739179+252468486+246702322+240753849
2372+234840214+229126386+223837011+219040892+215013340+212327250+211446594
2359+212644585+216019738+221738653+230012849+238736470+243176085+241000710
2345+235101387+231042472+230425922+231729593+233843739+235871294+237285249
2332+238413757+240393383+243426384+246319350+248630992+251311451+254939349
2318+258915808+262392351+265058846+267357944+269882599+272662233+275380676
2305+277776657+279791628+281576418+283257198+284820431+286333853+287851839
2291+289143257+290124274+291094901+292136370+292971371+293523915+293989634
2278+294458674+294904022+295315172+295727371+296147182+296497996+296744683
2264+296991874+297387314+297794949+297983784+298096321+298343123+298624726
2251+298740330+298722911+298695316+298691354+298770411+298926350+299163851
2237+299489186+299705481+299750767+299785276+299788577+299754981+299874431
2224+300102727+300257559+300374134+300535511+300743338+300967420+301208300
2210+301504234+301876118+302342867+302869272+303309202+303616438+303996731
2197+304599999+305252301+305705941+305996476+306373468+306948461+307580625
2183+308192981+308884627+309573243+310095473+310558007+311140108+311882614
2170+312829374+313928053+314844053+315500122+316231209+317075415+317848604
2156+318659835+319669787+320804800+322043688+323354390+324493772+325464205
2143+326512433+327681139+328831785+329913530+331122862+332541730+333881911
2129+335089728+336473564+337956944+339238866+340451732+341852463+343375730
2116+344812620+346191096+347741707+349547140+351479811+353423511+355397701
2102+357428945+359516933+361708038+364153073+366959234+369891039+372759226
2089+375768049+379041910+382477924+386104987+389983727+394007260+398235085
2075+402835106+407721720+412800587+418077028+423364384+428664362+434392229
2062+440537656+446843566+453312988+459782293+466241462+472933160+479857270
2048+486809307+493646185+500468693+507553598+515046584+522569865+529636127
2035+536259274+542743571+549242278+555688202+562266685+568947352+575125714
2021+580607187+585694793+590748532+595923836+600958038+605618143+609958291
2008+614159706+618245808+621937228+625139469+628112755+631087322+633826213
1994+635504022+636421556+638217124+640868395+643080007+644635240+646032708
1981+647362169+648307162+648831023+649143600+649380868+649342806+648727517
1967+648141086+648335282+648783251+648794398+648458207+647923471+647266547
1954+646750881+646562589+646420050+645859292+644736532+643336928+643214002
1940+645322885+647946813+649968270+651822951+653716356+655754396+658331756
1927+661064006+663172424+665635519+669096934+673237566+679588451+687790017
1913+695044299+700972227+706957170+713659549+720660056+727719133+735051947
1900+742345612+748862262+754860722+761028364+766307447+770754286+776760980
1886+783728551+789533359+794265743+798024898+800777189+803199348+804941513
1873+804165819+800096263+796496348+798080671+801967063+803433470+802202505
1859+799582500+796301143+792689421+788824469+784711723+779815749+772808329
1846+763556632+756931620+756215739+755334714+750996391+746104844+741577764
1832+734520396+725839245+720684991+717912271+715582083+715443582+715286673
1819+713007519+710084181+707240540+703636975+700324469+699293836+699207613
1805+697625310+693955019+690068161+689049257+690019457+688588859+683757125
1792+681960896+687096973+692098123+692973711+691989995+691000298+691071374
1778+692451403+691769545+686272031+680402673+682472096+689953042+696016130
1765+697556332+695378936+694826490+697042180+699116652+700850583+699809385
1751+695199500+693310135+697178661+701852398+703993906+704384394+705823536
1738+707402732+704047581+700297903+706739749+717217129+725660430+730679213
1724+732819711+733722797+730484785+722345672+720743172+731455451+743644002
1711+750825577+752060503+749780185+749006200+748141487+743824293+744658944
1697+754269669+767828462+781612677+789905049+793430315+793086123+787225154
1684+786594175+800589752+815029027+822607071+825729032+829863450+833879797
1670+837269825+847706812+861072265+868451763+873799436+882990155+891270332
1657+891920265+883918098+882817477+898592970+908410009+913882199+928452283
1643+944014395+950290942+947777745+940180359+939608803+953458268+965580404
1630+969499420+970482437+971391038+972137991+976165679+981091404+981913704
1616+984144697+991777971+997141412+998371445+999462511+1001835733+1004125451
1603+1006891491+1011294908+1016805239+1021642566+1024574915+1026868750
1591+1029373636+1030423766+1028730461+1025408634+1022816748+1021724905
1580+1018853378+1011047348+1006480030+1011352235+1013978221+1012839460
1568+1016499420+1023120081+1027521867+1025480875+1012836431+1009200240
1557+1030143970+1047870427+1056271781+1059105246+1057561083+1051117605
1545+1039338495+1024715590+1012819574+1018276385+1033337472+1038471142
1533+1040214782+1049165865+1055192211+1051425366+1044135896+1037050020
1522+1032625863+1035787673+1041612367+1047553578+1052853556+1052702239
1510+1045509167+1032719543+1029913188+1047241778+1060974958+1062893919
1499+1060093389+1061388750+1064968856+1063060460+1056487960+1055062022
1487+1062867819+1071054160+1073741823+1072779935+1070085514+1062771575
1476+1051364389+1043830466+1047573463+1056186413+1058172410+1053126672
1464+1049300248+1047166275+1036988266+1017884576+1010853308+1019361626
1452+1022634360+1018183482+1012607203+1008772389+1004813136+998657844+990649463
1439+980032340+967028324+959435288+955784261+948078670+940233957+938422192
1425+940244599+943086685+944110017+942686177+947344534+958552554+967825690
1412+973786864+978317130+980383834+981585592+987842020+996443318+999292319
1398+997673584+997859002+1002765773+1010482706+1015125449+1015049247+1013955384
1385+1014803629+1017445617+1020924975+1024431288+1027905209+1031613174
1373+1035609713+1038451877+1038721110+1037729083+1036328080+1035065345
1362+1036385639+1039133270+1040585773+1041413356+1042027634+1041054949
1350+1038599155+1035986840+1032374808+1027145672+1021266759+1015594081
1339+1011141028+1007094387+1002770900+1000107784+1000119280+1001537139
1327+1003420134+1006570603+1011183596+1015205225+1016665418+1017010076
1315+1019282938+1022785677+1025038187+1027397038+1031821429+1036153149
1304+1038337924+1039119055+1038473550+1036346101+1034802948+1035062781
1292+1036295455+1037644103+1039120142+1042971656+1050110819+1056442052
1281+1059816001+1061854197+1062136013+1059951083+1057250137+1056175538
1269+1055756387+1053205671+1048144320+1041892707+1035195688+1029959795
1258+1027471376+1025329791+1021643032+1017592895+1014373758+1011795932
1246+1009384337+1007771118+1007368513+1006459989+1003672122+1000693710
1234+1000117959+1001824625+1003505036+1004020663+1003948578+1003893194
1223+1004371225+1005587897+1006457659+1005907698+1004221850+1002525049
1211+1001954425+1002250457+1002299627+1001991167+1001802798+1002014704
1200+1002410318+1002689804+1003266487+1004122499+1004009944+1001930501
1188+998478796+995355902+993464906+992207220+990995519+989438228+987246618
1175+985724593+985426386+984508697+982481376+980432227+978621472+977030625
1161+975917808+975153921+973687048+970536812+966904117+965048775+964330019
1148+962662814+959860032+956420445+953110425+949916146+946329825+943916288
1134+943445248+942807510+940432580+937282188+935091355+934174597+932655136
1121+928735109+923405381+918021044+913355075+910567441+908774319+906350218
1107+903753749+901291897+897959428+893625999+889673891+887488262+887173588
1094+887762310+888611876+889925801+891648624+892585811+892059697+890939501
1080+890215852+890639741+892177224+894332714+897011832+898923413+898724402
1067+898587844+901506211+906144682+908876776+908940006+908851764+910490073
1053+912979346+914560795+914166967+913300701+914487778+916837308+918434991
1040+919465935+919761190+918262390+915933367+914690517+914158500+913217818
1026+911976988+910583675+908937676+907610856+906103279+903122615+899841102
1013+897249450+895056208+894687237+895639182+894167648+890107879+887142594
999+887394582+890302618+893169251+894215886+895882315+900514183+906223370
986+911150493+916014852+920639263+923942214+925433168+925652298+926386434
972+927817420+928754995+928724390+927719701+926870912+927322844+928326989
959+928111354+926439177+924976576+924098736+923184775+922789704+922830252
945+922517132+921653040+920410501+919769657+919457546+918115501+916425691
932+915029582+913504140+911734787+909629943+907446955+905313293+903309974
918+901793231+900703252+899721478+898451907+897478522+897827453+898139330
905+896731492+895044401+894417073+893846837+893443688+893976249+894210371
891+894002271+894917553+896961186+899307454+901076340+902027275+903561107
878+905684594+906995956+907818412+908868465+909597396+909857074+911365428
864+915347752+919534059+921568449+923494400+928489724+936073750+943158072
851+949445727+957597968+967254756+976386751+985642565+995336871+1003284896
837+1009072770+1014999766+1019436274+1020093586+1020806283+1024294497
826+1028287618+1030221725+1030854724+1032183642+1032438348+1029340933
814+1025482117+1024022080+1023448737+1023425046+1025417722+1026429946
802+1025722920+1025337248+1023264252+1018273355+1012531622+1007611024
791+1003251339+999953515+998167384+995346892+989836173+982898119+974650567
777+965833013+959369495+954569453+948787949+942910667+938254485+934869506
764+932389632+929843266+927470199+926516467+925732850+923564000+922664099
750+924902005+926852736+924692896+919864424+916204619+914370095+914655873
737+916827831+916208659+910989854+906028708+903713279+901316288+897767640
723+894226295+890865241+889371024+890428767+890739946+890757889+893672062
710+897126718+899107277+901755946+904652174+906414458+908777426+912268669
696+913555252+911438523+909910594+911401859+913351813+913822154+914841135
683+917662016+920037180+919800883+917956649+916807091+915772962+911169757
669+904094911+906654483+915285610+916138826+913982559+915108969+916309562
656+914658825+913575992+915344256+916787982+917297706+919413114+920647186
642+918564092+917438226+917693476+922510684+948070591+979551513+973248788
629+946685357+932388234+925793517+920737060+914960294+907137253+904347676
615+909421067+914845796+916694302+919055406+925470143+930762664+928277197
602+924149848+923990297
##END=
