##TITLE=Sample description
##JCAMP-DX=4.24
##DATA TYPE=INFRARED SPECTRUM
##DATE=13/9/2023
##SAMPLING PROCEDURE=Instrument type and / or accessory
##ORIGIN=Default
##XUNITS=1/CM
##YUNITS=ABSORBANCE
##RESOLUTION=4
##FIRSTX=4397.6552
##LASTX=599.8556
##DELTAX=-1.9287962
##MAXY=1.6936193
##MINY=0.31128755
##XFACTOR=1
##YFACTOR=1.5773058e-009
##NPOINTS=1970
##FIRSTY=0.33018014
##XYDATA=(X++(Y..Y))
4398+209331716+207971372+207326467+207166280+206806964+206011338+206041985
4384+207337898+208737807+209632648+210056299+209698967+209276317+209606290
4371+209750209+209169601+208533501+208641861+209630116+210329626+210067503
4357+209367559+208955489+209079286+208840611+208094810+207500277+206265185
4344+204592629+204635047+206223390+207147404+207506437+208122925+207564480
4330+205484032+204286974+205443427+207300695+207645046+206752794+205826834
4317+205575122+206227131+206534147+205695139+204597032+203839742+203405982
4303+203541645+204578591+206044668+206927208+206760106+206351910+206649611
4290+206773823+205888996+205223345+206023147+207484746+207972374+207297445
4276+206463010+206120113+205613780+204675727+204546357+205188504+205908533
4263+206683092+206725964+206262502+206323682+206249842+205358894+204347172
4249+204201817+204888894+204944293+203955452+203717552+205085453+206710584
4236+207225287+207141075+207612661+207963266+207321706+206424389+205594318
4222+204634575+204412924+205015204+205385346+205856347+206549376+206747182
4209+206718538+206428584+205633128+204774847+204506660+205109714+205676453
4195+205301266+204442418+204025777+203951843+203615597+203094262+202574287
4182+202330737+202659179+203460039+204429778+204909792+204599469+204167334
4168+204210357+204373718+204485706+205004207+205235777+204334248+203331028
4155+202839527+202311389+202414005+203528059+204496211+204776945+204612204
4141+204641094+204880392+204288693+203276083+202825772+202808389+203211256
4128+203888868+204201760+203774367+203135716+202855266+202362442+201804886
4114+202385323+203688095+204079192+203179249+201968058+201293848+201246574
4101+201536944+201994832+202454420+202459994+202278286+202822465+203588484
4087+203383101+202517925+201854068+201627014+201943949+202655608+203180723
4074+203217869+203071097+203055698+203250122+203472982+203298209+202871534
4060+202806594+203132448+203194195+202688182+202443707+202968897+203548995
4047+203800442+204095498+204480264+204398054+203746800+203237406+203151323
4033+203263367+203363829+203346389+203766035+204614925+204749019+204182223
4020+203709881+203374712+203467673+204112219+204365650+204001044+204169961
4006+205183799+205780372+205411874+204862858+204335608+203592546+203040980
3993+203308109+204506849+205734761+206059575+205820920+205696972+205365412
3979+204420822+203613765+203668521+204506338+205606392+206051753+205845671
3966+205772814+205692759+205521745+205613345+205643161+205529851+205681630
3952+205884821+205888165+205950214+205783452+205435983+205856403+206513628
3939+206585181+206360715+205416805+204277772+205092387+206943514+207014198
3925+206274254+207003070+207508685+206573202+206462991+208166193+209808668
3912+210161541+209502125+207802588+204735811+201842769+201283645+203470375
3898+207326977+209457836+207679510+204935545+205397722+206474762+205739995
3885+205341284+205308483+205758020+207869758+208182121+206036071+204430383
3871+203675512+204506849+206393270+207348630+208740716+210608584+210455841
3858+207397434+201448461+197353959+202114320+208611894+211755779+211094492
3844+208119580+205246037+203307675+203003134+204975809+207397340+209295533
3831+211028399+212342244+212760264+211286951+207739046+206486117+208556212
3817+209900174+212234923+215357741+215925387+213639650+211025943+210080862
3804+208335619+206758443+208802860+211308245+213653197+216540061+218083265
3790+218399293+218336979+218213523+218925636+219427132+218735747+219180730
3777+221395216+222760623+222208924+221420969+222317397+224120532+226150533
3763+227693075+227565065+228379227+232170492+235757414+237612320+243863661
3750+261574051+282430082+306481995+337194731+356762916+361254505+357407784
3736+351027960+349269265+353501735+359150948+362054836+362044633+361969962
3723+364264843+369324134+375733320+382177498+388544020+397658134+414542364
3709+437911961+463818251+491197099+519215637+543432235+558093986+561828096
3696+556581561+545794948+530661327+512586898+499778466+495609860+492871563
3682+486076515+475179558+462169559+448853206+442095456+439501664+432971025
3669+427377815+425544714+422200132+416975666+411438648+404627087+396687753
3655+391131614+386103197+377202325+368688714+368292082+371949669+373538465
3642+371973702+369375791+367211357+364939375+361688661+356860185+350531263
3628+347459820+347994835+346342326+340306646+331278161+324039018+319530765
3615+315195718+312392292+312018881+312848045+314454092+315493022+314820058
3601+313362484+311585726+308661829+305350105+303081486+300496461+295684537
3588+291020216+289189892+287823407+285652870+283432734+281268923+279043271
3574+277196490+275510954+272507663+267885797+265020549+265474431+266144598
3561+265236248+263314324+261372787+259571296+257918391+256596592+254837783
3547+252785733+251776316+251568779+251194896+250450209+249527933+248786081
3534+248203244+247188253+245721930+244369352+243140590+242033810+241321791
3520+240741259+239982931+239394482+239005238+238239861+237269820+236727153
3507+236196068+235213198+234792154+235316399+235355605+234373755+233337678
3493+232763589+232228007+231630716+231411314+231513192+231504558+231407516
3480+231199375+230533232+229773996+229570409+229730520+229768574+229653204
3466+229529294+229361285+229185642+228764334+227817873+226996720+226954642
3453+227317227+226985459+225561763+224335985+224237923+224924888+226085082
3439+227003239+227150483+227047225+226934898+226649875+226327196+225970657
3426+225444239+224944443+224881619+225295710+225745511+225868212+225751331
3412+225766087+225991725+226125497+226151610+226447213+227062945+227528221
3399+227519190+227129265+226720937+226889608+227617819+228210575+228586669
3385+228873506+228943925+229099295+229496758+229762565+229818172+229968666
3372+230195305+230248398+230178054+230183496+230386006+230810054+231409575
3358+231938450+231991052+231787445+232053970+232772035+233178814+233008518
3345+232714426+232432521+231802807+230958792+230693381+231067642+231139555
3331+230670935+230165999+229544750+228380417+227110238+226748277+226891195
3318+226137722+224480849+222887348+221690631+220770339+220134692+219597636
3304+218813233+217808218+216873472+216343048+216284910+216453694+216785386
3291+217222113+217345021+216857317+216126556+215811472+215833994+215535179
3277+215232489+215720609+216799179+218052316+218981375+218801632+217980309
3264+217823976+218352530+218717627+218609022+218199938+218153099+219039381
3250+220094125+220236249+219820515+219849159+220327887+220612324+220511334
3237+220451835+221088616+222389328+223556117+224271272+224729821+224864444
3223+224742405+224752438+225097507+225915750+227374250+228951540+229656019
3210+229641036+229995175+230909912+231893708+232905619+234018464+235087814
3196+235981994+236576734+237084485+237929501+238908082+239652902+240451910
3183+241456868+242222131+242694870+243416751+244556596+245549065+246061067
3169+246631641+247426342+247926213+248342458+249236373+250417937+251617376
3156+252865562+253939787+254523266+254537154+254301370+254379309+254862081
3142+255404673+255821485+256035124+255926935+255710877+255787210+256145506
3129+256492011+256606530+256438672+255962834+255373138+254984215+254632268
3115+254217082+253740129+252989056+252274997+251966262+251577320+250500676
3102+249041345+247938022+247388515+247137049+247087016+247366314+247733490
3088+247846006+247793121+247742710+247925401+248445811+248923424+249121476
3075+249355049+249760127+249972633+249935373+250029619+250231052+250193415
3061+250071168+250136448+250174369+250151488+250270901+250202635+249601433
3047+248937916+248672128+248442825+247835671+246938789+246041927+245171554
3034+243965899+242489430+241304919+240382775+239464581+238788651+238542966
3020+238830143+239441227+239337100+238037124+236410936+234990413+233504743
3007+232220147+231612029+231372523+231221972+231359826+231905630+233000374
2993+235028145+238058966+241335981+243994864+245748061+246655467+247178201
2980+247779573+248302950+248498885+248273531+247478264+246222841+244831775
2966+243469996+242253552+241612199+241719897+241755665+241235104+240754127
2953+240566864+240479156+240521725+240710518+240817574+240586382+240156268
2939+239656284+238897483+237953686+237027537+236384710+236319354+236425239
2926+236243115+236036240+235935683+235719266+235311770+234735225+234119190
2912+233758080+233927336+234580460+235248247+235630670+235920946+236357049
2899+236852385+237107630+237291020+237842398+238477988+238810511+239101977
2885+239476276+239814808+240188332+240488679+240586344+240654137+240783659
2872+240903166+240882439+240663547+240352865+240036308+239797709+239635027
2858+239320416+238745420+238188468+237861141+237518566+237115623+237096105
2845+237388440+237468477+237500900+237897532+238497563+239113503+239872209
2831+240718888+241386184+241831299+241993621+241807020+241706010+242069029
2818+242698630+243161393+243308505+243432811+243648586+243880421+244396428
2804+245301718+246192232+246889834+247500521+247907829+248195856+248684277
2791+249178877+249144130+248608416+248244849+248341060+248450402+248234741
2777+247869927+247713046+247889634+248098247+247892959+247363159+247091797
2764+247220014+247401817+247489619+247536194+247610487+247760887+247953100
2750+248145691+248236422+248022084+247527635+247156982+247149595+247182660
2737+247013252+246871582+246794795+246660569+246710412+246941756+246914623
2723+246628599+246386958+246256643+246278844+246351985+246296718+246197088
2710+246145430+246211296+246389981+246454846+246287970+245982447+245712993
2696+245546892+245446109+245416879+245310371+245010554+244684153+244379650
2683+243980070+243535559+243110548+242639263+242165240+241824894+241607192
2669+241406760+241211863+240921739+240353640+239703180+239334417+239289694
2656+239367747+239341143+239124216+238881120+238794036+238684202+238404224
2642+238264424+238453388+238787611+239037415+239077660+239018842+239027023
2629+239043858+238941204+238803180+238885541+239226208+239634763+240076836
2615+240542112+240870932+241101520+241439768+241805092+242053743+242402422
2602+242983029+243586291+244175023+244931651+245782355+246393042+246684413
2588+246918327+247218786+247479189+247704884+248049103+248494955+248850719
2575+249104055+249408464+249766268+250014673+250090289+250075192+249988637
2561+249840769+249683869+249444628+249150555+249116393+249496663+249996062
2548+250278213+250335860+250305062+250310201+250464078+250663962+250696064
2534+250691850+250883043+251099762+251140518+251095077+251116276+251257229
2521+251405777+251461534+251489800+251568080+251709618+251925865+252204105
2507+252431821+252582712+252797523+253090784+253363204+253636380+253931927
2494+254231498+254625315+255057733+255385420+255777820+256352759+256953867
2480+257444971+257657137+257495665+257183170+256979318+256840670+256587881
2467+256307299+256256662+256385654+256429168+256367686+256388167+256519691
2453+256568552+256522091+256638745+256983474+257344434+257557752+257671761
2440+257869038+258238557+258572611+258634622+258529097+258376827+258187202
2426+258138945+258367190+258760384+259125066+259323627+259303202+259162855
2413+259121513+259293302+259603983+259892709+260076817+260230088+260479760
2399+260872462+261460892+262705828+265869420+273010349+286463366+308061193
2386+338172027+375176311+416513092+460232652+505579930+553242232+604139717
2372+657037859+709503810+757949173+796767589+823499831+840186349+848069566
2359+844249335+821025414+779688897+730655766+685628181+661896755+670460172
2345+704057372+728677366+725476344+712961116+703049693+697694704+698270532
2332+701909073+701739703+695630222+686798579+677116611+665207289+649685727
2318+629417276+607517780+594136165+592344442+590223578+575441319+548308854
2305+519139266+497564528+483130417+470115430+456241918+440957103+423637055
2291+405862935+389870183+375771789+363238195+353299489+346474625+341847715
2278+338381642+335502620+332832948+330303586+328235626+326732119+325431275
2264+324117846+322851767+321567284+320256123+319081115+318036555+317004162
2251+316019062+315131666+314252053+313440631+312799146+312178804+311523053
2237+311003531+310767880+310741371+310758300+310757507+310653625+310441327
2224+310279874+310289604+310448828+310604934+310711310+310968690+311482373
2210+312074582+312576192+312971539+313289740+313580318+313959114+314478692
2197+315111203+315923551+316848339+317680772+318429521+319165611+319916288
2183+320795635+321777920+322625487+323316117+324057724+324957288+326004721
2170+327108421+328175617+329169239+330082294+330984655+331931607+332867789
2156+333829781+334971799+336189395+337268457+338261058+339301575+340496913
2143+341858750+343247869+344657471+346224274+347904557+349462820+350800887
2129+352111746+353526449+354888814+356272303+358068674+360196982+362186530
2116+364038564+366081922+368354207+370721454+373069051+375281969+377528859
2102+380120988+382960408+385891466+389197352+393072905+397325667+401790274
2089+406393642+411193172+416506517+422418892+428654513+435089811+441706419
2075+448552482+455796047+463242877+470516597+477641882+484889981+492462158
2062+500415360+508773546+517296264+525353763+532703439+539720912+546878129
2048+554388483+561928274+569009384+575584009+581961868+588398677+594902411
2035+601466568+608063111+614443879+620217456+625283095+630190965+635288839
2021+640202075+644697820+649178827+654102267+659118591+663640033+667554811
2008+670875623+673683036+676105304+678452448+681042952+683611388+685782662
1994+687711030+689789268+691911416+693488347+694506607+695678138+697176316
1981+698271212+698648798+698899566+699631688+700750844+701597315+701846721
1967+701929252+702212971+702479761+702869213+703653257+704397094+704948358
1954+705494483+706046428+706874761+707904206+708355481+708230173+709151164
1940+711824048+714858798+717537049+719929086+722022742+724405785+727604993
1927+731215873+734839525+738798366+742996939+747173443+752073529+757782373
1913+763381553+768675173+774358320+781036525+787951817+794022225+799644759
1900+805801251+812215840+818106071+823583042+828490383+832844193+837513238
1886+842281592+846772802+850865717+854139520+857554200+861547655+864241701
1873+864437750+862548985+860067162+859450749+860449510+860957241+860375897
1859+858963046+856996965+854779740+852308951+849077849+844323023+838100855
1846+831445324+826640693+824982138+823564374+820413234+816232422+811605776
1832+806062599+800170554+796070157+793082038+789770219+786957591+784449089
1819+781788675+779387644+776704935+772830137+769025476+767283559+766564739
1805+764873534+761867655+758745687+757410908+757693644+757030827+753998722
1792+751494527+752719114+754972768+755651004+755167457+754449695+753884977
1778+753724375+753110456+750538997+747546570+748588335+752526920+755636870
1765+756628678+756394084+757261642+758670034+759413115+760582228+760545270
1751+757829307+756258649+758240677+761107040+763353892+764862576+766110516
1738+767156437+766149136+764759261+768363868+774509476+779633877+782797261
1724+784553613+785900938+785510579+782864449+783377245+789578402+796829638
1711+802473031+804760091+804305717+804859249+806214434+805744038+807162633
1697+812461619+819523759+827796050+834495417+839009300+841139838+839776944
1684+840777216+849748148+858733592+863082942+864328086+866622628+869753287
1670+873291990+880501204+888353964+893187163+897517846+903704720+909228322
1657+910794974+907236092+906076653+914507733+920284824+921258039+925183398
1643+932561907+937725986+938059435+932809046+928602613+935230861+944106565
1630+947216667+946305728+945721890+947207522+951459604+955776759+957268589
1616+958697387+962781384+966477138+967786070+967603700+968280197+969561770
1603+970056200+971044379+973553184+975804949+976626933+977677086+979288405
1589+980026271+980950738+984059933+988960699+992930951+993278080+989968982
1576+987724700+989730383+990301902+988604652+990179618+993945281+996230149
1562+995027177+987345904+984158486+996969526+1009562222+1018274074+1025295779
1549+1030221486+1031802423+1030754007+1028325240+1026071661+1032645871
1537+1044220156+1049126364+1049768019+1054332086+1060142960+1060913551
1526+1057726209+1053238476+1047639068+1045323591+1048020358+1053775909
1514+1060043953+1062806850+1060116281+1053066687+1052428811+1063547059
1503+1070829962+1070113711+1066337694+1066546137+1070447765+1069823719
1491+1063442233+1060177348+1064680046+1070525686+1073412002+1073741823
1479+1072936920+1069399199+1061387197+1053909002+1054076860+1057262161
1468+1055559167+1049138607+1044554663+1043810826+1039681332+1028157759
1456+1019615655+1020236678+1019457849+1014064618+1007401075+1002525325
1445+999415828+995479737+989098931+979825158+967844264+958394849+951614236
1431+943162523+937199209+936808623+937435314+938496880+940605198+941492330
1418+944230060+951352435+959520127+965566577+968362048+970149765+974293620
1404+980968121+985351330+986734404+990387985+996053145+1001253880+1008003506
1391+1013094048+1011581283+1007417173+1006717852+1008880284+1013019074
1379+1017344240+1018952611+1019925524+1024125684+1029617015+1032420271
1368+1032641412+1030907506+1027361850+1025706318+1027644586+1029017608
1356+1027738907+1025789756+1024426484+1023485540+1022219839+1019472738
1344+1015776001+1011186237+1005702162+1001912767+1000052647+998416009+996683540
1331+993920794+991048460+990726272+992913191+996828422+1002258082+1006893872
1317+1008627627+1008745302+1009701512+1011667819+1013414497+1015703824
1306+1018760644+1021214579+1023260999+1024900054+1026107787+1027920369
1294+1029959836+1032016610+1035012060+1038591198+1042446194+1046693439
1283+1049690098+1050876443+1051664492+1051718531+1050800185+1050002537
1271+1048965307+1046757604+1043255934+1039166949+1035334248+1030327749
1260+1023160480+1017323003+1015230556+1013993952+1010783635+1006694045
1248+1003737744+1002530464+1002303655+1001425744+999668485+998233187+997000211
1234+995719545+995649862+996700696+997584351+998613721+999792735+999753736
1221+998499221+997099898+995848708+995267590+996291367+998477076+1000302733
1207+1000643967+999382045+997835950+997509983+998031016+998260319+998113396
1194+997728176+997284610+996275722+993487960+989937164+987310911+986059721
1180+986219719+986572668+986280711+985492434+983619239+980915821+979241093
1167+978915957+977765361+975208867+972712835+970689919+968809393+966939372
1153+965168433+963793975+962659477+960564763+957215458+954056835+951570326
1140+949269360+946990992+945214007+944830827+945097844+943804330+940374005
1126+936792978+934236786+931316612+927155072+922948714+919736280+916782020
1113+913251479+909176854+904723281+901153062+900039197+900387006+899169901
1099+896008104+893487207+892453832+892295572+892353389+891804770+891103937
1086+891322357+892833459+894970799+896829408+898365149+899669848+900966763
1072+902336988+902974638+903242561+905651150+910136994+912643683+912311140
1059+912026590+911727226+910051138+909336021+911869086+914641582+914875873
1045+915374459+917917728+919771575+919285459+918009026+918063895+920126111
1032+922018730+921021707+918132444+916186694+915421922+913726335+910800718
1018+908722707+907070728+903878549+900703601+899242456+897588436+894090393
1005+890205922+888308088+888746590+890230560+892430781+894799389+895469159
991+896278295+901424084+909341765+915938043+921298549+926381987+929993245
978+930921340+929892424+927927326+924948881+921788595+919765982+918662547
964+917490562+916297037+916143992+916637591+916052014+914737263+913463551
951+911724128+910563480+910293062+908992898+906399824+904165744+903489172
937+902589418+899010281+895067010+893510561+892615720+890451625+887329960
924+884092359+881080886+877730523+874491863+872199967+869173303+864845492
910+861350170+858845749+856192213+853888148+851819358+848646375+845247566
897+843499150+842640737+841264239+840054768+840154077+841225997+842777987
883+845279234+848128516+850212120+852234582+854220917+855658483+857759016
870+859873985+861583403+866211863+874369654+883413066+892355430+901334071
856+911749446+924851083+938243845+948910365+957400850+965995329+976452046
843+988012878+997349758+1004339797+1011263478+1017466450+1021096224+1021577806
829+1021142478+1023464076+1027433422+1028601628+1027786219+1027973727
818+1027380895+1025136991+1024788955+1026967485+1026907627+1023197287
806+1019994451+1018958809+1019049804+1019000830+1018045375+1017831868
795+1017326555+1012259140+1004253109+998298410+994170200+989666822+984037259
781+976756095+969502063+963216863+956585441+951221912+947170187+941423478
768+936350395+934388773+931792676+927061809+923542453+922356336+921314042
754+920471652+921162207+921828500+921566548+920724384+918895931+917420652
741+918240520+920073660+919535395+915438625+909666674+904952660+901265295
727+896329839+891591565+890189975+891276708+892815320+894804981+896061538
714+895217938+894564266+895980140+899156524+903572685+908207947+912348929
700+916219268+920718414+925444520+929651557+933703736+935732168+935930560
687+937886589+939681032+938592637+937651315+937431837+936322053+936622928
673+940294119+944078828+940301526+928490456+923490985+926362865+932246748
660+936647869+934618227+928943771+927348249+929770819+930396301+929502594
646+929719275+926799252+918557040+913986171+917816529+923588178+927304943
633+927424280+925435450+925375064+921607738+911632981+905670951+907813204
619+910734739+909290069+911237029+922752817+932665297+930297521+923451080
606+923224422+930056579+938117101+947144037
##END=
