##TITLE=Sample description
##JCAMP-DX=4.24
##DATA TYPE=INFRARED SPECTRUM
##DATE=13/9/2023
##SAMPLING PROCEDURE=Instrument type and / or accessory
##ORIGIN=Default
##XUNITS=1/CM
##YUNITS=ABSORBANCE
##RESOLUTION=4
##FIRSTX=4397.6552
##LASTX=599.8556
##DELTAX=-1.9287962
##MAXY=1.7401923
##MINY=0.36036867
##XFACTOR=1
##YFACTOR=1.6206804e-009
##NPOINTS=1970
##FIRSTY=0.37498689
##XYDATA=(X++(Y..Y))
4398+231376213+230470897+229918701+229591031+229528197+229713997+229178351
4384+229019049+230024381+229949980+228574261+228109393+229156468+230866421
4371+231838691+231489599+230966622+231067282+231291938+230963220+230404496
4357+230087822+229740569+229536656+229717987+230326932+230910426+230581910
4344+230231402+230759969+230822877+229452509+228179693+228392672+228871847
4330+228721279+228269210+227296388+226205548+226040325+227150565+228562345
4317+228901765+228207607+227071622+226062116+226459276+228416853+229793014
4303+229189733+228086021+228095620+228214595+227031572+225778781+226103987
4290+227253028+227888525+228040784+228570381+229340300+229028574+228001248
4276+227493755+227112703+226974236+227542338+227693715+227163971+227340797
4263+228103398+228009248+227140415+226278000+225828615+226426526+227535718
4249+227799468+227142272+225895513+224468453+224197899+225524759+226951415
4236+227543460+227911180+227902795+226932070+225850626+225627626+226243447
4222+226838545+226793327+227074877+227985784+227809601+226217629+225400120
4209+226028942+226600833+226771223+226502288+225324487+224032492+223442727
4195+223552821+224680273+226754269+228374173+228435187+227359352+226375240
4182+225858534+225181073+225049189+225998509+226160128+224778469+223704142
4168+224122744+225131717+225416854+224895514+224384214+224294127+224353560
4155+224253506+224169562+224342453+224531839+224963166+225576634+225509478
4141+225358855+225831999+226162537+225964232+225507988+225198689+224923740
4128+224298154+224170260+225202036+226434470+226652027+225577167+224555726
4114+224826500+225532262+225606681+224929753+224052002+224071549+224975744
4101+225359591+224521615+223473216+223369595+224400359+225856051+226242491
4087+225265588+224356042+224031002+223693568+223633382+224425405+225428034
4074+225770433+225484782+225182765+225063973+224566336+223485315+222473124
4060+222356410+223045438+223813665+224723781+225672071+225757285+225080670
4047+224640002+224604051+224544233+224543534+224739742+224960132+225116510
4033+224965593+224585791+224669258+225029292+224966218+224878669+225096944
4020+225174692+225153802+225420697+225757487+225425735+224513137+224664551
4006+226423253+227585350+227013955+226373309+226498316+226489765+225981352
3993+225541401+225533751+226047074+227045749+227564478+227084476+226661884
3979+226721831+226607049+226125005+226057537+227199369+228663796+228889978
3966+228193669+228022874+228441770+228315991+227983411+228639376+229372040
3952+228787626+227818777+227896837+228380315+228457143+228871810+229504383
3939+229435738+228729389+227528933+226679758+227625731+229100456+228855278
3925+228008107+228781981+229921551+229596143+229166802+230335188+231649489
3912+231819199+231352896+229809784+226723983+224295690+224176237+225538882
3898+228008990+229848916+229051873+227231531+227675675+228919676+228917524
3885+228853973+228771205+228852152+230221068+230310786+228577681+227418251
3871+227038854+227852428+228808589+228405029+229232450+231729719+232552598
3858+230558060+226044315+222518323+226135597+231751731+234326508+233059908
3844+229843895+227099868+225781779+226791139+229451516+231332044+232206393
3831+233021071+233806198+234049592+232507601+228444675+226667695+229558575
3817+231927638+233962300+236615855+237511499+235687038+233131459+232244145
3804+230994793+229976957+232435756+235741395+238607028+240925999+241558739
3790+241315124+240993817+240288387+240027193+240175149+240116379+241463466
3777+243856986+244511038+243192029+242361979+243613905+245382776+246998174
3763+248265271+248163783+248707834+251591616+254031310+254105324+255968530
3750+266467158+280914113+300101768+327210257+345247840+349117243+344319759
3736+336073167+332184420+334591878+338387063+340773668+343187415+347361887
3723+353502266+361854630+371744223+381141731+387734805+392210816+399975843
3709+413595082+430433534+448706862+468437794+487582970+500779893+506846864
3696+507879798+503857328+494007970+482683208+477251054+475853324+472709469
3682+466607523+458611901+449420199+440299846+436277229+434554752+429379122
3669+425851273+425677352+423259706+417790959+411566212+404678109+396489589
3655+389774487+383613844+373888317+364254954+362211152+364057054+364074082
3642+361266263+356898084+351661182+346168125+341044535+335169837+327799470
3628+325118939+327407201+326970247+322357938+316552271+313387564+312357094
3615+310489530+308004913+305202078+301910322+300537526+300811611+299457333
3601+296308899+292789711+289083068+286618439+286470888+286265688+283832522
3588+280914389+280330399+280746831+279941531+277963028+276232700+275080827
3574+273910014+272099363+268837177+264711141+262798764+263616218+264525561
3561+264645015+264274610+263360798+261765664+260142561+259152509+257952807
3547+256388327+255746614+255974580+255799353+254923220+254138976+253739241
3534+253201866+252079691+250542445+249420969+248736925+247930890+247458703
3520+247469239+247179396+246432738+245673208+245043687+244577623+244397156
3507+244064944+243202952+242652871+242863404+243069707+242905183+242372001
3493+241487170+240693308+240422092+240444177+240300248+240005549+239868167
3480+239843857+239684058+239405818+239052386+238863846+239010827+239050676
3466+238765742+238413008+238224928+238330884+238542594+238458778+238051706
3453+237692463+237472331+237393388+237734867+238074379+237745569+237366338
3439+237577312+237905331+238005256+238054960+238180059+238301315+238433861
3426+238522054+238217977+237870852+238106081+238572384+238835214+238941189
3412+238960736+238965002+239010533+239082893+239130428+239217241+239538107
3399+240043798+240435130+240582093+240723925+241145635+241686964+242065055
3385+242282649+242544027+243050105+243586726+243909945+244143170+244423139
3372+244776424+244977487+244995104+245134104+245277886+245168455+244904392
3358+244752114+244874400+245203007+245528397+245719437+245724200+245503222
3345+245461167+245837291+246039347+245659600+245012922+244690751+244597686
3331+244204350+243703384+243210786+242414902+241487041+240927176+240874327
3318+241010919+240698733+239347691+237492319+236145250+235086884+233616389
3304+232049941+231127193+230773963+230565857+230350249+230184695+230243667
3291+230312662+230221472+230211542+230463321+231118954+231854652+232097329
3277+232241405+232950973+233971421+234822159+235297012+235347820+235226087
3264+235040471+234726611+234617823+234966823+235519388+236030430+236388220
3250+236540608+236712341+237230279+237997606+238460359+238497670+238458723
3237+238444104+238843213+239874290+240617583+240650278+240838561+241655647
3223+242566168+243061690+243308375+243734958+244681152+245862153+246486672
3210+246737182+247400502+248414827+249337704+250181988+250985320+251497410
3196+252051170+253309458+254990689+256310065+256950913+257088829+257194050
3183+257887490+259218396+260303315+260732785+261127941+261757205+262343458
3169+263003982+264066486+265269681+266284631+267234209+267975442+268432348
3156+268962257+269509011+269952732+270501489+271014224+271462358+272233234
3142+273142154+273794367+274288142+274497885+274099142+273332331+272791664
3129+272711048+272852843+272822208+272601414+272622432+272727726+272311588
3115+271399211+270532033+270244139+270259273+269663421+268374920+267233455
3102+266747973+266353828+265307084+264108945+263826696+264395222+265108688
3088+265845287+266562798+267000984+267092358+266985391+266980757+267208410
3075+267709136+268390385+268693947+268612521+268830060+269291876+269273469
3061+268601304+268054900+268210543+268488783+268462101+268460244+268559323
3047+268652002+268447868+267619601+266700898+266101075+265405262+264474404
3034+263453735+262447538+261437314+260233824+259049367+258095044+257389633
3020+257280514+257414568+256875133+255946077+255233071+254373212+253160491
3007+252176140+251878849+251917539+251824161+251918716+252623226+253865700
2993+255727012+258314882+261196311+263899920+266060877+267185093+267434610
2980+267633117+268114425+268593985+268563184+267575266+266012827+264723406
2966+263708714+262774399+262291528+262124760+261739350+261232684+260879656
2953+260496600+259969890+259775668+260361240+261293698+261652812+261251128
2939+260574862+259729144+258692937+257806469+257205322+256798838+256792788
2926+257307233+257697884+257311517+256402836+255435476+254675910+254365654
2912+254437720+254832306+255500720+256057532+256398349+256616808+256709340
2899+256989990+257429720+257604910+257744775+258203134+258843118+259490274
2885+260005307+260367529+260689939+260869359+260917335+261046222+261058469
2872+260791556+260610298+260690344+260731149+260493327+260108909+259827561
2858+259614031+259295684+258990081+258812427+258471996+257912131+257597683
2845+257680120+257858565+258038904+258530178+259326890+259785377+259950306
2831+260551932+261398165+261921877+262166208+262338548+262596487+263001151
2818+263441470+263642183+263541045+263650991+264240480+264927522+265444798
2804+265915017+266544318+267297283+267980407+268548804+268934031+269157932
2791+269476720+269828957+269935336+269797052+269539040+269289688+269202341
2777+269275528+269306201+269246070+269223690+269111427+268826714+268711269
2764+268923052+269099382+269005655+268897510+268970679+269111758+269314568
2750+269635764+269883774+269894973+269793522+269683722+269496966+269196310
2737+268860531+268686757+268819009+269156884+269496543+269654778+269587476
2723+269485142+269476003+269495440+269540124+269598969+269576534+269492884
2710+269510224+269841443+270315469+270352393+269936642+269624492+269485675
2696+269210892+268963931+268979285+268959701+268746244+268567892+268462763
2683+268316002+268140794+267911854+267556859+267165582+266793669+266297191
2669+265693083+265303590+265192357+265055691+264797495+264524182+264291583
2656+264090759+263878644+263679531+263599356+263650936+263552759+263182795
2642+262929968+262991956+263095375+263077813+262999974+262864816+262746466
2629+262814008+263083992+263433471+263697386+263856376+264075073+264390312
2615+264623757+264741004+265046074+265630359+266144086+266465706+266828498
2602+267257305+267639939+268172294+268942820+269619454+270114921+270623573
2588+271070659+271346306+271524622+271587843+271648655+272013047+272536115
2575+272874947+273085406+273314916+273613054+273898815+273984599+273877521
2561+273787269+273844771+273892526+273772723+273648139+273710477+273880003
2548+273966596+273997232+274148461+274401987+274585452+274660441+274710477
2534+274882026+275260816+275581940+275647256+275669397+275786128+275931216
2521+276061758+276253369+276602388+276952583+277018728+276907439+276988055
2507+277200832+277317306+277491834+277815808+278117935+278448602+278963947
2494+279519454+279876067+279983550+280063964+280454137+281153076+281784252
2480+282054236+282048388+281993590+281927353+281817646+281665681+281424236
2467+281232772+281313922+281507041+281633427+281728626+281778128+281871635
2453+282012806+282084669+282197484+282422802+282658987+282871837+283049730
2440+283174094+283399558+283726676+283833239+283711634+283617484+283610992
2426+283652183+283741056+283963616+284314547+284622136+284761320+284745598
2413+284722961+284809297+284949585+285107875+285368058+285720810+285999455
2399+286113355+286204379+286423555+286701281+286941714+287108371+287106772
2386+286758654+285731089+283748743+280965142+277782708+274404286+270824304
2372+267047379+263184799+259469293+256032670+253071489+251317035+251362676
2359+252896741+255620394+259747018+265488839+271575081+274734640+273139230
2345+268970643+266533137+266630653+267747844+269318963+270973106+272365688
2332+273606323+275358718+277772263+280184668+282405939+284841569+287663216
2318+290554427+292992061+294864774+296702769+298936361+301392237+303686070
2305+305607587+307211253+308685040+310163276+311644602+312968557+314025139
2291+315040494+316350032+317808776+319025966+319975378+320794708+321537284
2278+322222891+322891911+323571744+324295747+325234861+326329067+327171824
2264+327726724+328363895+329050090+329540077+330001194+330534726+331039461
2251+331588734+332211341+332737297+333045088+333308084+333680567+334002260
2237+334217556+334479522+334801216+335136811+335475054+335716278+335871111
2224+336079971+336401554+336802098+337189586+337591123+338019104+338339399
2210+338622660+339009265+339454237+339943268+340501919+341106983+341733158
2197+342353043+342962410+343549453+344121013+344783119+345581339+346376543
2183+347053360+347778319+348699487+349610944+350337853+350998782+351872947
2170+353074690+354319941+355385828+356352746+357309514+358346751+359541102
2156+360781682+361880522+362771127+363655884+364886277+366313025+367479094
2143+368555793+369908986+371400095+372847365+374199602+375331284+376385549
2129+377730945+379326355+380888260+382511474+384307652+385997985+387556581
2116+389186451+390742325+392312359+394291248+396555899+398768914+400977442
2102+403313552+405754478+408184627+410570313+413116312+415842264+418663653
2089+421808354+425245142+428737501+432419338+436360052+440375902+444476635
2075+448728671+453044185+457618539+462764894+468306498+473952918+479664838
2062+485372088+491129098+497150722+503472377+510139668+517089521+523909218
2048+530341941+536552418+542949100+549904542+557429265+565072484+572243738
2035+578860165+585391048+592038920+598529201+604840301+611334701+618035827
2021+624391133+630214196+636143545+642276789+647573565+651600632+655548260
2008+660381492+665339472+669796249+674002055+677413099+679807170+682200653
1994+684785967+687303316+690083110+692835248+695055434+696937709+698602040
1981+699586060+699851006+700376483+701598748+702919135+703934122+704564857
1967+704861284+705073343+705283196+705493196+706083255+706978420+707302283
1954+707197467+707572230+708173396+708597662+709081139+709491136+710046991
1940+711358405+712994932+714528188+716250186+718141361+720137646+722695525
1927+725569837+727830405+730068981+733573293+737916647+742524358+747585905
1913+753038176+758829977+764396479+769192271+774407327+781228826+788817946
1900+795173988+799963013+805491413+812138072+817228967+821193366+826791202
1886+833451101+839340583+843761979+846460569+848517978+851089537+853557752
1873+854820399+854547362+854037111+855514023+858183411+859627371+859393833
1859+858553981+857723544+856627868+855088360+853216677+850643794+846755819
1846+841483758+836754680+834786787+833230656+830055503+826499115+822873290
1832+817505166+810720813+806002401+803810680+801888465+799970001+797899572
1819+795175606+791990303+788615081+785413081+783340740+782655206+781805351
1805+779934698+777413965+774543404+772316891+771682773+771497488+770132820
1792+768807799+769814032+771414738+771641508+771261817+771418636+772111599
1778+772518579+771221730+767942938+765262075+766669405+770229177+772849798
1765+774020206+774170406+775100216+777094441+778479999+779418709+779554197
1751+777964745+777023019+779003784+782090303+784279155+784878924+785172188
1738+786204313+785894205+785322167+788695182+793854410+798874471+802599080
1724+804330052+805395351+805456254+803874820+804548879+809651763+815534478
1711+819929395+821923988+822069848+822770092+824499078+825917000+828269659
1697+832938936+840758578+849368790+854413124+857260442+859449147+859063130
1684+859619795+867121016+875756604+880862210+883527994+887255324+890674974
1670+892759820+898107201+905632181+910784641+914502778+919304454+923776383
1657+924620795+919763070+916533560+924406823+931170949+933859608+939000962
1643+945972514+949645634+949047190+946634436+947977846+954374491+959408895
1630+961269986+960964733+960384089+962183393+967072968+970652600+970448411
1616+971402126+976796583+980712214+980936263+981099482+983220075+984942073
1603+985403779+986726667+989222023+990883854+991579023+993510285+997739629
1589+1001748308+1002348297+1000517069+999515985+1001610834+1004862851
1578+1004006817+1001755958+1004575324+1006129102+1004062572+1005081898
1566+1009252545+1011736721+1009700202+1001002901+997173549+1010307325
1555+1024517507+1033793760+1038401177+1040329644+1041170526+1040535231
1543+1038215156+1036313757+1041635836+1050794253+1055136284+1055462280
1531+1056874758+1058689730+1058552918+1057775146+1056040129+1054060982
1520+1055990479+1058985275+1060595028+1062849270+1064771853+1063176738
1508+1056655785+1054961517+1065687467+1073741823+1072925582+1067700744
1497+1066205736+1069682097+1071422778+1069295639+1068759054+1071651534
1485+1072551922+1070488114+1067825272+1065817513+1063417484+1059753484
1474+1056629158+1057429805+1060217175+1059184020+1054067308+1050455459
1462+1049311603+1044341192+1032134578+1022434574+1021855107+1021198701
1450+1017061816+1010804631+1005028792+1000764803+996058454+989132360+979085397
1437+967869496+960741199+954689012+945629967+938684234+936996807+937468515
1423+939814629+942349558+943221994+947552256+955602861+962661722+967683990
1410+970884519+973352292+977384876+984225132+991349678+995958346+998425898
1396+999573137+1000276324+1003165641+1008180848+1011737163+1011141514
1385+1008664399+1008344214+1011975481+1018233475+1022563516+1023922520
1373+1025518077+1026901354+1027543857+1029578391+1031578942+1030945118
1362+1030163080+1032077278+1033973234+1034154695+1034075696+1032690066
1350+1029065565+1025677765+1023556362+1020775244+1015274353+1007745181
1339+1002710629+1002257309+1002598605+1000913237+997866365+995228900+994889958
1325+997034089+999917375+1002601179+1004966049+1005940066+1006434503+1010393458
1312+1018032890+1024775170+1028494704+1030491210+1031458900+1031116575
1300+1029931308+1029310945+1029560002+1029513883+1029444962+1031311055
1288+1036141197+1042471054+1047907657+1052939046+1058352259+1061594274
1277+1061745797+1061222526+1060522355+1058988584+1057216495+1054496722
1265+1050586166+1046742986+1042165285+1037070418+1033451287+1031718329
1254+1031699941+1031251107+1027548565+1022610076+1019256552+1016492573
1242+1014019577+1012395775+1010864947+1009689978+1008753548+1006960201
1231+1004513317+1002984622+1004188572+1006265253+1005328087+1003019340
1219+1003323343+1005487702+1006264958+1005429961+1005264315+1005817743
1207+1005670707+1005370528+1005707190+1006355063+1007037360+1007664417
1196+1006943651+1003794390+1000795917+1000028296+999720909+999297085+999965259
1182+1000214758+998270182+995962244+993522422+989766037+987421910+987868536
1169+988633068+987904358+985535001+982906951+982115351+983295616+983993507
1155+982222815+977946102+973244975+970811111+969175099+966430317+964715527
1142+963751588+960896694+957186355+954659222+952760545+949863946+946684821
1128+946008629+947015966+946152135+942410167+936936418+931878255+928604465
1115+926598618+924480746+920804389+916246107+912312086+908869120+906541248
1101+906736243+908447723+909649466+909396657+906821640+902912776+900689205
1088+900514218+900381157+900659342+902449894+903406551+902033057+901699411
1074+904946280+910301164+915217660+917169885+916640656+916776807+917354435
1061+917724196+919049291+920344891+920331430+919280622+918528521+919857220
1047+922723442+924247282+923459949+923038037+925274111+927895835+927317839
1034+925073159+924534368+925262931+924566658+921482861+918793172+919457816
1020+922270416+923119462+921444760+920107013+919036566+918456731+918923218
1007+917209458+912413666+907994476+906535879+907699962+909316261+909858289
993+910100653+911908416+915330199+919631480+925348108+931221997+934803541
980+936583648+937239024+936412191+934985369+933543616+932489498+932342535
966+932413810+931362413+928795488+926748744+926903357+927384333+927025532
953+928012714+929488377+927804774+924564305+922987798+922608475+922058430
939+919965641+916167991+912819249+911145282+909949056+908887509+908540917
926+907381762+904350336+900927965+898673649+897111854+894386932+890818701
912+888539229+887704011+886378180+883243556+879496587+877992973+879125428
899+879294310+876320036+871728728+867678196+865351722+864728122+865828065
885+867674886+867968959+866942498+866671153+867846417+870572883+874561702
872+877880066+880229269+883854578+888596454+893426008+899640163+907885320
858+917315745+927661342+938845761+949417172+957808925+965460861+975243320
845+986165000+996045950+1005934108+1015332683+1022252745+1027561216+1031349009
831+1031096862+1027553272+1025965439+1028936991+1032582675+1031767391
820+1028215857+1027237206+1029409214+1032123397+1033322419+1032305667
808+1030184485+1028718459+1028048445+1026291582+1023094436+1020906467
797+1020308390+1018860238+1015934658+1012495810+1008589593+1003006689+994496806
783+985915060+980786211+978107629+975692742+971670749+965305807+959380503
770+955727169+952530170+948789453+944545986+939461711+935308938+933888148
756+934143163+934383689+933701612+932621971+932684198+934039598+935329313
743+934138529+930230547+927952841+928517155+927879285+924684126+920746648
729+916626975+912298037+908440956+904586522+900171378+896269059+893263451
716+891603239+893085742+899360580+908606822+915031344+917821730+921477786
702+925137225+925917203+925344504+924003741+922512559+924439629+929574583
689+934303146+936552387+935419859+933753763+935006774+937196509+937800837
675+937146123+935901939+932563788+925632692+923354103+927847068+928926563
662+929111995+933426148+938977057+941526403+941040498+940062656+939175361
648+940395493+943908631+941859460+934819797+934094691+941864830+949043953
635+950263129+949023211+949816870+951223391+946637893+937921394+933104860
621+930859149+928601449+930202449+936852197+941749127+941847544+946583830
608+958195236+960644694+948250294+937615258+932251988
##END=
