##TITLE=Sample description
##JCAMP-DX=4.24
##DATA TYPE=INFRARED SPECTRUM
##DATE=13/9/2023
##SAMPLING PROCEDURE=Instrument type and / or accessory
##ORIGIN=Default
##XUNITS=1/CM
##YUNITS=ABSORBANCE
##RESOLUTION=4
##FIRSTX=4397.6552
##LASTX=599.8556
##DELTAX=-1.9287962
##MAXY=1.7809733
##MINY=0.38617533
##XFACTOR=1
##YFACTOR=1.6586607e-009
##NPOINTS=1970
##FIRSTY=0.40611348
##XYDATA=(X++(Y..Y))
4398+244844221+244663538+244328063+243581109+242634732+242249990+242816260
4384+243652549+243180807+241195753+240179320+241532522+243301855+243841030
4371+243794673+243518815+242784224+242065444+241938466+242480533+242943166
4357+242553033+241500269+240359177+240131921+240956441+241079196+240247130
4344+239972727+240179661+240214680+240166042+239588416+238491811+237979750
4330+237721266+237204856+237916180+239583295+240050456+239277341+238579278
4317+238193745+237234737+235937307+235686100+236288575+236755790+237390032
4303+238405638+238697523+237947947+236972768+235885865+234975819+234912393
4290+235665366+237037433+238693876+239820846+239789511+238638104+236919817
4276+235116291+233555580+233673843+236052300+237757489+236979883+235829105
4263+235915225+236630699+236799811+236013526+235092412+235254139+236481513
4249+237505097+237399159+236056181+234781085+234773449+234751043+233724279
4236+232823594+233019603+233805403+234617238+235872048+237007373+237314998
4222+237603290+237850400+237392691+236755502+236235463+235303802+234674465
4209+235315624+236119248+235887734+234909680+234414814+235280138+236491916
4195+236770308+236135077+235317673+235136684+235412650+235417519+235499506
4182+236097255+236051941+234582452+233294581+233976330+235931431+236722082
4168+235898766+235430115+235878157+236100921+235645529+235343510+235730570
4155+235639456+234393001+233401345+233620731+234190523+234593880+235323925
4141+235988964+236005764+235567100+234749049+234191026+234568222+235050762
4128+234785254+234553776+235133935+235837353+236314341+236775644+236703198
4114+236140665+235796422+235705955+235446303+234891946+234855238+235456922
4101+235303873+234853639+235582894+236340358+235993743+235599316+235769291
4087+236055858+236217334+236296966+236336459+236389320+236750292+237461363
4074+237585323+236669257+236129723+236906629+237860049+238052770+237765952
4060+237589383+237853203+238067306+237709839+237358337+237898536+238814960
4047+239195768+239488552+239801190+239591039+239006604+238452552+238286710
4033+238676088+239466110+240325397+240949218+241046765+240766289+240830362
4020+241250393+241415767+241362817+241763460+242400703+242587926+243200535
4006+244363261+244406222+243617745+243668810+244262498+244324936+243974800
3993+243931354+244801853+246314446+247391915+247478196+246995224+246704345
3979+246758212+246841367+246878219+246980994+247398024+248229803+248857577
3966+248626925+248090410+248252784+248874466+249498413+250464195+251093244
3952+250492099+249887036+250514055+250788997+249850831+250571390+253578681
3939+255364347+254468693+252127537+250485415+251466433+253514500+253373975
3925+251991953+252092069+252055990+251314427+253027881+256798026+259007478
3912+259450742+259217287+256071466+248946104+242821345+242078686+246186965
3898+253282735+258081657+256499511+253258388+255049355+256761534+254762645
3885+253306236+252176553+252904371+257886384+258953773+254617178+250790704
3871+248777638+250598306+253583766+254016068+257070129+262970705+264802386
3858+259351524+246580422+237963399+248332561+262170549+268494569+266722289
3844+260829511+255433810+251657412+251965522+257194699+261562001+263746029
3831+266016266+267036472+266258273+263460109+257054820+254793387+259679830
3817+263468266+269080838+275986742+277433376+272963622+268130418+266468783
3804+263345942+262527585+268705061+273400525+277228005+283205052+286945999
3790+287494966+286927960+286365894+287091915+287216072+285833727+287700625
3777+292788036+295812594+294727632+292152465+292292703+294794813+298517775
3763+301319551+300584097+301245793+306464800+309322599+305918151+304568597
3750+315950562+329719536+344484748+373311772+404007760+421987897+428243856
3736+429209692+434669753+445383715+454549975+458178912+459793849+464990719
3723+474116480+485933910+499094822+509981669+515185151+517914086+528801724
3709+549908564+571537511+587983709+603347496+624360007+647327115+665633905
3696+676733059+676216954+664696782+654744112+657326717+666045869+669524272
3682+663862505+654380589+644532563+634127394+631414414+631736468+626908258
3669+625731949+627552868+625147998+620733980+615783016+608080333+599396363
3655+593903959+585568957+568443796+553693174+554450548+560946412+562931699
3642+559806325+554477572+548385945+541471686+533711291+524233938+512597335
3628+508560962+512972429+513141972+505395700+494828498+489865998+489383781
3615+487181336+484573144+482027013+478154614+476765027+477194455+474871124
3601+471170352+468469986+465683590+463296293+461898047+458228790+450731406
3588+445855475+448390323+452344188+453334028+451733393+449016749+446385342
3574+444581349+442016028+435486242+427197021+425464503+429703157+432536052
3561+433062722+433007417+431885658+428921957+425497313+423434908+421416308
3547+419180156+419249008+420686676+420498194+418735347+417450728+417283305
3534+416609840+414268253+411169866+408916033+408027746+407921808+407736274
3520+407185312+406713768+406184260+404728947+402314771+399763393+397713673
3507+396081487+394852532+394956026+395881399+395500484+393718555+392154610
3493+391101846+389753226+388258098+386997484+385593164+383855759+382249554
3480+381398244+380953220+379904553+378207971+376740692+375817440+375194679
3466+374640699+373503990+371866737+370714253+370089695+369091733+367140979
3453+365006057+363243174+361450392+359955839+358986984+358487159+358422655
3439+357977199+357018479+356124478+355238670+354141274+352923280+351804107
3426+350575835+348978003+347599593+347102139+347219037+347174980+346637890
3412+345779968+344585295+343155425+342066978+341538188+341044005+340089309
3399+338832971+337635028+336557146+335631234+334911304+334253614+333636567
3385+333279154+333102927+332838262+332440493+331838360+330958805+329948049
3372+329148882+328591703+327646135+326119240+324725341+324100389+324071820
3358+323915752+323375751+322582764+321716038+320896316+319768196+318560946
3345+317843208+317145666+316082193+314705077+313135993+311881596+310807415
3331+309617521+308921704+308653231+307975669+306822322+305711846+305002696
3318+304247658+302579356+300185789+298172526+297260557+297006368+295866928
3304+293180487+290578386+289441300+289200012+289027144+288300674+287146968
3291+286714431+286986768+287256463+287449005+287447963+287299711+287056051
3277+286675370+286350891+286167063+286157163+286120814+285776338+285489052
3264+285443396+284977781+284118637+283658790+283596352+283731308+284165928
3250+284559403+284367005+283616889+283044618+282841978+282534533+282400242
3237+282838510+283327699+283158300+282517841+282545170+283524805+284216813
3223+284075048+283673272+283455988+283835466+284569393+284678457+284368981
3210+284493156+284620601+284438768+284604035+284948817+284946607+285045555
3196+285649719+286191697+286176155+286297491+287043636+287749461+288125705
3183+288400700+288696521+289222076+289922493+290535317+290911867+291137325
3169+291655496+292693113+293718619+294029622+293756567+293617264+294162943
3156+295207909+295822709+295735135+295325327+294946299+295214754+296047270
3142+296507944+296273016+295932905+295829879+295739465+295662240+295493038
3129+295291746+295606935+296362262+297308782+298041721+297358679+295329460
3115+293795413+293635950+293880221+293315658+291962726+290755206+290051842
3102+289621264+289375574+289181738+288912960+288716195+288853864+289377119
3088+290114604+290668728+290622964+290466034+290886550+291497254+291863077
3075+292259390+292897118+293474151+293700921+293719608+293624361+293389002
3061+293345251+293889403+294601481+294554333+293922373+293851868+294433986
3047+294672094+294483235+294539564+294751241+294810499+294869020+294656516
3034+293864463+293261090+293208930+293092158+292984064+293080892+293117510
3020+293163885+293279776+293331254+293336267+293549274+294164219+294761932
3007+295100587+295827291+297127973+298503850+300024816+301940892+304470960
2993+308319067+313712936+319824039+325764701+331252002+336142343+340079570
2980+342973951+345168922+346998537+348567549+349998748+351609050+353378653
2966+354569553+354853838+354787644+354448594+353832194+353785298+354529916
2953+355200542+355318770+355210173+355194541+355113363+354547524+353268727
2939+351648112+350006726+347847511+345166838+343010965+341795486+341094314
2926+340692377+340455886+339962960+338897726+337271470+335247659+333101777
2912+331002610+329133861+327765405+326637824+325430214+324390136+323654718
2899+323115902+322829209+322812931+323025129+323476873+324044761+324765158
2885+325803835+326745881+327102361+327193061+327431888+327594137+327351537
2872+326627798+325675545+325105322+324952489+324415398+323056321+321220848
2858+319446502+318029209+316609581+314529065+311927952+309338519+307053027
2845+305443768+304389135+303392503+302636637+302471371+302474569+302148491
2831+301783567+301649707+301527276+301400082+301270571+300973996+300743866
2818+300808963+300900796+300860476+300856326+300973259+301061085+301117145
2804+301440078+301982146+302478629+302925055+303210562+303311720+303585368
2791+303996361+303908427+303275461+302819189+302725685+302634589+302442658
2777+302138609+301704509+301360895+301294576+301265576+300946434+300521030
2764+300315534+300177649+299858507+299443184+299153275+299101887+299202470
2750+299326106+299422090+299348530+298990955+298500867+298102506+297919990
2737+297969221+298159176+298339607+298408334+298404309+298265113+298022819
2723+298056113+298286728+298305864+298234676+298280619+298465992+298794729
2710+298996291+298954552+298982689+299080883+299087100+299149196+299200512
2696+299073175+298911304+298838678+298836630+298790704+298593042+298315189
2683+298034965+297787675+297608322+297396267+297025216+296442110+295741046
2669+295279582+295189546+295178513+295065730+294762866+294297054+293980786
2656+293822814+293574572+293262617+292954561+292710919+292626417+292630891
2642+292612474+292490168+292250155+292047030+292060165+292184214+292170037
2629+292112558+292125010+292124938+292264439+292665353+293194681+293704479
2615+294052334+294254596+294506449+294818602+295096724+295379015+295656257
2602+295964331+296463492+297179019+297930303+298487571+298849836+299096820
2588+299169967+299133079+299203620+299483575+299795207+299865515+299657413
2575+299430337+299404553+299515540+299672416+299752983+299631162+299469920
2561+299364431+299138433+298741221+298363163+298233975+298342356+298466441
2548+298553333+298624234+298645112+298713030+298827718+298887209+298942118
2534+299067263+299318811+299725726+300146062+300357848+300407834+300549491
2521+300822061+301116156+301377964+301565978+301737677+302051825+302500658
2507+302896918+303170674+303391784+303584542+303784378+304092632+304500715
2494+304907683+305261144+305579244+305858534+305975755+306005941+306219865
2480+306514607+306597258+306583639+306692307+306770826+306732052+306631145
2467+306409388+306291412+306441191+306560856+306539402+306557226+306632978
2453+306584501+306384053+306256662+306275097+306374531+306648826+307124035
2440+307577109+307816044+307845331+307754810+307689227+307834766+308140756
2426+308333981+308422418+308604790+308889937+309204085+309461885+309608645
2413+309705419+309859798+310094780+310323616+310609410+311095221+311548618
2399+311739399+311976860+312423502+312820300+313129884+313399148+313409282
2386+312824792+311375805+308874701+305250579+300651961+295370157+289919600
2372+284723017+279650645+274651185+270068954+266431158+264380756+264256114
2359+265851431+269135549+274446317+281766935+289388205+293518028+291832999
2345+286538294+282841295+282289471+283135391+284667443+286657833+288497762
2332+290175065+292438834+295104558+297403095+299506807+302226830+306006265
2318+310157631+313537104+316138612+318757620+321508979+324039622+326391163
2305+328637413+330638153+332417531+334165896+335977687+337727490+339287554
2291+340692448+342002653+343329928+344735002+345957884+346753350+347303413
2278+347891388+348607653+349411276+350247206+351135242+351965062+352594614
2264+353172168+353855660+354566390+355194182+355742304+356318780+356989263
2251+357612203+358037822+358372417+358836523+359425827+359918753+360235165
2237+360513916+360908810+361435048+362009763+362537798+362856688+362939843
2224+363070828+363477329+363951209+364160138+364257235+364575946+365029667
2210+365485328+366029102+366615352+367165847+367653814+368001597+368401917
2197+369073658+369769942+370306350+370820981+371350561+371944753+372746256
2183+373679930+374478091+375124892+375946124+376899239+377649894+378350958
2170+379260231+380216544+381073891+382072824+383341236+384529691+385419272
2156+386296240+387499357+388876905+390048436+391120820+392440045+393885295
2143+395145262+396307772+397551605+398824401+400117321+401466983+402804786
2129+404179567+405799140+407620777+409348300+410876705+412416753+414170005
2116+416026536+417797900+419541199+421462880+423514469+425482938+427546278
2102+429847114+432162432+434395350+436618279+439102134+442071405+445275693
2089+448456192+451593425+454667915+457852295+461376516+465146499+469027991
2075+473110181+477531817+482183727+486730670+491163518+495919210+501321523
2062+507203574+513172589+519044075+524894359+530792330+536758182+543031318
2048+549659963+556193272+562359213+568510671+575131267+582135257+589262578
2035+596383718+603115713+609200152+615012776+621292560+628011188+634318786
2021+639939658+645227338+650734726+656865235+662811251+667565936+671837722
2008+676680809+681813750+686713471+691205828+695166341+698826721+702064214
1994+704162914+705742419+708331493+711879611+715473008+718419855+720487722
1981+722346086+724413953+726267501+727561391+728347658+728525394+728043213
1967+727814448+728513895+729354784+730029219+731010184+731868753+732116923
1954+732157170+732392835+732673203+732412743+731138042+729507725+729650819
1940+732293653+735305615+737158229+738001202+738647248+739907144+741694643
1927+743171229+744270349+746178160+748913635+751738589+755951440+761725182
1913+766600826+769877345+773568126+779353511+786501351+793299539+798926880
1900+803401845+807459886+812644431+819053295+824233097+828063308+833928757
1886+841767850+848302201+853072338+857329318+860746057+862961834+865041272
1873+866134284+863769734+861138112+864572675+871287277+875200571+875693533
1859+875067179+874795292+874197686+872156339+869393194+866615315+862388521
1846+855517312+850213030+850987438+853076722+851776651+848128848+843850307
1832+837480469+829787129+825576075+823898969+822379764+822553476+822943734
1819+821314567+818602018+815878761+812292408+808261533+806059484+805377070
1805+804001103+800652714+796635136+795409738+796525964+794938050+789045722
1792+785928972+790306551+794548870+794447819+793100960+792220974+792055024
1778+792575225+790874403+785257699+779993952+782050104+788933747+794613410
1765+796612856+795363741+794938481+796348443+797462656+798363054+796287497
1751+790056872+786824698+790843354+796447409+799139187+799931850+801657899
1738+802845708+799036196+795174721+801083364+810255661+817013458+820751387
1724+822140219+822360718+818535466+810284697+808208061+817335655+828674282
1711+836169401+837551908+834773814+833181013+831579731+826163044+824913713
1697+832452818+844835656+858276791+865828617+867673756+865559389+858220948
1684+856906718+871082589+885119749+891352961+891961851+892625003+894113088
1670+895874139+904652871+916519101+921646796+924335555+931969745+938538953
1657+936041011+923087303+915927030+927971715+935256685+936729030+945984554
1643+958365595+965134603+965142006+959232860+956665994+966545212+976330136
1630+977848478+975484647+974636141+975665187+979729194+983914662+983495368
1616+984227516+991613464+997615324+999244922+1000204613+1002161440+1004325830
1603+1006738677+1009104089+1010507151+1011435865+1012757210+1014470898
1591+1016434912+1018448444+1020347918+1021946684+1023185953+1023773784
1580+1020979088+1012875941+1008451717+1014637351+1019041954+1017577514
1568+1018811033+1023162451+1024895616+1019432571+1002828904+992361783
1557+1006650779+1023818128+1035137781+1040573299+1043095462+1043561328
1545+1039416107+1030634716+1022561467+1029851468+1044670726+1049585396
1533+1049832632+1054903620+1058980205+1057203127+1053025780+1047072936
1522+1041158687+1042319975+1046931566+1052171308+1059397846+1063047590
1510+1056811000+1040245353+1033251316+1050772055+1066494298+1069359716
1499+1063993482+1060609588+1064385968+1066421493+1061358266+1057987741
1487+1063797202+1071208736+1073741823+1072823601+1070846220+1065502337
1476+1054026797+1042260970+1042640160+1051309361+1053955501+1048727187
1464+1044542868+1042638794+1033217825+1015356921+1007920017+1015818044
1452+1021267218+1017872903+1009500384+1003452312+1000230559+994860228+985771014
1439+972913613+959964648+955590303+954322215+948894459+943705243+940868645
1425+937968730+936241602+934319921+932072951+939118160+953385450+964104263
1412+969719746+971952916+971733710+972392765+977702581+983712849+985673054
1398+987489589+992285456+999347123+1007433955+1011543887+1009669496+1007630306
1385+1009994712+1013101112+1014472407+1017153764+1021631459+1025182740
1373+1029154967+1032551726+1031261214+1028517330+1028003813+1028523079
1362+1030027695+1031470933+1031237065+1031195811+1032265967+1031560987
1350+1028217341+1025250945+1024454976+1023966039+1019850213+1011644434
1339+1004263518+1001240703+1000905066+1000954370+1001120176+1001578783
1327+1003173740+1005847047+1007288848+1007133319+1007647267+1009916013
1315+1012652063+1015693061+1019383843+1022312794+1024843509+1027520266
1304+1028662293+1027898809+1027915627+1030884826+1034217619+1035324933
1292+1035658557+1036819918+1040253618+1045800248+1050812374+1055657977
1281+1060814348+1063439358+1064096904+1064665114+1064527194+1064518785
1269+1064051697+1060732343+1055946538+1053016221+1052199122+1051287944
1258+1049505404+1047070133+1044449867+1042694782+1041239182+1039252170
1246+1037492197+1035701177+1032216520+1028282815+1027213665+1027245504
1234+1024674828+1021904568+1021557648+1021325649+1020128640+1019301192
1223+1018488979+1017486885+1016720742+1014926056+1012879894+1014437550
1211+1019085507+1020860573+1018457572+1016614732+1016439871+1015788577
1200+1014907944+1014799707+1015455312+1016173805+1015638367+1013917277
1188+1012105198+1010264515+1008361519+1006411664+1005185836+1005759437
1177+1006153720+1004615541+1002076417+999257069+997548628+997685757+998069116
1163+997538350+995804179+993582509+992284594+991128839+988447555+984754329
1150+981551119+979283379+976747705+973528971+971352363+970169226+968265655
1136+966427416+966245079+965860067+962465178+957791059+955033951+953459118
1123+951639565+950332738+948742524+945222364+940786209+937357397+935922999
1109+935636809+934660876+932292589+928817419+925281447+922652628+921226640
1096+920902790+921577800+921898488+919740064+917288263+917404550+918525663
1082+918869133+917623540+915356304+914988397+917165148+919353758+920461359
1069+920969342+921529863+923817798+927072971+927789667+926447551+926304313
1055+928134790+930539013+932002662+933338453+935801466+937472103+936644366
1042+934928451+934626234+935805275+936564662+935506005+933135418+930915544
1028+930554896+932910318+934457194+931717478+928019366+927506208+929748721
1015+930997836+929360763+927421760+926160787+923789625+921234042+920806770
1001+921550058+921877789+922430907+924149913+926912052+929223346+930287609
988+931322117+934044296+937613904+939796764+942784721+948644995+953364967
974+953234594+950576164+948999462+948685962+949116180+949440893+948177332
961+946612633+946546583+947236184+947265363+945809620+943598946+942861120
947+944171540+945331463+943732122+940119536+937685128+936799607+935773220
934+933269385+930438681+930519248+932130592+931656388+929747859+927622280
920+924890614+922184821+920247472+918997351+918225602+916914103+915912584
907+917136975+918074458+916438750+915132929+916080258+917222717+916562655
893+914684886+914385041+916393040+918387168+920690340+924378462+927715352
880+928856301+928431114+929149966+931141721+933261551+935748281+937906921
866+940111702+942980497+946040828+950430985+956694670+962461512+966933602
853+972517892+978068547+980509926+983174752+990676772+1000943302+1008846144
839+1013336848+1016843353+1020599250+1023959067+1026029809+1028548737
827+1034668465+1041331105+1041990160+1034510205+1024485880+1023342631
816+1032333382+1039517661+1038874561+1037310436+1041841963+1047540024
804+1046448666+1041222077+1038251584+1039091610+1037723550+1030376412
793+1021885163+1016017270+1013836494+1013642084+1012100311+1007831760
781+1000921381+995240712+993482680+991497824+987079206+983163541+979925186
768+974902997+968924280+965220058+963532603+961267379+958902398+957507242
754+956402443+955811737+957045256+959014947+957269565+952264841+949825186
741+950802988+951476130+949301607+945514015+943892754+943552014+938915700
727+931218192+927450149+926798640+924176505+922404315+924754706+926662948
714+926067354+927174740+930556621+933914210+938582004+945566337+951803574
700+953635561+950756344+945707420+941989830+942508594+946255722+948558679
687+947173728+945795605+946887826+947734823+949060265+952062812+953978097
673+954718007+950734280+940581306+939187443+947233021+950238371+948802392
660+946469825+947021721+954216852+964206320+965233929+954000808+944388590
646+943627191+942643783+938029964+936849486+942140040+953954380+970830150
633+979956665+971943716+961731952+961981703+966138279+963805137+957309741
619+958799335+964756204+959048655+948947787+953281310+967890274+975539054
606+976031225+973294600+967380782+963651621
##END=
