##TITLE=Sample description
##JCAMP-DX=4.24
##DATA TYPE=INFRARED SPECTRUM
##DATE=13/9/2023
##SAMPLING PROCEDURE=Instrument type and / or accessory
##ORIGIN=Default
##XUNITS=1/CM
##YUNITS=ABSORBANCE
##RESOLUTION=4
##FIRSTX=4397.6552
##LASTX=599.8556
##DELTAX=-1.9287962
##MAXY=1.6444427
##MINY=0.22035849
##XFACTOR=1
##YFACTOR=1.5315066e-009
##NPOINTS=1970
##FIRSTY=0.22735222
##XYDATA=(X++(Y..Y))
4398+148450042+148627950+148487015+147825324+148022244+149174246+149886492
4384+149743270+149339252+149534956+150735557+152485821+154542552+156226955
4371+156773445+156809435+156812763+156406089+155298679+154032285+153447051
4357+153090943+152371973+151630820+150583365+148965552+147924353+148090907
4344+148343014+147753626+146897204+146220219+145630100+145981208+147089503
4330+147025452+145759224+145041169+145156758+144873068+144078605+143986893
4317+144663013+145126732+144835852+144159041+144091634+144523945+144716701
4303+144971465+145158626+145093125+145696009+146890082+147661144+147617964
4290+146943995+146127981+145541900+145614143+146381178+146624995+145767708
4276+144885999+144307430+143883476+144295793+145191221+145531966+145159385
4263+144501158+144379926+144873156+145256498+145416688+145323195+144828613
4249+144467961+144642152+145043280+145463692+145933532+146373647+146506341
4236+146159875+145732321+145525583+145515134+145935711+146671182+147417998
4222+148094351+148433345+148613365+148851140+148807454+148645337+149204165
4209+150576262+151513217+151452600+151136355+151119250+151667637+152452720
4195+152286332+150921989+149786918+149670190+150066628+150508378+150997910
4182+151609843+151626344+151439854+152090103+152309002+151503351+150676284
4168+150361225+150978227+151747830+151821766+152103656+152786626+153002149
4155+152999658+153180155+153297787+153601199+154291077+155079994+155792960
4141+156326169+156650695+156749656+156564110+156363667+156664063+157205484
4128+157106338+156765778+157288615+158416370+159233162+159425091+159604060
4114+160560260+161990833+163108313+163326668+163082744+163514822+163862349
4101+163419218+163691358+164921859+165770799+166518334+167851270+168894979
4087+169219875+169380785+169562906+170000025+170935442+172004215+172880942
4074+173775514+174397595+174178831+173635542+173335341+173159797+173166218
4060+173653659+174746114+176179636+177163059+177229144+177146363+177281568
4047+177426346+177985826+178757667+179322361+179537194+178901939+177965821
4033+178090615+178968977+179166063+178852551+179263068+180355971+181051881
4020+181042988+180841874+180654693+180693301+180807625+180548912+180770536
4006+182027151+182957917+182843457+182615314+182396784+181786398+181801771
3993+183110655+184481634+184881604+184821494+184702616+184203227+183775255
3979+184229322+185291051+186291054+186709433+186266866+185895676+186672693
3966+187776630+187784199+187267433+187263211+187290785+187447706+187983737
3952+187598965+186348479+186194710+186204187+184952884+185362195+188082941
3939+189644117+188993139+186901050+185414599+186889238+188912986+187954217
3925+186082507+186522525+187172393+186382455+186788166+189648184+192406857
3912+193220692+191544841+186221817+178549742+174053532+175316063+180326801
3898+186966668+190444914+188156596+185664147+187836098+188362049+185625676
3885+185446376+185404052+185275717+189174793+190545072+186851098+182669878
3871+180343848+182700741+185564359+185162229+187535293+192860477+194315443
3858+188951554+177157085+171264424+183656299+196387489+200492953+197666288
3844+191813324+186336609+182310481+182685407+188192615+193166886+196387897
3831+199287691+200501145+200141748+197376886+190239130+187354320+191921888
3817+195584182+201813920+209570703+211288255+206584393+201831959+200869688
3804+198356632+197536590+203282060+208021203+211807006+216770769+219966288
3790+221215334+221348164+220922157+221434078+221429213+220957418+224441852
3777+230029836+232105890+229814283+227168164+228845785+233137943+237572506
3763+240017123+238537307+238352364+242407214+244116924+240615735+241202925
3750+255968545+271688205+283449496+301283312+316941577+320549676+315840657
3736+312691237+319748296+332726407+342409055+346619620+349842032+355964296
3723+364298402+375167300+388540011+400008416+405783095+410038339+422832363
3709+443207062+463043239+479531334+493859116+510205897+528864853+546491756
3696+561395150+572247468+580376472+593724936+616817307+639816389+656906210
3682+670355358+680951512+687070506+692745747+704366092+713794755+719638593
3669+734771608+755828556+772423368+783657092+790551041+792636942+793587109
3655+799393663+803206709+798422634+796992129+808926084+824056841+837972705
3642+848937499+853262174+853708108+853852186+854775344+855544927+852830563
3628+855939955+869874266+882324519+886875547+887651357+891392326+896867056
3615+902061803+908793849+916689494+921402814+924694191+929528470+931995388
3601+936202761+946976930+955058919+956525541+959535923+963349592+961779134
3588+956875267+955768412+962874859+976391647+988999367+995326033+997751696
3574+1002233370+1008017039+1006188938+994602452+989554429+997682187+1007069207
3561+1013197464+1017073170+1020363301+1022296639+1020816162+1021966451
3549+1027912489+1034079432+1040564654+1043638474+1036482912+1026825716
3537+1028535582+1039725250+1044659474+1041021874+1041257412+1047614591
3526+1053871592+1059361345+1062178455+1058170191+1049524500+1041896539
3514+1039524351+1042796112+1044370384+1037856206+1030538585+1031261622
3503+1037442420+1040529082+1040475764+1044112351+1049255803+1046845163
3491+1042216142+1049349598+1065554986+1073741823+1067250374+1057906243
3480+1057913560+1064663742+1068696058+1065419315+1058025179+1052516667
3468+1049968565+1052479928+1062907485+1070024206+1061075180+1046738992
3456+1039303057+1036052079+1036556001+1040672382+1040578665+1038821396
3445+1042629539+1045525732+1040623266+1034086282+1035065561+1041555531
3433+1046236782+1047386603+1043948814+1039163416+1038485681+1040041506
3422+1041730433+1040839111+1036697511+1037669317+1043907871+1043327122
3410+1036177398+1036078232+1043517202+1047422409+1046425694+1045221619
3399+1043764961+1037371042+1027980520+1027534353+1037998260+1047515036
3387+1046580747+1039181786+1034079899+1029461308+1024156654+1024413908
3375+1027235300+1028085990+1031978275+1034423709+1028811829+1024172533
3364+1025687259+1030995416+1037191782+1037229767+1032234518+1033203989
3352+1041563081+1043908104+1032535361+1021480976+1025314960+1034040202
3341+1026710750+1011109851+1007615707+1013133326+1016542782+1017847268
3329+1018743416+1020437636+1020654804+1014914257+1007039706+1000450337
3318+994168349+992738623+999500792+1005118588+1000712728+991022219+982784865
3304+981143185+984417515+984487102+982094754+981583281+983562232+984428023
3291+981196504+978616177+980002704+989040309+1004714220+1011962254+1005486762
3277+995014136+985423882+981058420+985091358+989036651+987548079+987372321
3264+987560377+986021132+989845543+998768493+1005027907+1005046043+998552493
3250+986811343+977770468+981492055+989886952+989803510+989465460+994263779
3237+993413399+984893416+980215824+985694836+992421433+989859164+981505054
3223+974675399+974224639+978067965+978766249+981810723+990548653+993859177
3210+992785403+995469955+996652547+991290292+987245678+991911283+998302010
3196+997010212+991589890+987444943+983355183+978632134+975490518+973874524
3183+973730446+977247008+977820440+967399810+957383238+959152260+964422821
3169+963498029+960027158+958569254+958607161+959603175+960781953+961481171
3156+963355897+964344127+957259553+946750422+946426694+954751460+959711525
3142+958375671+955082893+952692413+949151488+942863974+937556207+935674008
3129+935039784+932120395+927063733+923405350+922275688+924210584+928897127
3115+930818867+927999578+924508547+919721204+913366749+911154518+913786996
3102+914440368+911463301+909327350+908075716+906009898+903026993+898058832
3088+892738844+889612873+888158783+887058699+885064025+882439486+880994113
3075+880694904+881250901+882614699+881268103+875155024+868186039+865053063
3061+866448463+867642419+865731031+863350047+860874490+857130797+851999721
3047+846592009+844993763+847383855+848295337+845354853+840973824+837963520
3034+835798303+832595973+829904182+828733733+827908340+826367771+822386751
3020+818038024+817396406+818563119+817664246+814782142+811944093+810473579
3007+809464411+807676863+806845787+808203592+810732079+814832503+820945348
2993+828305936+834898574+836929833+834104627+830433090+828075691+824823934
2980+818827301+812525309+807725122+804204280+802833632+803631860+804713262
2966+804799350+804002212+803416015+803749784+803034998+800833353+800427350
2953+801290728+799454999+795134605+791392780+788695852+785454681+781285760
2939+777686145+776017067+774863976+772149534+768482122+765295749+763285818
2926+761771248+758451616+752251281+744482745+737443239+732184431+727006264
2912+721177371+716618093+713478500+710223162+707312102+706909758+709011927
2899+710157000+708900463+707905071+708422927+709550487+710888365+711898468
2885+712052354+711566100+712013668+715014164+718499202+719305213+716377418
2872+709239447+699207540+688687978+678767535+669278703+659905383+651258680
2858+643388643+635316345+626842519+618609525+611436254+605105151+598175241
2845+591195982+586045252+582456885+579744700+577751076+575592086+572882120
2831+570217144+568528411+568033168+567316631+565474674+563573833+562264755
2818+561055348+559672129+557620205+554390788+550451955+546755744+543565790
2804+539965397+535579853+531399723+527938854+524748006+521343569+517687289
2791+514130174+510663740+507216337+504198911+501426791+498503471+495756805
2777+493370995+491072908+488573805+485985888+483664061+481789101+480266825
2764+478823749+477527008+476406920+475277219+474144133+472851634+471167377
2750+469079453+466990867+465320309+463821540+462250965+460853969+459678967
2737+458311705+456706843+455242673+453866226+452405441+450946603+449548712
2723+448395465+447473358+446066788+443978007+442095692+440649891+438892856
2710+436659530+434591494+432837416+430873020+428551271+426016557+423415175
2696+421082956+419069444+417079985+415022923+413027470+411248134+409620972
2683+407839028+406021629+404437355+402863706+401229382+399504027+397552435
2669+395831011+394688856+393763636+392743842+391573004+390257076+389158160
2656+388584573+388145450+387385013+386387325+385595207+385355194+385610619
2642+386133729+386455511+386248579+386052350+386244103+386438270+386599472
2629+387089890+387812304+388319107+388438004+388393403+388535340+388908768
2615+388936089+388331171+387898432+388032780+387885355+386955075+385644907
2602+384313100+383085168+381996994+380874999+379540157+377890538+375851262
2588+373701456+371852339+370221907+368477014+366652260+365015250+363624170
2575+362456095+361371930+360088110+358702050+357497936+356482074+355544983
2561+354640584+353766659+352855021+351964594+351374466+351171971+351104485
2548+350981890+350904247+350823957+350646565+350683304+350982591+351252611
2534+351653087+352318990+352963332+353548246+354250927+354999378+355647534
2521+356229022+356855501+357460613+357874594+358120795+358287330+358390971
2507+358552095+358843715+358959499+358532947+357763597+357124742+356619730
2494+356021234+355435348+354973847+354456809+353880536+353439389+353088768
2480+352717092+352349853+352030134+351683638+351089774+350346071+349918041
2467+349888190+349825297+349484911+349141568+348951527+348666290+348276556
2453+348050592+348077835+348183773+348133295+347987777+348012023+348228919
2440+348363773+348285779+348232888+348373075+348534977+348496993+348329018
2426+348349334+348688824+349086770+349305612+349509858+349915978+350418383
2413+350880701+351386570+351962298+352479920+352928305+353380271+353853487
2399+354345656+354809492+355140109+355317229+355358639+355163149+354772597
2386+354176553+352895691+350494586+347047495+342892156+338358409+333872687
2372+329648773+325398006+321091117+317099763+313781124+311485178+310750135
2359+311925487+314773557+319373097+326008216+333068232+336919380+335571422
2345+331242349+328698839+329077404+330359628+331693186+333069205+334163490
2332+335159348+336984608+339640399+342106772+344065913+346431991+349600579
2318+352685451+355011949+356754428+358511230+360571989+362715334+364804543
2305+366756212+368396607+369832873+371351062+372760980+373702974+374481820
2291+375474487+376581109+377614369+378434664+378977194+379300260+379576429
2278+379855089+380061632+380309779+380693948+381095864+381302290+381337979
2264+381480111+381699147+381818317+381920752+382047277+382096432+382088064
2251+382114179+382228951+382437440+382632112+382769029+382950469+383196321
2237+383382198+383399867+383289570+383254894+383450578+383685415+383687945
2224+383539002+383535227+383888455+384539998+385201776+385600423+385700639
2210+385689041+385772289+386145911+386795040+387367499+387718237+388137433
2197+388799756+389458615+389852942+390101284+390352506+390511567+390676623
2183+391107339+391702916+392131686+392365511+392705818+393185300+393508833
2170+393762196+394235839+394760739+395137631+395523551+396052304+396731401
2156+397405166+397900021+398383978+398997458+399671923+400460694+401457253
2143+402587926+403511940+404043028+404501844+405056400+405622515+406312043
2129+407134167+407881489+408452391+409053689+409977119+411164731+412379703
2116+413464336+414411078+415372493+416342782+417236712+418194624+419454859
2102+421063302+422779239+424500975+426387649+428302812+430044552+431876663
2089+434034096+436450419+439089903+441915575+444759928+447510214+450337521
2075+453414766+456646441+459957354+463438033+467197059+471258486+475502327
2062+479796528+484346349+489243833+494032811+498569322+503200328+508097929
2048+513103258+518036781+522952791+527852415+532741727+537762973+542910940
2035+547977643+552869951+557806121+562727151+567306084+571434685+575080302
2021+578376426+581516953+584785367+588591214+592649644+596382206+599844086
2008+603008081+605460715+607416120+609491980+611572743+613324330+614607410
1994+615146049+615700060+617306284+619201482+620420151+621050055+621537748
1981+622162981+622794247+623187951+623194061+623013750+622587899+621375028
1967+620127053+620008467+620243420+619841504+618953140+617745096+616484978
1954+615518698+614790757+614130731+613071279+611103419+608823235+608240346
1940+610057939+612287568+613719202+614743510+615813548+617336252+619661232
1927+622286160+624500610+627155895+630595981+634326830+639968211+647641318
1913+654628283+660272622+666153667+673099689+680389911+687282537+693756939
1900+699970274+705709575+711307289+717239628+722509723+727375371+733148143
1886+738380486+742091019+745416567+748343273+750106535+750770492+750622445
1873+749023498+744758291+739928137+739039384+740507485+740089651+737397004
1859+733851953+730075102+726130898+721745354+716316860+709715504+701937783
1846+692865228+685866198+684101223+683113927+679818269+675907614+671624972
1832+664719269+656867680+653065998+651832812+650545957+650314272+650037909
1819+648675940+647119999+645340935+642580802+639772955+638854039+639346014
1805+639146827+636928991+633838086+632933648+633982475+633429476+630452253
1792+629942064+634531972+638598264+639516245+639519320+639718079+640391844
1778+641737740+641243858+637021346+633279716+636202685+642711453+648062110
1765+650369498+650125554+651590581+655004863+657737130+659908730+659136578
1751+654942359+654085987+659363008+665515396+669655439+672687537+676728571
1738+680638214+680288488+680150871+688852683+700633686+711003410+718750073
1724+723653940+726834320+726047845+721596762+724154438+737915171+752879978
1711+763057831+767038151+767519812+770168092+773575135+773677259+776694801
1697+787021403+803704638+822414228+835241061+843190259+847181554+846105989
1684+851612244+871220239+889983771+901662417+908235206+913637781+917289625
1670+918952321+926231412+937576989+944820197+950148436+958022676+964213359
1657+962882331+952210986+946882746+960730969+970344263+972652080+980868884
1643+992196793+997549551+995128013+985656539+978612130+985863744+995444736
1630+996950121+994139549+992337524+989728941+987276035+985815095+980149506
1616+973861058+976527319+981167393+980655141+977686481+975677173+973230182
1603+970304099+969203393+969107185+968252214+967481618+967055923+965705746
1589+963545354+960807639+957606632+955223936+953072963+948705866+940708253
1576+934565518+936208054+937092993+935499806+940385615+949609642+956410108
1562+957048612+946801250+940173974+953838265+965332046+967847145+965399532
1549+962139679+958428445+951071516+940800647+934202015+945314624+965023964
1535+974580281+978076994+985714684+992686549+992240382+985984548+977411246
1522+971207797+971292407+972124183+973265598+975751897+973303428+963083776
1508+948329286+944776763+960112469+972393736+975286971+974440250+977025403
1495+982981406+984900733+981195570+979780165+987078716+997530636+1003928135
1481+1005444029+1004680828+1001056928+992946138+984716880+987106738+997089062
1468+1000894791+997340323+995380286+994780778+986174784+969718291+963304368
1454+971342301+977860994+976906856+970729639+965623082+963011153+959229164
1441+952085744+939888308+925663506+919186846+916772547+910171425+903961048
1427+902603555+901834205+901250654+901573448+902016579+909538213+923018729
1414+932780928+937580492+940404997+941017270+940620841+944444006+951005510
1400+955430673+959289099+963786808+968405399+973945590+978657587+981350156
1387+983752779+986113292+986830335+987322504+989578325+990911377+990178845
1373+993474191+1000860776+1004717723+1004672888+1003525012+1001662351
1362+1002012933+1004972953+1007420645+1008424676+1007960606+1006631135
1350+1005000041+1002433336+998615463+994146321+989001546+982767196+977460673
1337+975799223+976382540+976038263+974475900+973264664+973331605+974768882
1323+976591457+978590958+981656059+985257853+988169926+989707925+990664553
1310+992777619+995326578+996936655+998272198+999590850+1000447145+1001261641
1296+1001584902+1000400365+999336087+999613034+1000509649+1003238958+1007631819
1283+1011073890+1013345512+1014302762+1012680231+1009565002+1006017149
1271+1001812423+998143921+994775174+989013689+980175037+970625881+963800196
1258+960160105+957397326+955532485+955136368+954906357+954517868+954445634
1244+954489768+954639217+954925817+954596873+953556336+953989582+956501801
1231+957836332+957161010+956908738+957196504+957199929+957581646+958493751
1217+959144554+959473886+959918964+960379297+960901200+961419912+960843211
1204+959020870+957993565+958997518+960881352+961697794+960505394+958570577
1190+957445197+956847012+955661541+953351778+950675088+948720889+947626643
1177+947044571+946616852+945505560+943259858+940843068+938854387+936946969
1163+935093103+933153071+930541453+927333986+924630753+922447010+919254799
1150+915325852+912475194+910200847+907034634+903501649+900167150+896923800
1136+893972653+891101056+888424521+886285535+883794800+880192227+876191358
1123+872921698+870299416+866640801+861462322+856442009+852288889+848950421
1109+846603685+844246052+841016868+837603053+835586272+836093853+837475165
1096+837668281+838212134+840151855+841698806+842795776+844555380+846456338
1082+847952850+848849076+848274865+846919318+847806281+850924079+852306403
1069+851994506+854325518+858773333+861467692+862544658+862913298+863168140
1055+865021149+867103469+867668028+868047021+868790684+869839861+871739807
1042+873338131+873485167+872985992+872291133+871686333+871554319+870752822
1028+868891951+867346090+866297146+865546477+865826850+866069548+864482433
1015+861767524+860024577+860379051+861146377+860045360+858443066+858602167
1001+859662865+860381776+861434611+863486808+865921500+867567695+868744838
988+870388385+872111717+874138694+877337210+881041906+883948218+886301414
974+889201344+892927834+897292829+901534451+904500232+905569413+905304375
961+905168314+905727969+906629099+907642159+908613499+908749248+907827647
947+907541126+907971258+906881371+904294428+903378431+905794365+908181732
934+907558172+906735970+907909533+908386290+905843403+900956349+896510169
920+895355755+896430541+896300396+893764047+889795247+885802784+882709272
907+880314121+878466483+878063749+878106015+876226463+873554910+871890891
893+869813085+866546228+863438315+860538308+857193223+854219269+852705945
880+852842161+853084081+851391963+848635333+847325087+847832123+848386173
866+848316664+849398300+852861387+857492354+862018707+867224274+873830456
853+881413738+890573237+901255246+911541917+921551329+932967505+945377127
839+956946411+966108713+972345243+976672953+979878475+982754975+986178287
826+987183174+984740153+985072755+990107078+993763514+992747652+989900341
812+988315560+988535920+989308695+988831548+986927010+984791760+982458957
799+979533886+976216356+972837957+969878559+966079835+960431137+954865181
785+950489756+946525315+941389802+934239844+926063360+917461491+909850732
772+904159769+898270318+892203163+889149348+889259255+889653660+889333357
758+888852552+888673992+888787557+888032063+886723218+886192752+885868246
745+884390493+881358706+878578336+878369964+879538311+878482128+875343703
731+873200436+871200857+867633390+864827099+863045389+858937026+852968258
718+849786322+851517282+855249688+857720964+860121096+864142126+868200517
704+869145547+867667639+869477993+874514496+876452660+874855192+873252509
691+872245832+872111250+873189227+873713543+873812631+875327824+877167290
677+879167257+883393623+888629546+889194728+881771403+875779673+879201039
664+884299968+888302939+891006794+892927679+895163028+896204889+894842180
650+893375480+893934201+893683952+890055304+884472379+878965657+876546221
637+876859596+876381360+874692822+873746235+877656579+884395397+884055790
623+877557803+874484139+876727506+881005011+888565641+899777338+904427531
609+898432610+890653877+885362144+886203105+896082839+903583379
##END=
