##TITLE=Sample description
##JCAMP-DX=4.24
##DATA TYPE=INFRARED SPECTRUM
##DATE=13/9/2023
##SAMPLING PROCEDURE=Instrument type and / or accessory
##ORIGIN=Default
##XUNITS=1/CM
##YUNITS=ABSORBANCE
##RESOLUTION=4
##FIRSTX=4397.6552
##LASTX=599.8556
##DELTAX=-1.9287962
##MAXY=1.6488219
##MINY=0.24266352
##XFACTOR=1
##YFACTOR=1.5355851e-009
##NPOINTS=1970
##FIRSTY=0.2834096
##XYDATA=(X++(Y..Y))
4398+184561308+184799927+183844656+182156643+181100626+182469575+185318193
4384+186256055+184969046+183836834+183796990+183717244+183102249+183111662
4371+183432415+183428126+183990544+184795793+184722975+183315075+181249717
4357+180248740+180833866+182215740+182957001+182233925+181566743+181824537
4344+182043962+182190510+182548176+182807794+183134272+183794448+184043838
4330+182981766+181454683+180610269+180127558+179619268+179272334+179793783
4317+181265282+182007824+181191882+180302558+180780863+181783082+181341419
4303+179764225+179061333+179634852+180114012+179717782+179184650+179184242
4290+179376438+179577988+180463740+181947544+182559569+181918335+180840096
4276+179813074+179503811+179616415+179090444+178459885+178396072+178745917
4263+179290772+179284154+178371114+177045096+176176733+176592215+177709948
4249+178547783+179413856+180114303+179739732+179097567+179292033+179636172
4236+179713046+180265878+181365446+181990571+181237141+179483452+178360672
4222+178465902+178699901+178884353+179230297+178854776+178057193+178369891
4209+179715608+180277309+179123185+177472766+176915937+177602216+178649072
4195+178994065+178417906+178373462+179569254+180226480+179089474+177643768
4182+177830180+179148086+179869221+179760596+179415447+178977491+178544406
4168+178363622+178556943+178880161+179093123+179188182+179203999+179383444
4155+179442444+178882626+178375403+178385844+178589277+179338942+180359811
4141+180182715+179257972+178912048+178283662+177083872+176515437+176445181
4128+176225718+176274470+176905689+177363480+177357833+177431738+177537510
4114+177594918+177783834+177901096+177648814+177079680+176635222+176499193
4101+176573137+176921157+177399210+177778303+178087818+178318984+178485523
4087+178489385+177932051+177029647+176804303+177464983+178093000+178428561
4074+178588015+178123063+177365091+177217398+177642778+178024355+178013952
4060+177538384+176845739+176545112+176928125+177664049+177893391+177105066
4047+176353868+176785788+177698537+177640954+176632039+175954125+176149562
4033+176765662+177128277+176932783+176862119+177559208+178185362+177820476
4020+177179960+176911686+176903322+177459219+178216473+178445465+178589762
4006+178810370+178495285+178081084+178162752+177983637+177474280+177628145
3993+178049565+177737721+177453804+178306699+179560016+180149334+179996983
3979+179377816+178973901+179141235+179441260+179759024+180035274+179779965
3966+179094423+178826828+179413759+179849794+179220710+178482942+178359916
3952+178012147+177223356+177311235+178112097+178209544+178541902+179872676
3939+180841513+180231506+177798448+176049456+177728793+180037933+179255488
3925+177421937+177670240+177938475+176674717+176832347+180030597+183030402
3912+183358549+181743005+178096998+172088247+167243809+167009266+170879025
3898+176966319+180692344+178731982+175104549+175697418+176502531+174729105
3885+174404801+174455804+174941756+178330299+178821336+175284847+171875732
3871+169546234+171122108+173921915+173736319+175487620+180167888+181500737
3858+176331878+164957513+158026746+167717748+179158605+183569395+181415751
3844+176003693+170956035+167244741+166757605+170672468+175180200+178596885
3831+181233861+182082719+181424969+178566900+171751813+168565985+172665979
3817+176220342+180849780+186471462+187465549+182776684+177693801+176486694
3804+174264152+173068244+177788686+182079264+185408264+189644773+192151891
3790+192452945+191382857+189817250+189581037+189380516+188548368+190968404
3777+195584276+197074057+194131661+190532136+190798217+193337455+196247538
3763+198344938+197412646+197236481+201019100+203714454+203153433+210144490
3750+236628213+267019929+292997108+317881474+331318403+330934478+322585904
3736+314065746+314896924+325276659+335730727+340024934+340791271+342835998
3723+346843514+352540013+358883645+363703649+366721794+372625141+389875489
3709+417459517+448375360+478849442+505074149+523186048+531833308+531153569
3696+523833686+511878445+493980071+475701032+468241452+467688019+464055656
3682+455282672+442909969+427587980+413314167+409133961+407322670+401015331
3669+400457318+404272852+403141804+397816305+391639890+384175691+375724022
3655+369082558+360395862+346370663+337796066+343631757+352630570+356219032
3642+355073351+353034407+351718753+350503553+347904577+341195729+330878778
3628+328406535+333728269+333701331+324415225+311172897+303429769+299853592
3615+294613176+290847967+290387866+291738202+295660654+299094980+298115915
3601+294604889+291663754+288808693+285916640+283871485+280045490+271721370
3588+264575672+264613905+266193060+264733244+261336996+258068898+255664408
3574+253802055+250807374+244391001+236800030+235001025+238074773+239555821
3561+238783274+237593460+235927203+233593300+231631618+230171880+227600269
3547+224673884+224227311+225701507+226318850+225166959+223506117+222485558
3534+221540379+219879285+217739537+215966111+214750251+213861044+213848254
3520+214585265+214784021+214171646+213164964+211558464+209969432+209445091
3507+208905981+207379112+206741236+207920551+208702277+208034300+207252030
3493+206896848+206134859+204831159+203836141+203504869+203423997+203399272
3480+203363464+203138683+202716602+202255842+202183140+202456596+202395190
3466+201786930+200942264+200430325+200598183+200978382+200913599+200304563
3453+199644989+198898759+197728139+197125876+197420312+197559602+197760763
3439+198291994+198629127+198802263+198695346+198178516+197754475+197556516
3426+197074892+196309274+195977401+196422460+197383981+198312527+198647253
3412+198487294+198278835+198047533+197879986+198272081+199277347+200013659
3399+199941191+199732634+199670200+199485418+199601942+200111610+200478825
3385+200598436+200688895+200814561+200903701+200843440+200743489+201144105
3372+202048877+202670742+202719436+202634372+202785752+203037200+203231433
3358+203609575+204169781+204541071+204846297+205312531+205499545+205437245
3345+205695854+206074617+206153529+205959082+205694302+205355422+204561275
3331+203583141+203139227+202930379+202453355+201792461+201085688+200512711
3318+199962073+199142327+198153965+197123838+195913704+194737980+194165663
3304+193817914+192822547+191528881+190927589+190960932+190753598+190447945
3291+190630029+190632047+190005835+189552993+189949650+190751347+190968908
3277+190826106+191102434+191373968+191331038+191198929+190871559+190795558
3264+191445292+192147602+192250483+192066109+192094910+192317653+192626373
3250+192982603+192968280+192823556+193466963+194485193+195024672+195090348
3237+194838144+194900462+195526344+196081407+196586747+197286825+198238137
3223+199370058+199923374+199940007+200309318+200953443+201681740+202672372
3210+203559696+204191595+205075174+206432438+207864773+208834231+209470709
3196+210625105+212409516+213666015+213945681+214177527+214759431+215418403
3183+216037531+216500640+217100516+218051032+218895271+219494448+220113130
3169+220962745+222223999+223602380+224669149+225691241+226874612+227870969
3156+228638800+229368649+229839385+229940228+230094773+230521492+231021087
3142+231379278+231681360+232190194+232554031+232475702+232243449+231898339
3129+231667522+231842678+232009546+231748453+231288585+231020544+230757452
3115+230220322+229929612+230214538+230117344+228857079+226968817+225456542
3102+224977500+224985884+224363359+223414803+223260317+223858097+224382165
3088+224624996+224841490+225105999+225279466+225397562+225759925+226161705
3075+226216668+226258880+226757699+227488364+227823245+227831300+227976897
3061+227965757+227587538+227366638+227546218+227849349+227904467+227451373
3047+226698389+226120658+225791191+225326976+224458516+223367759+222097926
3034+220480422+219062295+218397810+217942678+217156585+216099481+214931908
3020+214028068+213543358+213052593+212163522+210886450+209635462+208768982
3007+208161265+207802163+207938425+208376362+208764266+209268597+210334550
2993+212202473+214873956+218120919+221245730+223456472+224604404+225126105
2980+225528118+225905503+226051391+225766271+224758405+223148004+221623774
2966+220454105+219488102+218817116+218399848+217984347+217647621+217482830
2953+217286772+216963380+216643811+216522843+216650701+216846953+216967281
2939+216847244+216326183+215527242+214595513+213723579+213168729+212923648
2926+213044112+213488123+213609965+212933332+211901711+211146825+210751333
2912+210622446+210851904+211481221+212204919+212806696+213433607+213915968
2899+214031794+214066883+214305230+214764361+215328138+215837282+216194016
2885+216522998+217079342+217686127+217791977+217464567+217318097+217401899
2872+217542024+217804999+217946734+217766650+217398678+217031909+216864905
2858+216751447+216445736+216110291+215678953+214854762+214048853+213807576
2845+213893979+214016093+214306802+214841914+215638565+216734912+217806125
2831+218426495+218758679+219146505+219444958+219514710+219610992+219965980
2818+220535036+220946287+221015903+221158395+221575352+222059809+222565790
2804+223046521+223454492+223977921+224748235+225564857+226082599+226275415
2791+226384157+226388912+226242286+226180065+226227614+226161006+225952082
2777+225800701+225872665+225990606+225792025+225260698+224763199+224600251
2764+224727974+224934026+225059556+225027455+224934531+224882557+224783849
2750+224685684+224696203+224658862+224468433+224222071+224034242+223942191
2737+223815846+223582952+223353708+223218202+223229556+223284266+223163938
2723+222939662+222815956+222713153+222511914+222360397+222421648+222637773
2710+222748126+222569904+222350693+222357253+222409829+222257575+221936240
2696+221649412+221525687+221516236+221394995+221037581+220674151+220437609
2683+220204948+219932792+219564840+219085196+218673013+218378014+218002047
2669+217545032+217234798+216984457+216570004+216083004+215727007+215584825
2656+215510998+215319152+215062678+214900953+214985085+215157097+215051557
2642+214850570+214901535+215006686+215002805+215148518+215430630+215523069
2629+215517791+215540750+215431018+215358006+215635965+216241430+216858520
2615+217212305+217458725+217895595+218473792+218980976+219388520+219789000
2602+220259988+220808744+221428280+222234149+223119708+223712014+224095474
2588+224630352+225128124+225283211+225374486+225696248+226067480+226291039
2575+226480187+226701999+226840046+226992689+227270337+227480484+227503638
2561+227469810+227482794+227455468+227344552+227302767+227433304+227582220
2548+227600813+227628857+227709981+227723664+227754212+227856996+227911143
2534+227908814+227987552+228177826+228314593+228267994+228169597+228233720
2521+228432340+228621934+228756644+228825580+228828278+228842601+229074252
2507+229546716+229867100+229868594+229953329+230287259+230533874+230625324
2494+230809271+231121756+231571201+232215909+232875929+233369295+233735403
2480+234033138+234202685+234164393+233981417+233748057+233483471+233257389
2467+233174926+233255584+233362696+233338145+233208288+233092578+233033462
2453+232922411+232785295+232932231+233382841+233857246+234243500+234556683
2440+234884287+235182429+235254879+235189474+235199469+235231725+235165544
2426+235069864+235117374+235416099+235882779+236267558+236393670+236293157
2413+236216574+236437357+236869064+237194028+237326350+237415704+237574110
2399+237838289+238288123+239126520+241028776+245646764+255706057+274373659
2386+303697267+343201098+390172001+441611898+496415671+555414129+618955136
2372+685082854+749666332+806864988+852031587+883311830+901274910+906242607
2359+895458626+866670732+821745178+763828589+707601254+678357199+688983743
2345+732678843+772271135+777906227+765967017+754501668+747041388+744277874
2332+745578351+744821680+737168255+722753774+702753574+679990869+656691267
2318+631413893+606089514+588056062+578874350+568963721+548157593+517001482
2305+485367318+461714455+445026079+429965590+414636886+398883423+382105927
2291+365103650+349594841+335965716+324157528+315325195+310311541+308107999
2278+306997970+306019507+304964965+304020872+303247161+302379419+301373824
2264+300363648+299401021+298416250+297289239+296096184+294956597+293836418
2251+292684022+291540941+290443004+289462386+288663483+287986753+287449603
2237+287022768+286575263+286147573+285843647+285629870+285498868+285516703
2224+285524156+285461546+285605999+285929022+286149106+286301496+286541571
2210+286873172+287280484+287731812+288230127+288803879+289372547+289964543
2197+290700079+291501796+292207017+292801090+293376531+294023664+294845099
2183+295853917+296934775+297975111+298948548+299878201+300703925+301473754
2170+302393121+303434796+304469095+305512070+306503653+307388008+308295944
2156+309321724+310433033+311552883+312620797+313717958+314911635+316140847
2143+317412620+318665549+319805330+320991204+322324481+323699679+325100883
2129+326602580+328143249+329568480+331008771+332703033+334524959+336286255
2116+338058071+339951068+341923871+343852268+345853988+348175316+350757484
2102+353490063+356398787+359582830+363340063+367829086+372986747+378836722
2089+385276190+391889397+398246770+404403699+410823604+417580156+424258728
2075+430856641+437785302+444901714+451717266+458135541+464354225+470578965
2062+476825753+483082283+489356086+495432201+501362874+507640597+514386009
2048+521297863+528154443+534755733+541292745+548341074+555764440+562959608
2035+569787038+576274987+582429354+588476008+594615703+600712041+606445686
2021+611631449+616357403+621075205+626196612+631164232+635239481+638794174
2008+642339823+645778224+648912622+651491841+653476327+655372391+657400117
1994+659071594+660497989+662380002+664525107+666369003+667797106+668842643
1981+669538063+669991740+670321983+670540515+670693603+670565357+669823824
1967+669143309+669462062+670174096+670223547+669775149+669479219+669627106
1954+670176269+670900723+671752803+672448146+672272156+671474030+672046327
1940+674949112+678365971+681140121+683858222+686952679+690475737+694443777
1927+698283493+701521723+705324486+710351028+715795148+722321912+730094191
1913+737443612+744058798+751008885+758599352+765951724+772788935+779636782
1900+786450005+792545606+798050899+804063201+810046547+815269340+820625581
1886+825413329+828983742+832781848+836546495+838410808+838834286+839413725
1873+839215610+836566679+833809840+834671469+836927586+837288105+835892530
1859+833543255+830648931+827432283+824121080+820679923+816131978+809629201
1846+801605941+795842835+795027475+794313578+790452824+785312320+780107925
1832+773390499+766146268+761855049+758928741+755856720+754266600+752320231
1819+748656583+745470133+743237926+739832013+735959770+734377491+733857673
1805+731839417+727965000+723633102+721600175+721579136+719708458+715148092
1792+713299615+717302046+721381022+722079547+721328077+720891712+720895361
1778+720980445+719350578+714566945+709993303+712037721+718651587+724091204
1765+725535222+723864133+723299444+724317266+725478318+727368172+726811245
1751+722424074+720356290+723926160+728932440+731941192+732494236+733206269
1738+734835205+733099527+730602830+735701336+743675145+750472221+755724203
1724+758750733+759536438+756052428+748749896+747829811+757670262+768871277
1711+775888826+777377093+775499195+775343312+775645918+772818901+773618657
1697+781322155+792630767+804485592+811244629+813905515+813789457+808605324
1684+807989243+821420680+834883635+841083416+842760405+845102849+847236852
1670+849060176+857660236+869133659+874775040+877647393+884050879+890569958
1657+890406079+881439211+876742524+887904025+895174885+897125290+905196527
1643+915712758+920810176+919099185+910935800+906281656+917001435+929600821
1630+932889278+930860542+929935877+930173351+933010538+936755078+937188571
1616+938529649+944508027+948740945+948899079+948327947+949236387+950740258
1603+952211059+954110771+956438931+958309764+959700450+961502114+963118861
1589+963541951+964568158+968102705+972628371+975920554+975383191+969473672
1576+966143294+970873207+973564680+973232186+977808467+984972505+988878130
1562+985871707+972277478+965777341+983623430+1001054969+1010719586+1016591220
1549+1021457376+1022571383+1016780020+1008494443+1007145990+1020726789
1537+1035463827+1039997954+1041940286+1048754751+1054001145+1053414563
1526+1049537274+1042941806+1037544731+1041018959+1048606010+1055958149
1514+1062231991+1062653062+1054878377+1041628597+1039141915+1055473420
1503+1068819074+1072583178+1070389398+1068964555+1071751359+1071570479
1491+1064739633+1061139254+1067559819+1073741823+1073696021+1071352180
1479+1068946001+1064480889+1057182626+1049346612+1049022812+1055508199
1468+1057040017+1052443164+1049809604+1047711854+1036804285+1017546705
1456+1008889741+1015902632+1022133621+1020987940+1013604826+1007054462
1445+1003736040+998794039+990465688+978685311+965174380+957721165+954032674
1431+946753975+939660425+937720344+937803875+937276837+935393039+934432198
1418+940680033+950384319+957797011+964784050+972166853+977169640+978962066
1404+980344056+981859805+982145177+983819371+989461839+998389037+1007939613
1391+1013354155+1013151693+1011928536+1013175138+1014926886+1016908421
1379+1020280565+1023563355+1026003924+1029226084+1031484375+1031084031
1368+1031522802+1032905103+1031360398+1028942109+1029877798+1032418200
1356+1033431365+1032924356+1031693824+1029546545+1027095962+1024278493
1344+1020452673+1016519645+1012918644+1008968847+1005101339+1001917995
1333+999008689+997147093+997729715+999799828+1001761180+1003037980+1003422177
1319+1004957256+1009302739+1013928626+1017567200+1021183416+1023830484
1308+1025671274+1027287323+1026850492+1025599543+1027304712+1030541699
1296+1031045914+1029564866+1029711434+1031764546+1034396243+1038010052
1285+1042499929+1046568269+1049804791+1051926839+1051517335+1048186181
1273+1043912118+1039576650+1033916327+1027246877+1021559228+1017228883
1261+1012718666+1007253664+1001945709+997907258+995103763+993290686+992552880
1248+992704260+992821251+992049364+990461806+988636930+987565775+987868459
1234+988406676+987964721+987109692+987002095+987709470+988581734+989871110
1221+991264513+990809439+989051713+988887911+990460253+992510493+994951839
1207+996304018+995190710+994154954+995416306+996583335+995385253+993437332
1194+992536034+992064657+990633060+988502783+986993478+985383252+982438002
1180+979759416+978994749+979214134+978860059+976827752+973781116+972033793
1167+971275647+969685683+967320416+964236207+961115744+959248481+957987828
1153+956601490+954802853+951963648+949202617+947811156+946545147+944217531
1140+941642660+939909388+938655800+935970693+931215317+926045080+922198532
1126+920755835+920814990+919834042+916818459+912526696+908170112+904478827
1113+901331426+898755002+896877647+894598473+890340635+884919650+880714990
1099+878752551+878979855+881031958+883943438+885892446+885511898+884186190
1086+884519927+887185937+890522991+892062107+891937509+892445372+893625366
1072+894780208+895981705+896356276+896064150+897600937+903984161+912766577
1059+916370449+914508931+912022559+909430376+907472207+908240368+911353456
1045+915407201+918232511+916975351+913249210+911399880+910902885+909653566
1032+908971110+908847289+907443096+905402715+903307838+899999585+896198917
1018+894367598+894168707+892251061+888750594+886139003+883267192+879653461
1005+877569529+876888549+875169561+872688624+872700734+876155167+881462345
991+887735333+895139329+904237549+913596221+919762000+921505286+919937524
978+916846483+914541691+913349354+912003384+910081469+907168437+904446144
964+903956136+904608936+904551489+903281521+900981387+898498974+896074552
951+894162341+893384554+892782524+891876180+891441446+890721960+888278208
937+884701894+881517618+878981796+875938653+871737331+867672174+864475167
924+860769753+856114599+851864214+848710913+846084495+842632624+837486375
910+831822482+827388499+824369500+821651011+818796823+816451119+814464072
897+812325798+810046003+807811933+806295408+805619784+805231162+805323854
883+806608184+809187791+811965667+813876559+815668442+818592498+822230528
870+826155017+831189788+837343456+844238270+852481460+863097835+876491776
856+891052280+905191248+919352729+934035270+949856350+966670410+982583716
843+996662131+1006895396+1011803007+1015072133+1018610097+1021536016+1024707173
829+1027409902+1028651613+1029942853+1032112489+1034099537+1034424656
818+1032990808+1031766952+1031486781+1030225508+1028166030+1027482643
806+1027412775+1025799831+1022992843+1019748558+1014848323+1009222624
795+1002717829+992663349+984966295+985744625+988469712+986414815+981173856
781+974981139+967820671+958867855+948867328+940343890+934179664+928422613
768+921651698+915534749+912054543+911444129+913036966+914263849+911139116
754+905223387+903257610+906104967+908935167+909471366+908369624+906846966
741+905162835+902948017+900829229+899450267+898248691+895219988+889377543
727+883341718+879957697+879648260+880950911+880691933+878784380+878848425
714+880912949+883026458+886457912+892751239+900125580+905690649+909080027
700+912196065+916976749+923342040+928610558+930113575+928353443+927835255
687+931830466+936921519+939024548+938065570+934408132+931797395+933402110
673+935334738+935013345+931465056+923367037+918461290+920129040+926122711
660+932381725+935234516+935679110+936034738+934874152+930257969+924123398
646+920128031+919671793+919521809+918873045+920768411+930968450+957873477
633+980048281+960567823+923905409+908445780+912077522+915273520+915011515
619+919679090+922879436+921376496+926710535+936823471+938539043+930798981
606+923548927+922524816+922952875+922196436
##END=
