##TITLE=Sample description
##JCAMP-DX=4.24
##DATA TYPE=INFRARED SPECTRUM
##DATE=13/9/2023
##SAMPLING PROCEDURE=Instrument type and / or accessory
##ORIGIN=Default
##XUNITS=1/CM
##YUNITS=ABSORBANCE
##RESOLUTION=4
##FIRSTX=4397.6552
##LASTX=599.8556
##DELTAX=-1.9287962
##MAXY=1.7714118
##MINY=0.40250692
##XFACTOR=1
##YFACTOR=1.6497558e-009
##NPOINTS=1970
##FIRSTY=0.41273028
##XYDATA=(X++(Y..Y))
4398+250176591+250625950+250620711+249333946+249069208+250781939+251734237
4384+250752746+249628581+249576139+250578856+251124283+249914798+249075079
4371+250276543+251509747+251407266+251234315+251521561+250941287+249566023
4357+249092276+249333313+249079089+248673627+248889121+249615628+250199696
4344+250250963+250131881+249838619+249152974+249076578+249861164+249750427
4330+248349041+247738183+248351498+248404825+248025033+248157645+248467220
4317+248839876+248845567+247879847+246710881+246213939+246043445+246272577
4303+247252352+247515392+246458589+245306713+244392296+244418942+245873492
4290+247281544+247568393+246883651+246213723+247212700+249167606+249142478
4276+247425339+246480881+246353670+246496326+246530162+245809308+245256186
4263+245622068+246316818+247791149+250412064+251868439+250266481+247554357
4249+246555109+247254303+247601759+247059638+246767026+246741374+246387685
4236+246078454+246602890+247615723+248005414+247935938+248027652+248113369
4222+247828435+247246390+247018631+247390258+247883658+247992046+247824316
4209+247570525+246566562+245089160+244564706+245158600+246317938+247608623
4195+248448342+248902416+248842676+247741128+246704685+246906955+247310863
4182+247091034+246875902+246404811+245255861+244428534+244150826+243979699
4168+244448766+245187450+245342788+245502173+245517148+244680229+244469270
4155+245741764+246743307+246879370+247066773+247366882+247610827+247869911
4141+248085170+247864456+246974968+245987282+245420267+245203726+244974648
4128+244761575+245060166+245845709+246569525+246559083+245848310+245404461
4114+245569048+245829794+245744583+245297536+244783415+244468836+244433484
4101+244714642+245384499+246114638+246358041+246185831+246418901+247210424
4087+247472109+247133107+246841001+246138465+245093333+244669427+245217834
4074+246216739+246755067+247029199+247773157+247835137+246277581+245049291
4060+245615890+246707467+247546192+248373103+248327020+247057542+245662497
4047+245090641+245450959+245975720+246049569+245926331+246100981+246683495
4033+247267671+247273975+246760812+246544198+246759764+246974408+247177907
4020+247449690+247875800+248344832+248582906+248148161+247380665+247997177
4006+249357141+248878553+247576793+247383592+247361029+247452075+248000230
3993+248089000+248545350+249943358+250895475+250770594+249884359+248824810
3979+248139490+247972916+248002235+247919986+248453382+249860206+250959984
3966+251194897+251063495+250998408+250847839+250408903+249828322+248946711
3952+247855188+247233239+247853779+249476584+250438728+250469040+250805351
3939+251435248+251485883+250477549+249631345+250758978+252395928+252051886
3925+250858045+250910559+251220585+251070522+251474430+252586493+253513916
3912+253842765+253557090+251900558+248937372+247149184+247708070+249343755
3898+251725746+253638255+253064665+251047363+251084884+252139030+252135887
3885+252049737+251627800+251697746+253484633+253069922+249774869+247206359
3871+246458824+248085405+249747230+249222649+249996739+252795989+254032968
3858+252340415+247567942+244370167+249274802+255094359+257195083+255874645
3844+253304401+251491086+250503453+250506416+251765326+253125326+254236196
3831+255435294+256040045+255818012+254559445+251491809+250441076+253014427
3817+254597887+256492620+259266091+259519015+256790525+254001897+253228204
3804+252617185+253143969+255838480+257594656+259205828+261574596+262924714
3790+263335162+263461723+263123263+263194637+263541389+263259887+263808891
3777+265418093+266201703+265572257+264832887+265779314+267501963+269038238
3763+269950812+269164908+268925099+271407585+273374233+272082066+271795343
3750+279676623+290462976+304629954+328713976+349837015+360023475+361394260
3736+356983007+354149525+355674980+357962655+358593619+358715014+361433785
3723+367942745+376804161+385789608+393679650+400049367+405900302+414463506
3709+426325177+439539207+454058808+471109091+489155533+502343730+508730103
3696+510489856+507983489+501397104+494333270+490938337+489712612+486330396
3682+480062853+472805004+464557390+455822752+452206708+450428998+444244299
3669+439289481+438082109+435557099+430996958+425641754+418731505+410478002
3655+403875684+396924031+385988175+376314174+374594416+375556288+374447080
3642+371554996+368217220+364378185+359653257+354919984+350417939+344391812
3628+340146719+339990387+339021253+335101179+329546216+325953475+324494318
3615+322102372+319055365+316708835+315258385+314908400+314098126+311484961
3601+308778329+307335430+305779265+303864878+302702126+301154398+297816459
3588+295340224+296121107+297056370+296184116+294542181+293195494+292010415
3574+290577217+288505902+284929021+280523188+279073714+280647672+281571681
3561+281406317+281148570+280554187+279345714+278209120+277626353+276795161
3547+275334161+274262492+274283934+274682857+274464563+273527837+272522302
3534+271754427+270808198+269561970+268381442+267532185+267003540+266646853
3520+266789239+267440904+267495026+266340078+264717761+263582865+263339787
3507+263363307+262811919+262344531+262578162+262673688+262512406+262647403
3493+262537769+261598640+260631836+260379201+260206738+259564737+259004641
3480+258957276+259201113+259723833+260372752+260579340+260318901+259970108
3466+259590298+259244829+259303847+259736857+259945396+259780014+259730625
3453+259947762+259966243+259531191+259033364+258821447+258905882+259451074
3439+260235153+260629271+260546661+260171710+259603142+259039994+258825999
3426+258937910+258825385+258753108+259513036+260714301+261431542+261552846
3412+261464130+261177859+260715512+260777708+261774084+262848680+263124257
3399+263109552+263507373+263974544+264165090+264136638+263917134+263871593
3385+264188773+264665229+265237013+265491580+265293085+265369752+265946304
3372+266478382+266617100+266462557+266263141+266227283+266562870+267167568
3358+267584645+267862444+268166346+268018848+267485651+267128476+267084777
3345+267454760+268014097+268298598+268125574+267514301+266746552+265930787
3331+265095765+264471214+264067414+263788459+263532194+263051041+261967539
3318+260335954+258953012+258107892+257148296+255773320+254684200+254341585
3304+253716041+252127577+250719110+250357545+250779139+251511842+251973919
3291+252174347+252621719+253131414+253414307+253740013+254320504+255076403
3277+255721583+256066618+256493343+257216924+257623975+257538204+257510150
3264+257665416+257962905+258456775+259102443+259931685+260723460+261249034
3250+261460879+261054568+260087655+259280128+259216775+259777701+260233528
3237+260326272+260706028+261612911+262579914+263281546+263644357+264106886
3223+265185203+266478291+267389565+267750063+267741230+268089589+268993004
3210+269593222+269635041+269893330+270576446+271278874+272336579+274261914
3196+276421294+277751632+278065289+278084528+278504171+279273690+280054590
3183+280799163+281524930+282162342+282839930+283625437+284130905+284327033
3169+284865975+286042438+287456704+288397766+288553086+288588855+289196713
3156+290221975+291335301+292407675+293064543+293022380+292819207+292997505
3142+293323356+293743198+294386680+294718600+294315993+293787095+293967236
3129+294670386+295016451+294578491+293805774+293375563+293172733+292667391
3115+292050843+291858292+291764898+291169034+290421517+289899719+289200344
3102+288211014+287530625+287322412+286994465+286438001+286297602+286781338
3088+287286120+287454609+287568868+287868995+288421702+288948089+288976541
3075+288763305+288951575+289299501+289091215+288799832+289519547+290870587
3061+291440835+291051397+290646639+290485267+290423757+290492800+290373646
3047+289849390+289076113+288154760+287338182+287074329+287165267+286653151
3034+285245081+283719789+282584333+281697791+281066809+280786535+280484385
3020+279671402+278577260+277908487+277614503+277143918+276536637+275986802
3007+275547505+275246963+274916289+274749082+275012736+275404108+276163692
2993+278100858+280848136+283280853+285303249+287298241+288925472+289891463
2980+290496594+290794950+290584262+290102242+289516476+288561794+287398753
2966+286464465+285729233+284992067+284253962+283809860+283731495+283533903
2953+283097659+282795925+282852612+283234969+283471508+283144790+282656447
2939+282510232+282516338+282226652+281484410+280681038+280229023+279925392
2926+279650086+279414306+278968722+278483938+278260514+278068378+277657280
2912+277179686+276898924+276843249+276950391+277265204+277796270+278307970
2899+278661731+279076966+279429661+279404984+279412373+279990334+281005931
2885+282010057+282732897+283111985+283061927+282718481+282500621+282492510
2872+282651552+283010118+283159422+282840364+282475475+282285381+282122347
2858+282033216+281991847+281794292+281326778+280597669+279858968+279417160
2845+279432623+279867187+280381489+280766989+281198266+281836455+282502283
2831+282927761+283294402+283891675+284531146+284911986+285010132+285129485
2818+285481295+285667253+285600738+285866181+286502257+287110531+287722635
2804+288471777+289109461+289492703+289898328+290418320+290871870+291342419
2791+291991754+292442215+292343690+292076062+292009692+292128919+292252753
2777+292182463+292082294+292179446+292281692+292125884+291835801+291633549
2764+291435813+291242756+291387309+291888117+292233387+292221645+292175255
2750+292351386+292719129+293013926+293065898+292941415+292772835+292764832
2737+292907092+292879507+292718550+292799950+293071173+293261214+293338169
2723+293284806+293099499+292872425+292645388+292468029+292540704+292918671
2710+293384198+293791557+293924802+293727716+293605382+293679465+293686944
2696+293567121+293456186+293429685+293474178+293527776+293452266+293241794
2683+293070360+292934044+292623458+292123102+291692892+291390073+290984449
2669+290453148+290051823+289949758+289941556+289675716+289308841+289183779
2656+289050913+288622274+288201855+288176618+288428458+288493328+288256284
2642+288016005+287881478+287782555+287778978+287862419+287855591+287739742
2629+287719654+287844174+287933630+287947107+288029590+288273897+288652966
2615+288977281+289063269+289074036+289285519+289662782+289994341+290243797
2602+290656755+291296282+291845267+292304038+292953861+293632009+294038140
2588+294354019+294849082+295313994+295474770+295505010+295644434+295889517
2575+296316946+296912268+297327900+297511835+297650788+297671635+297613918
2561+297673044+297796209+297742774+297498015+297417754+297692536+298046622
2548+298199648+298164837+298145797+298299581+298474393+298526185+298668480
2534+299000076+299307103+299494633+299646683+299780452+299884053+300016178
2521+300200113+300455078+300797693+301111549+301319889+301440525+301454886
2507+301474179+301661311+301924098+302159626+302509990+303077113+303687555
2494+304047042+304134367+304239106+304545989+305045225+305715786+306511716
2480+307123784+307165694+306811807+306582385+306658654+306706706+306350724
2467+305955938+306105983+306560924+306717148+306527649+306454162+306710970
2453+306957264+306953903+306958564+307177472+307469253+307718365+308064340
2440+308613362+309069929+309106166+308878913+308733745+308733926+308742452
2426+308781110+308935889+309133733+309313766+309453659+309495388+309487006
2413+309555797+309765780+310059079+310270544+310420734+310677072+310987495
2399+311238197+311404970+311541322+311763879+312055082+312300834+312341733
2386+311900376+310722053+308711019+305927323+302524767+298630996+294368055
2372+290085261+286106532+282210213+278318466+275263709+273575094+272976214
2359+273750845+276689500+281827639+288436876+294704492+297712226+296096376
2345+292042913+289636661+289570002+290294956+291475284+293168090+294991702
2332+296577294+298293295+300410820+302534757+304597076+307033171+310115115
2318+313587257+316690517+318952252+320772667+322702409+324780137+326854686
2305+328880966+330734186+332285075+333764103+335372258+336866930+338106204
2291+339236259+340376971+341588064+342812416+343953490+344976060+345806277
2278+346526588+347418948+348404413+349153230+349770753+350457789+351169574
2264+352014424+353029334+353888816+354401636+354799095+355342698+355980345
2251+356610044+357234829+357745084+358266720+359080607+359834338+360113329
2237+360218863+360539872+361107067+361668662+361906683+362010193+362375822
2224+362829210+363119799+363407244+363829416+364318391+364762601+365182497
2210+365632705+366033633+366469570+367135145+367880638+368433526+368766820
2197+369158101+369950274+370959150+371722853+372139641+372453678+373090025
2183+374148651+375254499+376179158+377012446+377848733+378690584+379561699
2170+380521295+381539421+382455301+383268753+384161763+385185381+386327683
2156+387464530+388483848+389514258+390613711+391779244+393064366+394474749
2143+395944708+397308448+398565172+399893974+401183215+402332346+403686041
2129+405344488+406943249+408292031+409618087+411300343+413238106+415092374
2116+416876984+418505191+419996936+421806548+423976695+426153635+428308102
2102+430591731+433012002+435431441+437829384+440393847+443187262+446152111
2089+449213533+452276979+455421499+458885837+462719597+466560836+470187430
2075+473977763+478377743+483234362+487968538+492510217+497305705+502522209
2062+508089818+513848696+519489467+525132189+531222192+537584539+543874193
2048+550231482+556773356+563412381+570128290+576997315+583823346+590427110
2035+597131565+603960631+610453116+616557030+622559925+628511011+634410432
2021+640446278+646758730+653101603+658944951+664399475+669806019+674688543
2008+678842626+682975032+687472055+691800138+695532230+698992918+702132489
1994+704541812+706711381+709477952+712686601+715414008+717325396+719228909
1981+721616049+723609812+724754029+725789714+726802059+727558175+728466828
1967+729551938+730424679+731115545+732072034+733088281+733335695+733183807
1954+733693593+734786145+735470219+735395286+735136672+734985507+735577451
1940+737450831+739368362+740658903+742040346+743899635+746379050+749090415
1927+750794565+751330653+752598360+755604397+758965079+762642688+767583741
1913+772492350+776561746+781156680+786807748+792451590+798223474+804748873
1900+810622136+815044372+819781150+825593643+830847433+834960256+839524986
1886+844834414+849352320+853052980+857488150+862730666+867101165+869927782
1873+871646168+872161445+871882887+872896822+875583113+877450785+877233720
1859+876739615+877653110+878621233+877506425+874931701+872571730+869852633
1846+865613718+862038933+861377477+860613196+857794238+854391718+851127862
1832+846771455+841498950+837853280+835643029+833469558+831884273+830210761
1819+827334646+823813838+820834465+818476229+816501180+815287450+814419984
1805+812940631+810210912+806802467+804682756+803938852+802301614+799025185
1792+797212502+799124035+801562118+802263822+801744571+800861280+800545654
1778+801135357+800909115+798420452+795917987+797497563+801356397+803945572
1765+804324136+803363311+803692378+805375573+806692706+807707724+807015991
1751+804169430+803101662+805644159+809164822+811986815+813499263+814265061
1738+814896025+813961285+813444924+817337070+821731847+824891361+828159841
1724+831146223+832301134+830364672+827005363+828312090+835201673+842247551
1711+846830923+848105640+847572009+848116840+848714203+847176754+847238246
1697+851563149+859060717+867998980+874417219+878182983+880014743+879132680
1684+880390488+888609849+896751025+900711383+901980463+904577298+907626617
1670+909364512+914826407+923246430+927863330+929195348+932407394+936805640
1657+938011349+933636877+931237742+939560143+945787691+947964342+954426442
1643+963861266+969224383+968457646+963420560+960438514+964784661+970442738
1630+973142542+973691780+974553538+977445839+982002765+984505591+983721584
1616+984897089+990193800+993665905+994079876+994355615+996198285+999260972
1603+1002248221+1003496997+1003305222+1003536234+1004845201+1007167669
1591+1010044073+1012643510+1015192654+1017713978+1019621465+1020762358
1580+1019324120+1013778261+1010721860+1015222352+1018424499+1017968185
1568+1019588153+1022335937+1023195166+1020572751+1010097545+1003591945
1557+1016875560+1029794702+1034827813+1036422563+1038867727+1041055000
1545+1040282626+1037705228+1035694773+1040298306+1049662823+1054946527
1533+1056598868+1058689603+1059600930+1058109726+1057783767+1057171374
1522+1052081902+1049284404+1053090561+1059121493+1063421467+1063313151
1510+1057531367+1046969956+1043652340+1054154644+1062313018+1064712803
1499+1066019892+1069385054+1073162019+1073741823+1069728933+1064900820
1487+1065202067+1068604370+1070869538+1070855592+1067756125+1061591297
1476+1055213090+1050044205+1047560888+1049699169+1051190084+1048048490
1464+1045139425+1044811804+1038567059+1022634871+1013766916+1019032195
1452+1021280020+1014823917+1005176868+998971432+995941478+992573714+987587355
1439+978810879+965615131+955803332+950806929+944690370+938321701+935073019
1425+934632241+935522830+935862085+937331828+944602142+953466701+959622785
1412+965455439+971352981+974017595+972902643+973299849+979317196+988339640
1398+995094461+996192432+995386314+999366759+1006821839+1010915658+1009587181
1385+1007906515+1007405834+1007555554+1011727847+1019070781+1022759301
1373+1023039809+1025925968+1029405733+1028695719+1025391976+1024260260
1362+1026331051+1027598903+1026918442+1027540373+1029237587+1027784102
1350+1024506590+1023323497+1022396996+1019928998+1015476197+1008357337
1339+1002362607+1000155680+998748008+996524461+994053140+991813263+991603279
1325+994079370+997797082+1002033324+1005639180+1007921328+1010087067+1012073171
1312+1012392555+1012519875+1016068430+1022027464+1026295572+1028325609
1300+1028692033+1027418762+1027136736+1028919576+1030226881+1031327454
1288+1034626428+1040133556+1046584022+1053026540+1058876175+1063334973
1277+1065484093+1065607583+1064690837+1063114006+1061183397+1058227869
1265+1053826806+1050463595+1048967477+1047171197+1044507667+1041942193
1254+1039982246+1038385834+1037097027+1035453429+1032601954+1030042983
1242+1028550623+1025826613+1021890317+1019973871+1020477297+1020946257
1231+1019720532+1016726273+1013798204+1013254674+1014734172+1015205444
1219+1013962954+1013146069+1012867439+1013994604+1018009372+1019383228
1207+1013860347+1008160721+1007310958+1009235426+1012341974+1015511821
1196+1016583635+1014430613+1010028682+1006209157+1004168281+1002974350
1184+1002948914+1003201097+1001334076+999823868+1001162100+1001560968+998573069
1171+994534455+991265686+988889891+987809767+988578239+989801001+988578600
1157+984841305+982104216+980959493+978646707+975902175+975026761+974925382
1144+973734196+972198047+971672510+970677073+967244855+962603964+958557185
1130+954817217+950533574+946404058+944669343+945215763+944554523+941787591
1117+939572355+938750917+937281536+933421184+928814328+927944477+930970962
1103+928933555+918853098+912255874+913341128+913671856+909930660+905993786
1090+904650279+905367303+906093214+906774398+907880029+908648790+909041010
1076+910048008+911073938+910977400+912481610+917113035+920864131+920816296
1063+918541952+916876604+917601504+921473056+925349448+924577002+922592055
1049+923411108+923910921+923455258+924733587+927108515+929263777+931375395
1036+932092852+929394566+923645515+918668694+918511459+921790777+924627439
1022+925557337+924828680+923541896+922393126+922242467+923582939+924516955
1009+923539945+921885798+920405866+918131956+915377091+914415544+916477375
995+919231661+919942182+919569905+920634493+924279152+928720536+931782500
982+934409323+937972185+940982846+941722920+942569142+944511963+943998637
968+940817084+938865375+939154844+939158818+939186999+940430066+940074047
955+937644564+936563862+937890460+939348136+939012566+937093374+935074031
941+933857410+932187077+930058407+929232056+929542118+930069896+929681939
928+926788192+922911800+921422402+921454485+920597785+918894358+916277001
914+912742464+908370232+904247654+902634983+902658322+902079458+901561362
901+901949898+900775910+896834845+894484702+896559901+897768067+893101669
887+887617808+887234403+890665465+893676777+893917615+893624606+894985961
874+896456571+897307779+898530758+900632548+903889467+908945773+915973225
860+923834038+930883457+935794812+939868760+947166388+958295681+969508360
847+979181278+987502595+994020551+999208151+1003566655+1007870313+1012943672
833+1017360561+1019558816+1021492966+1025357726+1028053194+1026342540
822+1022979835+1021706563+1023298134+1025978790+1026281626+1023809148
810+1021827235+1020102202+1016555815+1013310458+1013475930+1016252256
799+1016212803+1011393795+1007096133+1004427545+1000424844+996335649+992439457
785+987054085+982353653+980820250+980396670+977590862+972058082+965424295
772+958611596+953696700+953181207+954414952+952064086+947302524+943980717
758+940750389+936130237+932809514+932601553+933918252+934973736+935390091
745+934707318+932292430+929394349+928315670+928769816+928929147+928648133
731+926888632+921539750+915499353+912922678+912108538+911025163+911083909
718+911331179+908563958+904467609+904057902+906691300+908049259+909636133
704+915709842+923800004+927990939+928210895+928878927+931678303+933836600
691+934297683+935762151+937454668+934602759+928379475+926743898+930723259
677+932582766+930886636+930137096+927594889+921676753+923242094+929506567
664+929261971+926261282+925330444+927176728+929804995+929967577+926923533
650+921510124+913733782+908405133+912343668+920160620+922946195+922211179
637+921862097+926085259+933030120+931609585+919447715+907301886+901020867
623+897576076+898088679+900620626+895675815+890056035+895327094+904520503
609+911814662+918601710+918307328+913857634+912439700+901534916
##END=
