##TITLE=Sample description
##JCAMP-DX=4.24
##DATA TYPE=INFRARED SPECTRUM
##DATE=13/9/2023
##SAMPLING PROCEDURE=Instrument type and / or accessory
##ORIGIN=Default
##XUNITS=1/CM
##YUNITS=ABSORBANCE
##RESOLUTION=4
##FIRSTX=4397.6552
##LASTX=599.8556
##DELTAX=-1.9287962
##MAXY=1.7668087
##MINY=0.37422806
##XFACTOR=1
##YFACTOR=1.6454689e-009
##NPOINTS=1970
##FIRSTY=0.38971758
##XYDATA=(X++(Y..Y))
4398+236842875+236168955+235834503+235998777+236861222+238757432+239746515
4384+238648671+237449057+237934996+239208922+238918953+236996644+235818004
4371+236337141+236941783+236005044+234535203+234454587+235088227+235066601
4357+234841110+234257078+233020915+232605468+233415281+234069676+233910420
4344+233517376+233650317+234278758+234107457+232550879+231670231+232256346
4330+232201268+231413407+231435630+231600193+231171977+231284469+231921115
4317+231408154+230060948+229987269+230968691+231394281+231491432+231328390
4303+230632048+230527199+231526641+232543145+232475462+231314100+229956860
4290+229610799+230066671+230174509+230689806+231855623+232215649+231902044
4276+231800872+231747188+231481924+231224863+231153503+230964960+230103692
4263+229065363+229064421+229772935+230006613+229397551+228506453+228253504
4249+228792220+229441182+229369604+229047740+229756653+230822475+230796484
4236+229710667+228607679+228417778+228931228+229768027+230671966+230855022
4222+230602779+230734597+231015926+230818218+229995438+229312009+229335500
4209+229762340+229999658+229689132+229173671+229049805+229676236+230317193
4195+229804087+228845559+228775756+229039246+228420965+227568481+227608617
4182+228070322+228251675+228198607+228263357+228469541+228456537+228394323
4168+228855050+229565592+229574883+229184068+229499194+230291565+230499144
4155+229713691+228716676+228447825+228676377+228889788+228902593+228558144
4141+228324122+228670599+229039391+228668082+227797233+227429437+227681716
4128+228078508+229008655+230165851+230125245+228977159+228014302+227828095
4114+228212897+228331439+228031200+228163670+228521703+228390863+228159341
4101+228551678+229378298+229839912+230094799+230634819+231031774+230911911
4087+230506135+230184343+230030357+229807076+229747905+230413638+231506954
4074+232384668+232712653+232306552+231685934+231066150+229940106+228999835
4060+229409939+230787066+232077945+232602153+232303002+232264822+232583136
4047+232085425+231435068+231694610+232534325+233518228+234126076+234089364
4033+233875446+233878815+234092461+234501406+234791864+234644634+234856197
4020+235736754+235928703+235423964+235622252+236230716+236912623+238373191
4006+239974270+240545823+239916149+238709762+237863019+237546426+237490171
3993+237849562+238442378+239019962+240037661+241246874+241847550+241863380
3979+241694597+241555643+241395028+241766953+243050370+244092900+244510521
3966+244906426+245216916+245453364+245366174+244673617+244245238+244669071
3952+244921350+244315584+244295317+244936256+244769555+245207878+246983173
3939+247877043+247119573+245410295+244216513+245394664+247567984+247784926
3925+247227247+248385222+249155841+248098875+248600154+252318298+255584734
3912+256196748+255236970+252278397+246742867+241931770+240804096+243398568
3898+248979940+253082324+252076904+249632941+250939812+252318225+251309835
3885+251172077+250795770+250463002+253058344+253666609+250827411+248384154
3871+247366672+249458669+251875520+251306702+252498836+256766526+258598239
3858+254756157+244827585+237965822+246596886+258216752+263934867+263208930
3844+258877993+254516358+251448155+251562494+255228077+258723029+261089239
3831+263394466+264831127+265010813+263171656+257995390+255732942+258785352
3817+260974628+265328638+271587897+273781700+270612198+266406324+264983845
3804+262320204+260567838+264583340+268788762+272502468+277017944+279917672
3790+281297461+282296288+282705415+282966858+282523283+281545321+283779568
3777+288656519+291171137+289601301+287114702+288127729+291906727+296212054
3763+298562615+297578332+298457748+303380884+305713967+303131159+303811128
3750+315680900+329374869+345769517+376167193+406234873+422793070+428291689
3736+429926891+436753282+448174298+457051701+459748975+460171631+464318751
3723+472799723+483811016+495320345+505699683+513220696+517642426+527597478
3709+548991875+572501145+590986577+608263087+630149544+651796854+666603790
3696+675152753+675864907+666212286+655464556+657205167+665320318+667618989
3682+662541831+654720018+646497717+637984108+634228528+632457995+627488493
3669+626983900+630772371+631053683+627198922+620328773+610121352+599232206
3655+592386072+584543829+569395668+557036281+558885890+563455267+562532220
3642+558404950+553612726+548253495+542957221+538073314+530949057+520865340
3628+517398570+519860935+518027337+510858018+502326441+498218696+497265330
3615+493830654+488878611+485224710+482963603+482323027+481563348+478340977
3601+474465533+472017404+469387614+466359873+464761620+462532751+456590612
3588+451664505+452925916+455397301+455707664+454512071+452450954+450718963
3574+449586834+446699386+440196362+432656802+430392689+433686745+437189413
3561+438628210+438165383+435834292+431861226+428292196+426461171+424645287
3547+422822592+423113467+424611237+424821007+423771069+422703852+421489894
3534+419728091+417662084+415290024+412858232+411049665+410109954+409840560
3520+409711351+409271779+408559118+407262679+405260569+403253860+401683100
3507+400508807+399418262+398463338+398015760+397707390+397062140+396111274
3493+394828599+392884339+390551908+388825532+387794430+386868376+386333572
3480+386242180+385704587+384620961+383340932+381733079+380008659+378469957
3466+377025183+375575736+374112596+373116087+372995934+372652463+371065511
3453+368982008+367012681+365201542+364067964+363249095+361732091+360248196
3439+359907405+359816303+358867537+357612537+356677862+355610356+354130372
3426+352219437+349930547+348326425+347974731+347885839+347440036+346795729
3412+346000840+345115465+344419395+344036838+343799357+343192034+341698104
3399+340092497+339486840+339432396+339187163+338547674+337398085+336009674
3385+334583989+333401980+332921367+332792520+332262027+331190354+330221593
3372+329744530+329288439+328627034+327837253+326882656+325984204+325188917
3358+324335346+323565706+322853443+321979515+320956382+319715437+318387882
3345+317242024+316216501+315545062+315139358+314417786+313654521+312982430
3331+311872614+310371005+308930071+307925303+307263971+306255690+304601326
3318+302979763+301978980+301188366+300145853+298920865+297419437+295469055
3304+293470206+291754752+290216575+289117047+288342335+287469366+287055694
3291+287335684+287325342+286702461+286576439+287123849+287136020+286656258
3277+286560519+286600365+286325881+285750851+284652573+283755896+284355902
3264+285557436+285712744+284992657+284352551+283995207+283289374+282253074
3250+281648684+281264697+280467038+279769862+279885850+280259767+280194673
3237+280133401+280474572+280845048+281180695+281587430+281687697+281384977
3223+280914126+280562160+280770029+281275311+281680561+282273069+282681235
3210+282441400+282238638+282466647+282575897+282305036+282183561+282646425
3196+283735321+285285651+286486641+286832920+286814283+286616158+286006843
3183+285172815+284816719+285446574+286384473+286743574+286886005+287383372
3169+288182173+289149594+290117703+290951840+291560449+291957821+292547050
3156+293271285+293422500+292933990+292614335+293032934+293817445+294279113
3142+294240100+294146245+294332525+294272339+293689232+293237561+292907003
3129+292311308+292204430+292922126+293441300+293172413+292452271+291653652
3115+290791460+290295778+290842753+291575409+291222194+289949083+288554840
3102+287628569+287070745+286515167+286306520+286866571+287703443+287988775
3088+287705544+287511476+287748306+288032751+288008734+288012900+288349616
3075+288877410+289388759+289673404+289746122+289824800+289932510+290041941
3061+290068928+290011550+290371938+291223806+291739991+291502455+291074637
3047+291288754+292122330+292562137+292146563+291522215+291320070+291384095
3034+291235198+291108289+291203176+290905329+290319160+290208859+290686376
3020+291472263+292294898+292917526+293079735+292873333+292881085+293330112
3007+294045309+295049134+296537667+298434094+300437706+302672642+305713388
2993+310019166+315512352+321622858+327690440+333206808+337853088+341511915
2980+344418815+347160862+350146910+352994693+355065337+356624252+358227793
2966+359412737+359536766+359078213+358782629+358685007+358678486+358726990
2953+358624912+358567099+359085675+360053241+360642343+360069541+358399710
2939+356596685+355066424+353069965+350317341+347874465+346500761+345686782
2926+345212110+345178567+344673249+342870731+340458427+338313960+336284284
2912+334271163+332359613+330411513+328857525+327873912+326784526+325533511
2899+324895543+325075175+325327472+325266580+325181817+325164285+325397456
2885+326174595+327331501+328308920+328678182+328730127+328797068+328580161
2872+327925277+327194902+326642639+326172059+325627801+324624736+322967801
2858+321087837+319124378+316950896+314592420+312043843+309561374+307425491
2845+305632826+304170049+303101256+302413227+301806375+301140551+300822019
2831+300851034+300606019+300123721+299878524+299746127+299463982+299152478
2818+298978968+298870188+298690339+298424712+298251129+298412305+298730891
2804+298988639+299448696+300140692+300685475+301000837+301216240+301299699
2791+301210734+300953565+300650429+300549908+300530782+300245722+299880498
2777+299788327+299588102+298869410+298105130+297682365+297418187+297225587
2764+297081092+297006109+296998737+296802297+296432582+296207833+296193906
2750+296248132+296170233+295863765+295556752+295466538+295353810+294982773
2737+294631296+294524763+294524165+294573972+294632709+294524926+294421979
2723+294682969+295059367+295111113+294913423+294667194+294607226+294908352
2710+295261350+295517939+295902614+296143990+295954378+295809737+295864072
2696+295594352+295165285+295138769+295293969+295262400+295144330+294976995
2683+294686030+294397691+294108863+293692455+293259023+292784115+292145458
2669+291564614+291279445+291182366+290966800+290566222+290179953+289848689
2656+289474971+289055177+288745357+288732516+288947720+289039981+288793770
2642+288462850+288345088+288378920+288419799+288407211+288423403+288623266
2629+288843922+288760354+288404549+288199777+288495633+289086782+289549139
2615+289858922+290205708+290623292+291138662+291814955+292408749+292657043
2602+292754122+292938572+293286698+293871581+294552401+295036673+295308621
2588+295576367+295857299+296014617+296009166+295986961+296134608+296366692
2575+296505011+296489906+296244492+295826690+295482150+295323980+295252384
2561+295203483+295194553+295113141+294797381+294441920+294444057+294700447
2548+294821397+294794139+294752681+294687189+294670581+294897340+295279099
2534+295432904+295346149+295451614+295857462+296211891+296437835+296761057
2521+297182880+297639875+298094770+298402289+298564915+298745580+299042250
2507+299438427+299853095+300196512+300410702+300581550+300770691+300913683
2494+301099020+301364992+301619914+301913470+302202859+302460119+302842530
2480+303199096+303224217+303041125+302917114+302830522+302694231+302570564
2467+302546548+302633050+302730527+302720131+302641616+302604161+302551710
2453+302394681+302324588+302545063+302904835+303199024+303421001+303628091
2440+303838224+304044136+304211126+304296940+304330157+304343451+304373516
2426+304466140+304647547+304948782+305280517+305598921+305939603+306157814
2413+306202731+306288327+306535915+306849103+307194748+307578282+307911574
2399+308224980+308544182+308777715+308969482+309182331+309342439+309392862
2386+309160199+308151374+305818798+302099423+297624046+293110199+288790601
2372+284422916+279561975+274362436+269715051+266476090+264928622+264809556
2359+266124795+269162498+273969465+280882684+288412536+292327373+290545991
2345+285699812+282462246+281979514+283077593+285048242+286953417+288101503
2332+289017976+290946768+294008505+296966969+299189462+301494183+304631283
2318+308139927+311240188+313778260+316112467+318528755+320953919+323294247
2305+325545211+327575684+329312492+330929147+332641577+334332924+335771323
2291+337142021+338603096+339934237+341076654+342164808+343123607+343846918
2278+344508070+345297633+346097521+346764323+347431560+348137121+348806206
2264+349650865+350667949+351428860+351789573+352065053+352610977+353412785
2251+354203906+354741716+354926673+355125033+355654367+356174827+356411873
2237+356598388+356935955+357366725+357880772+358416119+358735393+358877317
2224+359142944+359651232+360185058+360489046+360684290+360928871+361135454
2210+361354171+361765670+362366944+362981875+363491249+363927598+364417557
2197+365083743+365772135+366271476+366784835+367520788+368384066+369267195
2183+370078131+370693387+371222757+372002541+372940476+373637851+374274913
2170+375248420+376373739+377339748+378284348+379362613+380506443+381670521
2156+382804389+383892434+384924225+385941417+387139944+388451053+389622594
2143+390862416+392486351+394098189+395223218+396263630+397679208+399216787
2129+400589295+401925870+403409259+405030659+406768300+408629210+410497292
2116+412301513+414067481+415784728+417561708+419584791+421880818+424212452
2102+426314321+428377177+430791690+433502838+436160086+438786036+441633747
2089+444687968+448021689+451668128+455326593+458902070+462503736+466283369
2075+470429294+474751735+478930986+483238648+488001930+493047429+498290998
2062+503616107+508865436+514332721+520268558+526645741+533312822+540008627
2048+546576455+553031230+559429532+565854857+572422721+579108891+585897646
2035+592787900+599630519+606368706+613063425+619791723+626504590+632885650
2021+638582230+643795444+649298229+655362188+661398110+666785994+671299080
2008+675357489+679825585+684677216+689337949+693833503+697901909+701044660
1994+703232487+705098722+707590972+710430822+712976392+715288248+717388777
1981+719228351+720901515+722757679+724623335+725744017+726095820+726219559
1967+726707055+727849545+728760855+728607630+728138029+728182873+728591040
1954+729078391+729429396+729511406+729326667+728643346+727394288+727128335
1940+729313336+732463622+734532853+735279564+735786114+737018727+739104404
1927+741353231+742728928+743851566+745866173+748759126+753737395+760638117
1913+766428154+770413101+774633356+780256475+786477572+792280070+798087422
1900+804250199+809429942+813751261+818948392+823970997+827999341+833259718
1886+839405107+844124450+848056221+852644362+857440282+861386977+864226610
1873+865802260+865532467+864663827+866500359+871065100+875102861+876565783
1859+876316566+875799222+874769315+872915541+870318823+866588310+861974088
1846+856862662+852795125+851934092+851278012+848155401+844847543+842145125
1832+836653570+829170374+825229837+823894638+822490760+821715070+820115948
1819+817412370+815413630+813516750+810039294+805991245+803761616+802826180
1805+800916260+797266380+793582522+792056861+791701218+789683207+785684133
1792+784484700+788432772+791719475+791926384+791509161+791236471+790867426
1778+790951102+789904605+785704925+781012967+781964921+787340126+792410185
1765+794437107+793001859+791867774+792863558+794603373+796970579+797073598
1751+793228039+790777447+793662359+797957959+799521293+798338523+798452700
1738+801076368+800802156+798466827+802019555+808917307+815528531+819838403
1724+820998280+820645752+817140332+810256055+809311129+818357007+829101332
1711+836399643+838126997+835790291+834495301+833612824+830104071+830237301
1697+836602640+846927787+859860519+868322039+870051856+867147311+861484491
1684+862324731+874896749+886457842+891546882+892682561+895316010+898541713
1670+900717079+908264173+918456235+922993663+925222785+931765691+937828346
1657+935711735+924630820+920297838+932440100+939325681+941803731+951159682
1643+962264648+968508421+969413284+964821158+961734843+969590417+979306139
1630+983361868+984090684+984107420+982980579+984366780+988260082+989191316
1616+990737045+997625596+1002822872+1004436339+1005762771+1007431298+1009046359
1603+1010415970+1011281929+1012353637+1014040131+1016155294+1018306318
1591+1019698314+1020800958+1023226556+1026633738+1028308496+1027095081
1580+1024384187+1020770313+1020740392+1026777401+1028927845+1025405327
1568+1026024097+1030732210+1031846952+1025183060+1009328757+1002265247
1557+1018819387+1035188426+1044016528+1048079138+1050353250+1049693475
1545+1044029061+1034746716+1026379449+1033204392+1049151137+1056021431
1533+1057003667+1060751423+1062978806+1061081564+1060109398+1058352413
1522+1052712993+1050959269+1054204387+1058286559+1062418211+1063339013
1510+1057979239+1047945546+1047661409+1062331782+1071135397+1068598738
1499+1061633103+1060661516+1066005642+1067693585+1063803833+1063112036
1487+1068673576+1073071616+1073741823+1071379399+1066703162+1060542196
1476+1052574620+1044676954+1045472495+1054828591+1060131784+1056064319
1464+1049832138+1046689025+1040267613+1028120931+1021220426+1021974889
1452+1020871159+1015925492+1009437935+1005405825+1003290589+999117352+991558594
1439+978979331+963871523+957652672+957285438+953321573+948920562+946967463
1425+944903158+943644899+942960492+942958463+950670085+963603107+971698407
1412+974060469+975792532+978464957+980630688+983405626+987386951+989843121
1398+990800653+993887113+1001074508+1010300996+1015890862+1014727218+1011224913
1385+1010515005+1011469277+1014605435+1020295423+1024220384+1025846602
1373+1029368395+1034282258+1037719651+1040549142+1042185502+1039606461
1362+1035851895+1035764307+1036395465+1034626961+1032421602+1032046399
1350+1033323495+1033736732+1029989629+1022189115+1013503951+1007514829
1339+1007033709+1009914346+1009961002+1005786099+1001931411+1001013363
1327+1001884321+1003333840+1005342651+1008571541+1012820341+1016564184
1315+1018948343+1020777123+1022259678+1022488538+1022160788+1024153588
1304+1029124829+1032722040+1032305977+1030870439+1031420457+1033654505
1292+1035354764+1036339101+1039340798+1045615795+1052135156+1056469443
1281+1061418877+1068102186+1072584120+1073337859+1072305561+1070142511
1269+1066931153+1063210057+1059183960+1055852267+1054014576+1053232004
1258+1052314535+1050059187+1047018152+1043707614+1039987750+1036503918
1246+1033332116+1030521607+1028352688+1026075027+1023792584+1023230468
1234+1024449751+1024925293+1023283209+1021353873+1021053001+1021233321
1223+1020200807+1019057810+1018919509+1019241174+1019970788+1020706197
1211+1020241884+1019212775+1019733451+1021225352+1021087196+1019948836
1200+1018887487+1017233957+1016263385+1016030540+1015065256+1014019846
1188+1012817225+1010624834+1008069991+1005988806+1005028303+1005759366
1177+1007322048+1007212943+1004319989+1000738209+999146838+999375843+998313842
1163+994793860+992229453+992762881+993592978+992073040+989660555+988336441
1150+987389052+985642209+982881037+980359157+979454366+978089247+974946931
1136+971891913+968966141+965305394+961803813+959354235+957093019+954298883
1123+951214741+947356576+942907751+939960606+940744918+942491760+939532010
1109+933644966+929983133+929535627+930425494+929014444+924260182+919048054
1096+915480474+913490572+912492253+913126671+915534447+917054095+915886177
1082+914386090+914722171+915799676+917109735+919139917+920872487+922851232
1069+926183577+928374012+927520804+926002532+926698603+929150572+930960153
1055+931680856+931863132+931421858+931337964+932804147+934793034+935367032
1042+935256188+935621610+935564160+936173657+937914703+937309046+934036542
1028+932246812+933235061+932985771+929959805+929422972+932117132+930848947
1015+924611332+920654639+921292825+923212743+924575978+924679940+924335599
1001+925483884+927169436+928140805+929353061+931055783+932375478+933078648
988+934369944+937846313+942425761+945262496+946497137+948061196+950121588
974+951727304+952217118+951517135+950087249+948932154+947230156+944031331
961+942905650+945387032+947349549+947733011+948957293+949985316+948608243
947+946707234+946454828+946172213+944390016+942182628+940897491+939758262
934+936400850+932229932+930925306+931736278+931573344+929647196+926927173
920+924479189+923478768+924544898+925199747+922138644+917078655+914136075
907+913534910+913420951+913149274+913102329+913949596+913844186+911440467
893+909903214+910660213+912768058+916577032+920582772+921358679+918742256
880+917124586+919480491+924161871+929042771+933175003+935587198+936195681
866+936732006+940102747+947112720+953492837+955963932+957120186+959132764
853+963039541+971044645+982330367+992784325+1000627872+1007712247+1013444544
839+1015861956+1018484030+1024044120+1028449188+1029492859+1030393303
827+1033543444+1038356171+1039652682+1036120674+1035650420+1038094854
816+1037576496+1037972999+1041713292+1044413610+1045218134+1044487578
804+1042205787+1039997095+1037970680+1036929110+1037604316+1037240125
793+1033644725+1028608282+1023346528+1014874720+1004894566+1000624105
781+1000849053+998065929+992321099+987922914+984863477+980391251+973668386
768+969062133+969111252+968831824+965375160+962190462+960760576+956322545
754+948229780+945378483+950020742+953703151+952330425+949933299+949142033
741+948301358+946096650+943472258+942693670+944028361+943961347+940390724
727+935455634+931460689+928216875+925592482+924658930+925338555+926303984
714+927328385+929665815+931786121+931030861+929622491+930262343+932240944
700+935633347+940903070+944203103+943288097+944490066+949771742+950901046
687+946122876+943062063+945626542+950474913+952567327+951057097+947855881
673+944853315+942496396+941332753+944272435+946941962+946020653+947026000
660+951170911+950955598+947584857+948655986+950006615+946575742+940023273
646+933289831+934815782+945824177+953645411+956996519+963179654+965557509
633+959228612+944463550+925869882+924098697+947038316+971510335+975489559
619+966507362+955883806+945139046+940981530+943769942+941360138+939031691
606+944811803+944379801+935767012+939556135
##END=
