##TITLE=Sample description
##JCAMP-DX=4.24
##DATA TYPE=INFRARED SPECTRUM
##DATE=13/9/2023
##SAMPLING PROCEDURE=Instrument type and / or accessory
##ORIGIN=Default
##XUNITS=1/CM
##YUNITS=ABSORBANCE
##RESOLUTION=4
##FIRSTX=4397.6552
##LASTX=599.8556
##DELTAX=-1.9287962
##MAXY=1.8216738
##MINY=0.44857389
##XFACTOR=1
##YFACTOR=1.6965659e-009
##NPOINTS=1970
##FIRSTY=0.47293964
##XYDATA=(X++(Y..Y))
4398+278762908+278476015+278430730+277332136+275766261+276045477+277688239
4384+278514872+278581606+278523198+277671604+276810699+277612405+278744270
4371+278741020+278694821+278725246+278566956+278868920+278936603+277906605
4357+276890994+277146056+278035436+278673109+279615767+280896119+281151146
4344+280339497+279857813+279756701+279148856+277818774+276441772+275925552
4330+276074742+275777714+274489264+273330067+273375739+274212016+275410738
4317+276045863+275478350+274939558+275182095+275868673+276291247+275940448
4303+275863262+276565790+276687946+275756442+274628266+273967335+273694795
4290+273523278+273965421+274893763+275157450+275054143+275722486+276419024
4276+276067435+276155213+277224156+277301570+276446620+275826180+274956527
4263+273634595+272971943+273626603+274623874+275350749+276470124+277065058
4249+275700089+274381864+275217333+276886339+277738127+277643006+277484593
4236+278071218+278501803+277613055+276494769+276820799+277732014+277399116
4222+276364463+276420078+277154734+276689087+275192653+274433210+275738296
4209+277899210+277779987+275599522+274027676+273935295+274611648+275016762
4195+275124056+275056180+274793248+275264481+276029246+275883657+275513869
4182+275450402+275460362+275754562+275960404+275646161+275331461+275526359
4168+276164857+276568794+276423819+276241657+275908021+275270963+275041916
4155+275339506+275646969+275594288+275114219+275011562+275846996+276653902
4141+276711783+276110701+274661273+273321125+273510788+274721473+275754474
4128+275867619+275067704+274323878+274048562+273997953+274236257+274500366
4114+274348664+274362243+274727902+274328919+273174956+272546910+273260241
4101+274748577+275499711+275421014+275091629+274422653+274150604+274733102
4087+275390273+275922777+276256184+275515714+274296334+274237311+275177581
4074+276274787+276860288+276298379+275540166+275674407+275882515+275658650
4060+275850140+276277598+276047655+275261442+274510994+274259023+274409373
4047+274760452+275095933+275183940+275685615+276471740+276577910+276444214
4033+276523841+276294057+275967729+276192577+276625937+276628413+276360985
4020+276524562+277045314+277158300+277185475+277470031+277419106+277395251
4006+278218757+279344860+279725908+279104185+277996790+277215689+277189093
3993+277934869+279230662+280537206+281159455+280471192+279057037+278271685
3979+278372287+278998401+279746548+280010903+280351442+281730745+282555183
3966+281387061+279979371+279666182+279882265+280020951+279751958+279161469
3952+278773360+278862579+279302824+279495632+279091783+279132537+279966039
3939+280576923+280519639+279086619+276836170+276960469+278968837+278786025
3925+277215197+277541490+278460065+278694909+279338062+280831019+282486815
3912+283022041+281828273+278761292+274075438+270388596+270377845+273914004
3898+279242713+282541358+281065019+277900632+278431590+279512038+278236131
3885+278180902+278660584+278531314+279941797+279916976+277586741+275253994
3871+273356539+275071235+278348678+278260144+278568748+281492722+282234950
3858+278172874+269649899+264401100+272151722+281714479+285142746+282691760
3844+278560123+275800726+273588712+273058158+276116708+279557113+281546739
3831+283118129+283716752+282987383+280527351+274883943+271799255+274786029
3817+277693948+281818454+287342218+289305265+286157426+282130676+281315303
3804+279418551+277636137+280872335+284313232+287226298+291044799+293412310
3790+293901899+293536556+293087229+293123784+291997330+289933575+291370812
3777+295444867+296826946+294557982+292099021+292624692+295057039+298102643
3763+299572026+297234764+295501571+298111285+299775689+296240970+293372136
3750+300281000+308853688+316913721+335969849+359091829+373089717+375998303
3736+372451288+372842454+379285900+385061195+386110147+384848292+386015640
3723+391124893+399235061+408156755+415460175+419533791+421759156+428947692
3709+443658418+459826582+472967869+484759363+499880472+515185219+524006435
3696+526890358+525402636+518832081+512510264+512915412+515130272+513808551
3682+508247354+499518186+488783126+479154074+477281159+476705794+471138729
3669+468645549+469754859+467592206+462365013+456431691+448920919+439525252
3655+431845528+423840969+410929239+400353259+400759216+403977636+403688214
3642+400529273+396805471+393213662+388318121+381676352+373855606+365571637
3628+363285529+365967686+365442420+360330953+353449721+349829244+348931046
3615+346799977+344718937+343185402+341079208+340860648+341921123+340381827
3601+337003799+334868831+333307261+331331337+329855420+327714725+323293542
3588+320194643+322124648+324930788+324971296+322911195+320602004+319117268
3574+318475081+317111869+312940830+307205761+305677777+308879405+311265395
3561+311098340+310222135+309386683+307887789+306429262+305773900+304474383
3547+302767961+303053694+304620113+304755970+303509644+302651251+302422292
3534+301788501+300088298+297903477+296657993+296446320+296459143+296626023
3520+296780746+296668217+296554212+296315170+295444832+294146545+293107026
3507+292402970+291928260+292371087+293707037+294362961+293634190+292533593
3493+291794686+291145331+290591572+290476250+290610368+290767059+291024001
3480+291156047+290885403+290277365+289808679+289978633+290397623+290388032
3466+289896387+289377480+289449642+290037427+290324126+289953232+289594353
3453+289744334+289613272+288855867+288499395+288648638+288726738+289088568
3439+289587731+289745353+289958906+290443735+290781481+290601550+290133620
3426+289700488+289257977+289239128+290125662+291237414+291607658+291571647
3412+291954451+292269203+291827324+291425337+291970524+292864506+293146287
3399+293061406+293139488+293146129+293129247+293414488+293832074+294437600
3385+295174452+295433379+295309115+295538812+296007796+296058562+295837403
3372+295695011+295638412+295835611+296334388+296895841+297234694+297279874
3358+297243196+297292276+297287252+297073049+296911299+296987782+297046243
3345+296602238+295632264+294888298+294541294+294304079+294348100+294229335
3331+293429999+292698944+292531028+292235669+291418381+290270549+288979095
3318+288126077+287877813+287097730+285385828+283886916+283006706+282137720
3304+280958620+279528937+278272651+277942528+278679345+279421976+279540724
3291+279724590+280449111+281297350+281722454+282223690+283335986+284189372
3277+284331975+284259339+284609891+285908547+287315289+287790807+287920622
3264+288404397+288692185+288155501+287541033+287962869+289103868+290087825
3250+290749862+290940087+290690945+290762123+291396248+292007641+292264302
3237+292320620+292480227+292825948+293230622+293666494+294138780+294575706
3223+294824497+295143817+296109821+297321471+298113464+298551496+298798653
3210+299445338+300824887+301989460+302200149+302010434+302307936+303299868
3196+304775644+306368729+307472944+308020168+308549194+309037852+309319615
3183+309819200+310516334+311111198+311673986+312133168+312399719+312665461
3169+313372503+314519475+315573486+316408059+316891518+316863868+317136145
3156+318600715+320356990+320896239+320473138+319985745+320037249+320987830
3142+321811863+321750170+321698666+321795807+321501010+321298858+321411176
3129+321356791+321275178+321455795+321394348+320788488+320331168+320227913
3115+319750884+318865860+318275915+318105944+317874491+317317570+316378091
3102+315207405+314250325+313523222+312980705+312906435+313310108+314024071
3088+314814131+315587890+316120921+315891295+315508807+315855776+316325673
3075+316492728+316682163+316629886+316583405+317343006+318101517+317699425
3061+316836465+316594613+316995580+317752651+318529255+318658367+318004762
3047+317164743+316516794+316092393+315775673+315415460+314985297+314365875
3034+313371941+312268464+311500783+310974217+310437989+309858759+309268462
3020+308665026+308071673+307780740+307471785+306476375+305523300+305437893
3007+305647318+305329544+304471291+303973218+304510183+305544028+306511051
2993+308007450+310552661+313480993+315977615+317665593+318547630+319077042
2980+319484403+319839101+320110114+319695374+318538495+317412111+316502425
2966+315572748+314682876+313893413+313223577+312802443+312809610+313186090
2953+313412238+313169999+312913743+313149025+313590501+313631008+313120568
2939+312393395+311888927+311621604+311305903+310837692+310293945+309838382
2926+309551525+309249245+308672369+308027160+307645866+307288112+306786946
2912+306387279+306395816+306862025+307298792+307510220+307934726+308660353
2899+309230800+309432109+309627095+309983128+310196312+310401029+310979767
2885+311732622+312277282+312433270+312423293+312798789+313301079+313241986
2872+313006457+313146285+313204535+312752379+312005040+311274319+311000390
2858+311424124+311959578+311962073+311485606+310657637+309571586+308979743
2845+309365709+309993387+310306804+310623278+311083760+311509074+311984382
2831+312746652+313731698+314481778+314697386+314668929+314772921+315064732
2818+315378360+315419781+315200062+315227325+315812844+316662875+317381827
2804+317931194+318526410+319239143+319883755+320362611+320744080+321066667
2791+321293237+321453757+321664131+321802834+321765102+321772023+321794507
2777+321673792+321624817+321731374+321763029+321534843+321151828+321098743
2764+321442409+321550231+321207302+320825061+320704697+320910784+321422735
2750+322064817+322558394+322812086+323055835+323485366+323810693+323733612
2737+323525241+323403999+323308157+323395180+323635101+323604887+323290661
2723+323098170+323190252+323498646+323814030+323790386+323581629+323801137
2710+324407665+324829501+324908514+324773500+324532455+324345972+324306483
2696+324378048+324465633+324432012+324276445+324188649+324294397+324519421
2683+324660057+324606234+324372708+323926560+323394162+322981214+322528848
2669+322020656+321845625+321952955+321952850+321677024+321169886+320837181
2656+320889002+320728481+320019507+319497016+319680724+320060542+320138852
2642+319996249+319874093+319865907+319963927+320029028+319804250+319434375
2629+319307722+319445020+319565700+319512404+319565278+319906521+320238769
2615+320418893+320648379+321020257+321390694+321625520+321682364+321616140
2602+321672035+322060109+322691546+323339250+323966225+324672283+325336815
2588+325793537+326184738+326627092+327063473+327503262+327797637+327743463
2575+327624434+327764437+327950288+328068404+328308183+328567777+328731600
2561+328894159+328954341+328836014+328758582+328872728+329079974+329243973
2548+329347895+329443104+329450201+329335037+329375685+329653864+329909348
2534+330088032+330320188+330641123+330853605+330790050+330709070+330822688
2521+330984509+331180724+331592512+332099088+332412189+332653128+332992333
2507+333269493+333461949+333698953+333981243+334307870+334716496+335198023
2494+335626042+335835678+335986502+336392458+337023157+337652908+338129375
2480+338511512+338861467+338896213+338580969+338385527+338442933+338459164
2467+338370947+338321269+338253288+338046322+337887488+338029880+338370420
2453+338710713+339008532+339229410+339346542+339414734+339542019+339749371
2440+339970460+340212769+340575723+341076186+341390166+341233756+340947144
2426+340994679+341290846+341520823+341588313+341530063+341506384+341657067
2413+341881845+342162624+342479801+342612461+342625460+342811803+343197277
2399+343589883+343857312+343990745+344103802+344389289+344711840+344609780
2386+343900244+342631187+340612929+337615070+333892252+329970725+325814652
2372+321056127+316269988+312335813+308904735+305637551+303362193+303048319
2359+304866111+308272947+312924845+319127879+325840545+329588026+328171201
2345+323505602+320034544+319315346+320349717+322120151+323519304+324400954
2332+325708938+328042089+330820615+333263415+335436678+337864019+340820738
2318+344104364+347030376+349186916+351099531+353363682+355832163+358125614
2305+360092685+361736852+363192076+364627942+366067252+367442760+368803654
2291+370240082+371704582+373044150+374176506+375220469+376172877+376937852
2278+377746357+378719423+379674184+380559946+381432743+382316080+383211046
2264+384149541+385076021+385794516+386297719+386800079+387462714+388242270
2251+388945974+389531668+390179547+390963775+391763778+392398518+392757115
2237+393110197+393723576+394386843+394994460+395533533+395906606+396299668
2224+396736049+397066401+397422012+397753101+397856672+397951248+398410009
2210+399196626+399931704+400490241+401061777+401664791+402273076+402923168
2197+403548808+404119501+404645892+405214512+405908274+406624661+407338624
2183+408177238+409145349+410160539+411089513+411719193+412222397+412907481
2170+413633354+414395695+415376700+416563407+417875150+419100607+420094366
2156+421011079+422096990+423339347+424559780+425770271+427080820+428500174
2143+429916823+431286254+432575898+433756176+435065003+436622357+438150236
2129+439412582+440683747+442354896+444227671+445970385+447575028+449197518
2116+450950947+452649640+454141437+455680277+457630624+459936266+462164933
2102+464227985+466424611+468865725+471401239+473923825+476483053+479188469
2089+482165985+485339612+488392312+491360659+494659076+498291920+501865390
2075+505467106+509483035+513649436+517633465+521742073+526355465+531530416
2062+536812275+541928274+547246390+552795642+558462589+564370264+570345955
2048+576264942+582265437+588341748+594531010+601030106+607495544+613333797
2035+618901038+625156103+632162301+638939085+645081234+651077091+656984977
2021+662473029+667752323+673444284+679776992+686107522+691529454+696315910
2008+701168906+705549229+709306161+713370643+717695527+721573315+724952080
1994+727686304+730278101+734117734+738235547+740738740+742179033+743801945
1981+746028152+748554603+750840465+752606226+753594434+754161683+755039505
1967+756313480+757829449+759556494+761261335+762328380+762289523+761933631
1954+762421621+763308366+763805140+764383562+764749432+764091259+764293763
1940+766603657+768673314+769722652+770934303+772252124+773379105+775085632
1927+777481389+779093340+779898156+781271486+783765052+788302910+793632865
1913+796927594+799162374+802758469+807674774+813075697+818614059+823896234
1900+828851887+833454389+837985290+843062291+847512107+850274648+853706604
1886+859267661+865043167+870304333+875708277+880574203+884174514+886945978
1873+888778069+888666277+887512666+889099391+893914866+898271931+900166699
1859+900700854+901096797+901292275+900899633+899579423+897156614+893840455
1846+889678937+886232155+886044477+887149044+886385403+883383048+879398739
1832+874472526+869073992+866211675+865781301+865543032+865113151+863933471
1819+861565258+858744186+856294817+853446061+850433868+849060046+848186862
1805+846140814+842727197+838573760+836140832+835725074+834029157+829585455
1792+826905335+829480057+832186315+832541927+832475807+831995124+831857124
1778+833235232+833016567+828587831+823312472+823351328+827445813+831704367
1765+833847873+833105593+832562655+833692658+835342200+837185814+836523145
1751+832286443+829542452+832290308+837322058+840674053+841399891+841137521
1738+841104285+838819196+835859421+839815765+847803777+854443333+857895173
1724+859105700+859346779+856211342+849477982+848156437+856271348+865496587
1711+871154681+872450157+870782487+869447872+867644730+863436416+863060849
1697+868587758+877683990+888996523+896505257+899730634+899627204+894844332
1684+893597057+903104621+913081977+918422683+919633280+920425940+921831663
1670+923939895+931848438+940989640+944461576+947445101+954110092+958441722
1657+956036900+946017034+940056660+949921874+956635840+958707113+967327651
1643+977869165+981957959+979578082+972616220+969337583+978051082+986519074
1630+988366272+988831216+990016658+990378804+992490128+995874655+996741374
1616+996909097+1000926853+1006219989+1009293875+1010300703+1011706917
1605+1014404744+1017254483+1019288657+1020032904+1019644268+1019904249
1593+1022493867+1026087573+1028475320+1029945968+1031670483+1033232967
1582+1033941239+1032801891+1028332401+1025483224+1028091743+1027493366
1570+1023965217+1026878758+1033134666+1035317239+1030633652+1016891143
1558+1009581821+1023147192+1035995859+1043074852+1047615099+1050490626
1547+1050254184+1045404771+1038197263+1031784804+1034237476+1043688407
1535+1047814230+1049618847+1056933580+1063372599+1062742672+1057562663
1524+1051642200+1047507101+1046949267+1048634153+1053649883+1059545964
1512+1059820630+1052684511+1040098354+1037631278+1054328432+1067134800
1501+1067957042+1061824519+1057538351+1059356740+1060534453+1056368227
1489+1053691972+1058103774+1063343790+1065327232+1065407474+1065043783
1477+1062559210+1056410386+1049289655+1047702789+1050564966+1049176248
1466+1043303424+1040902889+1039924659+1029832630+1012901282+1010009173
1454+1020108720+1023567025+1018220909+1010337802+1005590836+1002275099
1443+995875779+986258461+974490330+963671760+959821868+956768992+947766704
1429+939889429+938859836+940225859+941671211+943083327+944340650+950289430
1416+960558386+967882394+971138827+974308133+976684216+976509115+978872340
1402+984755843+987687933+987294730+989238051+995736865+1003376011+1006869871
1389+1005885317+1005655621+1008492853+1010426196+1011233612+1014005779
1377+1017397543+1020139426+1024671592+1029126607+1030521368+1031003527
1366+1030245648+1026471361+1024232857+1026682507+1028889814+1026526449
1354+1023114518+1022926630+1023535968+1022190392+1018638283+1014194721
1342+1010483462+1006058169+1001141513+998657221+997915785+997518998+997624044
1329+997433274+996927366+998174219+1001536051+1004423663+1005935627+1008542390
1315+1011639252+1011967319+1011914410+1014413667+1017045796+1020113006
1304+1025200336+1028573551+1028850114+1029158086+1029962269+1030237287
1292+1030943802+1034416020+1040771704+1046876332+1051455716+1054552859
1281+1056226994+1059569995+1065365596+1070386315+1073215819+1073741823
1269+1072168167+1069270225+1065618129+1061686308+1058656830+1058280701
1258+1058475265+1055763456+1051681478+1049602405+1048553910+1044955145
1246+1040855601+1040428811+1041685220+1041184371+1038363791+1033689830
1234+1028792075+1026364207+1027137965+1027769297+1025823447+1023824055
1223+1023636799+1024087760+1024344087+1023431835+1021158199+1020086657
1211+1021493574+1023240504+1023804029+1024002458+1024537175+1025434319
1200+1025979014+1024628730+1021789320+1019842345+1018807763+1017105943
1188+1016530051+1018535345+1019915632+1018555371+1016246110+1014887043
1177+1014260208+1013113413+1010933299+1009064319+1009613018+1010783002
1165+1008857458+1004051188+998877854+996352317+997074571+997380224+996294278
1151+995643483+993677045+990374728+988967249+988449325+986813274+984859484
1138+982006723+977996415+974892176+972308600+968670697+965311185+962798998
1124+960164199+958056669+956867644+955634352+953508342+949283094+943426642
1111+939008868+936794184+935958030+935458796+932907683+930140294+930085206
1097+930358327+928617721+925521702+922450698+920183455+918555344+916967494
1084+916115109+918075152+921456799+922865894+923542968+924473629+921862579
1070+916047162+914223925+919365851+926394605+930358256+930319892+928593268
1057+929416986+932868967+935111828+934952326+933825977+932342682+931864739
1043+934811866+938579900+939079695+937836566+936632363+936529425+939069507
1030+941744778+941168745+938438878+934873418+930931057+929920646+932934454
1016+935650690+934596785+932063940+931871766+931957348+929184900+926801861
1003+928395051+931876544+933802017+934774836+935536228+934743779+934124323
989+936191801+939621298+942857496+946491674+950214668+952458512+953775912
976+955028527+954063717+951340665+951140902+953269020+954676569+956408251
962+959016560+958752996+954931842+951942696+951520052+951754948+951854795
949+951596571+950672515+950021439+949682762+949131392+948624219+947284896
935+944509567+942433797+943297495+945228168+944100695+940078442+937349629
922+936900846+935781664+933855418+932569568+931287793+930241054+929353044
908+927961305+926265879+923795992+921722471+921837003+922615891+921806508
895+919033357+915495793+913614305+914181625+916060653+919010029+921186770
881+920301571+918919176+919867684+921898204+922547242+921644055+922248194
868+926082417+931066177+935610850+940241668+945353451+950395882+954898536
854+959750198+965127652+969889023+974990828+982483471+991843198+1000790890
841+1007664920+1010930699+1011135522+1013414990+1019692540+1024252391
829+1025233010+1027166212+1028655550+1028558233+1031643150+1035251190
818+1032846298+1025688257+1019601828+1019842556+1026828588+1033317215
806+1032949588+1029424461+1027117940+1025844035+1023637852+1018071174
795+1012158792+1009473121+1008878608+1008601272+1006494374+1002479992
783+1000007505+998837240+994404008+987852424+983211769+979280228+975568617
770+971011015+963641617+958068193+957483377+959120763+959413136+956742080
756+956176306+961152126+963092144+956673642+949895735+948825458+951049417
743+952011767+949731736+946384450+944959826+944066827+941547333+938666958
729+935817008+932488622+930427467+928822895+923516478+916780449+913254478
716+910870666+908521986+908522408+911465178+917152432+924663204+931796441
702+936667707+937556278+936780131+939604153+943503723+944082426+942827141
689+939776935+935487394+933537117+936889393+944118542+950316693+953365142
675+952451345+948741702+941603194+928223534+922271030+931919546+939433620
662+939118833+937278029+937396144+937162513+935429707+933907555+933079270
648+931843238+934210116+942276193+949890816+950534585+942237196+922337009
635+886631893+858617287+868692312+899638446+910555878+904117281+901591533
621+902785477+901077826+898650800+896456282+893110331+897903391+910820988
608+914201721+905751014+900866960+900320720+896159413
##END=
