##TITLE=Sample description
##JCAMP-DX=4.24
##DATA TYPE=INFRARED SPECTRUM
##DATE=13/9/2023
##SAMPLING PROCEDURE=Instrument type and / or accessory
##ORIGIN=Default
##XUNITS=1/CM
##YUNITS=ABSORBANCE
##RESOLUTION=4
##FIRSTX=4397.6552
##LASTX=599.8556
##DELTAX=-1.9287962
##MAXY=1.803467
##MINY=0.44728383
##XFACTOR=1
##YFACTOR=1.6796096e-009
##NPOINTS=1970
##FIRSTY=0.45787933
##XYDATA=(X++(Y..Y))
4398+272610578+271899876+271400891+270166007+269203275+269836153+270832634
4384+271202074+270526291+269193125+269649189+271815505+273108215+273129756
4371+272460822+271460580+270630180+269919477+269059356+268828281+270348376
4357+271985649+271216162+269249390+268974755+270356005+271233462+270745655
4344+269293501+268110943+268516881+269774938+270394917+270283292+269999395
4330+269270292+268176914+267936630+268301066+268047616+267589370+268331762
4317+270356520+271411909+269969159+268077248+268189175+269611360+270364806
4303+269939670+268950925+268215116+268289905+269187394+270314042+270698191
4290+270008994+269221799+269384685+270223904+271096375+271515177+270856694
4276+269789310+269376647+269309736+269320152+269376381+269464301+270051259
4263+270432463+269761683+269268553+269408870+268949648+267747661+266609941
4249+266504118+267454802+267504218+266354930+266302267+267663946+268844020
4236+269285853+269251857+269149192+269485646+270159619+270496073+270472812
4222+270535021+270612507+270593628+270495541+269969017+269169828+269047557
4209+269275260+268776985+268238857+268478182+268859421+268943970+269243340
4195+269969088+270011496+269104744+269064768+270033107+270217747+269849922
4182+269868589+269622166+268949790+268461628+268181722+267804688+267312197
4168+267170603+267473451+267878111+268566918+269508624+269730845+268859191
4155+267845144+267230204+266963997+267389258+268298103+268781190+268603257
4141+268558756+269366604+270266312+269957289+268912191+268360631+267846333
4128+266760229+266411283+267591925+268958732+269353847+268620468+267305064
4114+266903491+267658818+268059096+267902846+268255749+269128414+269314758
4101+268405132+267867270+267972685+267279744+266620339+267350204+267972401
4087+267408296+266942775+267247060+267876071+268535565+268624230+268468778
4074+269080489+269141119+267742675+266895808+267227276+267517970+267852099
4060+268530526+268627477+267756444+266910659+266992564+268100865+269356633
4047+269624383+269222988+269149778+269179924+268527793+267781551+268019457
4033+268890721+269429843+269243198+268999472+269311599+269780155+270474337
4020+271297268+271313397+270569585+270067974+270179208+270493696+270993604
4006+271586223+271449082+270552640+269707956+269183952+269006161+269634480
3993+271107678+272320311+272663348+272839045+273011264+272781822+272050608
3979+270872539+269968361+269927391+270436455+270779829+270430156+270303431
3966+271096889+271714260+271862331+271999524+271830481+271807485+272886367
3952+274201274+273744075+271880607+270450330+269689698+270071948+272055399
3939+274043179+274491808+273926231+273625175+273610732+273168650+272114946
3925+271568301+272635898+274139332+274825317+275217113+276173866+277063530
3912+277184701+276859461+275513840+272741508+270633373+270644924+271883321
3898+273646290+274460154+273334890+272389812+273712846+274798932+274277324
3885+273906713+273569673+273343744+274671604+275262963+274223578+273368425
3871+272713527+272827671+273295836+273101420+274389250+276862974+277456409
3858+275328934+270950469+268835148+274121446+279717920+281558304+280217278
3844+277533753+275053127+273239607+273134103+275365024+277666547+278441889
3831+278351272+278293357+278167236+276833502+273218439+271320015+273962481
3817+276415729+278441037+281109213+281850878+279298763+276106440+275748037
3804+275814736+275648194+277874147+280457065+282241628+283760622+284505818
3790+284594039+284539992+284492616+284940660+285244785+284514920+284661731
3777+286544682+287989845+287825326+287088913+287645140+289372852+291548910
3763+293285884+293337216+293198106+294819499+296321601+295683949+295840324
3750+302194822+311343068+323853762+343961698+361646994+371350437+374829709
3736+374434736+374892734+377729120+379984402+379697559+378797675+380545348
3723+385093779+391432822+399167968+407226295+413780852+418707434+425823931
3709+437051869+449735989+462852166+477408839+492401827+504531104+513870130
3696+520732893+522281342+517537306+510173037+505582200+504125450+501966267
3682+497279933+491312725+484676795+475798820+469564393+467555604+463763264
3669+459782736+457473193+453850269+448942495+443648302+436647954+427628278
3655+420559724+415328698+407545999+398741766+395329743+395338615+393929737
3642+390412104+386394917+382469961+378371296+374078693+368735704+361627547
3628+358011649+358924948+358652867+355932383+351640241+347816460+345155487
3615+341943789+338506108+335638458+333553088+333278666+333446662+331879831
3601+329228299+326956621+325139605+323691443+322640596+321014927+317936980
3588+315467745+315689789+316358261+316114074+315373633+313755133+311400805
3574+309721480+308691287+306668268+303471403+301842044+302410265+302602499
3561+301681109+300402470+299316703+298587690+298191901+297926173+297276100
3547+296190547+295134359+294381800+293874989+293513729+293324796+293138931
3534+292581800+291424030+290120834+289587159+289619825+289240236+288546391
3520+287988053+287477427+287125181+286659855+285945374+285787296+285922573
3507+285151827+283748184+283316996+284155985+284602183+283988467+283315417
3493+283077653+282717192+281950846+281397174+281455072+281775450+282176065
3480+282355577+281951041+281490328+281451949+281603071+281836186+282004928
3466+281436671+280221536+279710397+280155637+280550467+280748947+281039534
3453+281270875+281311277+281381755+281611428+281582808+281255048+281208968
3439+281547782+282050192+282547048+282687507+282487448+282303588+282058993
3426+281505481+281019679+281233206+281886773+282256923+282439451+282928465
3412+283521846+283671602+283473264+283441645+283942849+284770818+285056189
3399+284796671+284923413+285150531+284829425+284670194+285143789+285538336
3385+285663659+286379240+287555623+288048470+287833790+287599894+287589389
3372+287741062+288014118+288397469+288664315+288788786+288749697+288455703
3358+288419045+288841360+289242046+289428460+289479828+289296608+288840438
3345+288400006+288101275+287852350+287601295+287411261+287487169+287370398
3331+286447642+285488299+285485637+285685483+284838421+283565247+282972025
3318+282312389+280724709+279021200+277834011+276966224+276595277+276270427
3304+274974363+272980497+271359477+270816558+271209526+271869322+272412311
3291+272465950+272132175+272355000+273482215+274959600+276175658+276813718
3277+277182945+277714046+278196637+278459348+278730737+279097089+279715471
3264+280744387+281859874+282665327+282743576+282080587+281730026+282084455
3250+282214657+281800965+281521433+281851783+282558706+283366856+284199031
3237+284858152+285252078+285256816+285061742+285538318+286670306+287181056
3223+286830283+286869372+287780453+288670631+289201112+289892012+290684175
3210+291591636+293128995+294742083+295399076+295435202+295844937+296814252
3196+298219404+299716254+300310380+300246823+300778315+301771708+302598915
3183+303089206+303296309+303697279+304126532+303883232+303397199+303595360
3169+304608484+306102460+307661413+308935297+309705298+310108362+310876163
3156+311955825+312382417+312292067+312426492+312678771+312965720+313756552
3142+314669141+314965105+315164862+315305108+314728760+314270514+314789230
3129+315631980+315916055+315582440+315306811+315326719+315027811+314055390
3115+312782535+311837582+311612274+311807311+311538851+310452268+309229166
3102+308458100+308179987+308198014+307895451+307212996+307001031+307274212
3088+307331346+307229498+307242734+307261294+307524006+307969016+307917027
3075+307813156+308388439+309035371+309464766+310249707+311277523+311876121
3061+311921722+311774699+311596304+311471709+311682396+312101642+312004620
3047+311012114+309749834+308970677+308597849+308344612+308072887+307306505
3034+305838293+304258651+303080618+302335174+301942259+301607047+301037016
3020+300401512+300026518+299885208+299549925+298812537+297881530+297037414
3007+296570508+296523914+296636710+296736109+297020593+297637254+298488609
2993+299906394+302097197+304622466+307198305+309550219+311082698+311776509
2980+312249517+312431815+311971688+311231673+310317807+309082888+307929057
2966+307066718+306248028+305625654+305488921+305500703+305332245+305132914
2953+304857994+304410501+304206059+304418840+304679778+304838654+304841777
2939+304407413+303521475+302748067+302389753+302057806+301486852+300785661
2926+300345548+300293879+300008810+299346654+299030002+299230221+299338599
2912+299057327+298753167+298952569+299564156+300053524+300428304+300726610
2899+300730301+300753651+301155402+301802262+302536493+303224412+303492766
2885+303356779+303360647+303558702+303768182+304141472+304512952+304496699
2872+304205491+304044912+304231113+304534777+304487437+304185228+304050483
2858+303954668+303640996+303213659+302666482+301806166+300998761+301004333
2845+301592781+301893181+302018025+302596360+303500112+304172985+304554472
2831+304910764+305229829+305622992+306287774+306753614+306677707+306665748
2818+307131163+307592212+307724970+307898538+308304547+308714531+309237825
2804+310086005+310867894+311260312+311648790+312392992+313153057+313629721
2791+314120616+314540713+314499087+314163946+313888104+313821778+313813367
2777+313746155+313819365+314080267+314346989+314322644+313935231+313728447
2764+314017100+314179347+313759427+313351608+313502393+313934911+314406820
2750+315015000+315471436+315394038+315069650+314961024+315057939+315046370
2737+314927453+315114967+315590850+315814100+315703167+315715269+315926098
2723+316012048+315813107+315426580+315202904+315286335+315518882+315828189
2710+316040367+316119255+316252935+316318799+316163578+315988343+316020352
2696+316265214+316487151+316495526+316523809+316640172+316546201+316298749
2683+315993098+315573746+315143747+314745829+314524886+314462109+314192655
2669+313879338+313850735+313824298+313536177+313050747+312505806+312125809
2656+312062642+312115624+311950573+311714938+311774344+311938153+311892836
2642+311790490+311751419+311653049+311565111+311636973+311731475+311638641
2629+311410174+311231390+311212510+311373622+311552478+311602692+311667989
2615+311808837+311959197+312248808+312638812+312981867+313404697+313836576
2602+314130268+314460938+314855130+315247831+315723963+316225929+316671720
2588+317131776+317536081+317819695+318207748+318724016+319184178+319574395
2575+319820819+319862410+319888918+320109507+320415336+320553807+320502173
2561+320375235+320323530+320366470+320380913+320468389+320717580+320899771
2548+320906762+320924577+321118231+321455998+321740889+321888800+321938872
2534+321908637+321950193+322170675+322551736+323062042+323440442+323428519
2521+323258925+323374046+323786691+324160371+324322086+324423260+324670216
2507+324936831+325128746+325544727+326178067+326561826+326542379+326473675
2494+326767545+327368379+327797029+327932980+328232528+328997667+329875798
2480+330332234+330321801+330092022+329859829+329786228+329767669+329593639
2467+329385507+329402612+329589594+329693145+329654642+329703863+330012211
2453+330340893+330443948+330517087+330682245+330805066+331065400+331530389
2440+331869292+332116992+332370584+332483717+332528750+332568141+332565692
2426+332551072+332582407+332737344+333037282+333433213+333764947+333847384
2413+333721582+333772151+334141644+334320854+334149486+334072444+334309888
2399+334800180+335332701+335631042+335641084+335666174+335920795+336092127
2386+335848791+335041599+333540455+331568715+329389091+326965670+324350937
2372+321627082+318866852+316227597+313775325+311595133+309932239+309389107
2359+310459898+312969304+316554612+321188353+325960530+328478347+327501101
2345+324606623+322773993+322675516+323463757+324779020+326226436+327380728
2332+328247823+329440725+331204439+333170891+335232343+337566656+340245939
2318+342759037+344594257+346087488+347668194+349386910+351130042+352642116
2305+353896056+355237650+356798200+358233267+359431740+360714425+362086716
2291+363303856+364334120+365244615+366231976+367422962+368528459+369313542
2278+370023180+370994678+372123916+373010919+373524844+373882271+374378524
2264+375169144+376146532+377082933+377889948+378547809+379087250+379738298
2251+380547407+381252005+381703296+382082654+382777955+383775465+384576837
2237+384965776+385217806+385598229+386004345+386270073+386629168+387297392
2224+387963593+388349659+388615138+388897581+389168242+389539722+390180301
2210+390976457+391673709+392171240+392505068+392780094+393152568+393681717
2197+394233969+394804710+395469208+396093356+396777940+397769240+398806318
2183+399553572+400221689+401066498+401873619+402478569+403131604+403961863
2170+404886837+405908407+406901942+407814779+408842063+409902208+410841483
2156+411859611+413023769+414197508+415470256+416835094+418158802+419551001
2143+420896853+422040499+423296817+424784902+426271957+427603508+428801343
2129+430134314+431728505+433395552+435119485+436924683+438548258+439901918
2116+441286912+442991504+445041671+447166787+449191580+451281563+453471550
2102+455765584+458200752+460444040+462533491+465041158+468006256+470967592
2089+473702130+476479287+479634099+483162769+486824055+490294171+493559491
2075+497059522+501128733+505520239+509878281+514340122+519028620+523965919
2062+529304366+534751829+539979129+545366938+551354658+557807900+564110640
2048+569755305+575120757+580917947+587205569+593749125+600531333+607398462
2035+614025839+620555271+627155678+633599586+639927238+646258155+652410784
2021+658171706+663506568+668628649+674033421+679872130+685563497+690728446
2008+695187768+699026844+703201985+707932713+712094439+715466646+719074488
1994+723031950+726747389+730201429+733269937+735767526+737835933+739368696
1981+740668593+742422512+744091475+745070425+745787551+746517664+747714222
1967+749581416+751396942+752733887+753738032+754208167+753748750+753377908
1954+754269063+755456039+755791109+755991825+756878366+757989470+759309097
1940+761038673+762641701+763853589+764632604+765794526+768083947+770611417
1927+772262778+773001764+774221459+777045814+780783539+784577689+787865081
1913+790591918+794033183+799146889+805148272+810829986+815405635+819589221
1900+824945305+830706936+835498560+839981303+844831765+849924321+855204958
1886+860621512+865907757+870388371+873839785+876776990+879597655+882588516
1873+884922438+885014918+884200700+886006643+890074471+893747112+896038166
1859+896906751+896455495+895584781+894990584+894253940+892994074+890623387
1846+886440794+882671698+881761380+881295362+879792266+878017906+875626140
1832+871774856+867085151+863343877+860565726+858393767+857118641+855344281
1819+852514106+850017155+848358270+846245504+842979120+840231843+839396687
1805+839199094+837797137+835287482+833281887+832296479+830669035+827255167
1792+824548416+825182785+827052464+827849435+827064671+825311107+824326975
1778+825165041+825633614+823508002+821062082+822386038+825533824+827429409
1765+828136385+828362793+828943790+829662334+830033602+831124407+832330688
1751+831835287+830905735+832049701+834413219+836242443+836964536+837768321
1738+839053384+838333490+837005417+840121691+844744608+848311143+851258214
1724+853148617+853541531+852378403+850720369+852982750+859282154+864565702
1711+867845855+869258955+869525038+871010674+872592552+871949595+872829393
1697+877748488+884863672+892480716+897351050+899014265+898705597+896579984
1684+897655885+906235343+915055474+920013604+921116972+922352352+925498790
1670+928435072+933106891+939209625+943444100+946663286+950879805+954671896
1657+955288877+950669579+948134799+957183397+964067985+965548653+970219478
1643+977601597+981294112+980380884+975795583+972159848+976754873+983206162
1630+985212892+985280247+986773549+989172909+991980160+992960530+991492708
1616+993762824+1001465605+1006865693+1007709721+1007289836+1008657655
1605+1010220156+1010592701+1011922477+1015006954+1018296263+1020071972
1593+1020651619+1022050312+1024368194+1026800274+1028686348+1029299709
1582+1029884112+1031195932+1030722675+1029126389+1031043692+1033159155
1570+1032579507+1032753039+1034174160+1034623499+1033643768+1029204603
1558+1025355306+1031029284+1039520875+1047646238+1054100934+1056927915
1547+1056237051+1053879565+1050361576+1044655021+1045634894+1054749143
1535+1059897556+1060436677+1062738732+1065608156+1065841804+1065371386
1524+1064236931+1060983109+1059270142+1060874589+1065358752+1070473310
1512+1071579730+1067080236+1057894019+1054735303+1065000970+1072523476
1501+1071896914+1067338796+1065301476+1069413733+1073741823+1071600170
1489+1067020618+1068415478+1072608433+1072819298+1068938914+1066428407
1477+1065846843+1062001379+1053964024+1049666027+1051892636+1053377279
1466+1051278353+1048733140+1046428033+1040292154+1028564485+1020760494
1454+1022358057+1023841706+1021649023+1016418351+1009534047+1004272572
1443+999727300+991444445+979389301+967256084+960461704+957432091+951681319
1429+943940637+940307741+941242048+941960806+939690193+938670575+944972392
1416+955402436+964203546+969108303+971315252+973762734+976787805+980988070
1402+987584218+994405285+998192692+999288040+1001327276+1005988236+1010055070
1389+1010375732+1008709040+1008480148+1010330025+1014027223+1017749689
1377+1020120518+1024134546+1031425534+1036262582+1036107858+1034941251
1366+1032451895+1027793561+1025782359+1027266860+1028989622+1029984257
1354+1029909379+1029396873+1028299183+1025116761+1021433757+1018652625
1342+1014090107+1007162366+1001989184+1000791207+1000725697+999299254+997808081
1329+997767981+999367531+1002068959+1003944812+1004830502+1006475263+1009276906
1315+1013401584+1018189233+1020709819+1021313527+1023382005+1026144471
1304+1027934658+1029933084+1032138543+1033536100+1033697141+1033185132
1292+1033874790+1036076487+1039072742+1043795024+1050205504+1056457639
1281+1061278788+1064109177+1065807736+1068071181+1069809912+1069058009
1269+1067658891+1067395292+1066543954+1064342683+1061760208+1058908172
1258+1056521303+1055445331+1053987659+1050503667+1046109571+1042214354
1246+1039928552+1040081857+1041652307+1042369929+1040072062+1035674062
1234+1032703925+1032644378+1033790046+1033339785+1031244833+1028571157
1223+1024893121+1022034698+1021832421+1022507813+1022358483+1022507245
1211+1024348463+1026103589+1025494132+1023754266+1022788162+1022473320
1200+1023148215+1025601871+1027419810+1025358287+1020451685+1016912617
1188+1016842139+1017388997+1016020965+1014503604+1013785201+1012376785
1177+1010434925+1009738240+1009952299+1009480461+1008894000+1008225208
1165+1005637623+1001894930+1000071881+1000875666+1001005336+997902477+994176676
1151+992726811+992523611+991149263+987188252+981933165+979351258+980225592
1138+979679018+976362597+974581281+973607442+970189811+966388919+963602464
1124+960988689+958909778+956473227+952830891+949367056+946773581+943961788
1111+941307913+941163906+942556991+941045307+935676094+930573673+928603636
1097+928451964+927927676+925608729+922267538+920859619+921730404+922606725
1084+922293302+921278084+920238451+918200847+915199197+914845602+918817472
1070+923439609+925191825+925586017+927646688+930796958+933228967+934903750
1057+935416824+933910463+931161767+929532833+929631274+929764706+929880820
1043+929963506+928184177+926195120+927335323+929787773+929703810+928117887
1030+928724363+930834078+931613093+932287421+933117324+932459179+932048379
1016+932695169+932763730+931945040+930939404+930544431+930575092+929739368
1003+928994989+930247829+930669843+928501788+928041448+930416748+933006675
989+935248828+937257616+939725964+942965023+946288825+950197599+953148360
976+952864462+951995168+951842785+949727819+947162023+947802567+950628555
962+952402490+952097371+950665817+948729777+946926246+946583511+947480415
949+948311241+947917475+945684691+944608932+946589970+947862825+947582760
935+948181855+947147261+942689713+939590474+940111426+939124882+934900201
922+932053418+931328840+931081494+931273977+930038809+927010686+924454756
908+922520207+920937052+920163218+919264043+917240634+914937940+913672963
895+913118227+911867374+909268008+906401990+905024377+905396070+906735428
881+909451619+914016196+918182109+920228301+921336567+921968878+923106668
868+925437397+926240117+926318828+929781811+935867937+942189131+948914949
854+956412118+964661615+974103482+983560821+989764197+993825140+999598979
841+1005550821+1009110117+1013115699+1019983821+1023965982+1021366971
829+1018959874+1020248556+1024318583+1030411594+1031767631+1027376586
818+1027115755+1029347120+1024298284+1016709772+1014142486+1014412331
806+1016195633+1020566166+1025153526+1026270734+1022766018+1017447622
795+1015468359+1016264337+1013895850+1007780482+1001924100+998669924+996210235
781+991888390+987035870+982622256+978004803+974312501+971895894+967944252
768+960243458+952785326+951388123+954025887+955141818+952346917+941036010
754+926940280+927067182+940034206+948357303+947215964+943807844+942756003
741+943086034+940908540+937044835+934978486+933123002+929800832+927036876
727+925214182+923174023+921346148+920234831+918152442+914870656+912612180
714+911930826+912373919+913729885+916212499+919641485+923986325+928827134
700+930996538+930539534+931792445+936246799+941275832+941631059+937082806
687+935288715+938824873+941808708+941364337+940094676+941066458+945459631
673+946914891+937581047+924578465+927294655+938624157+939533623+935354650
660+934946264+935434142+931659865+929586419+934935831+937483670+928402424
646+919180506+919581086+925296655+930412774+932385578+932341077+934503242
633+929635249+906682694+885924526+889049671+905448804+908960405+899357142
619+896067265+897183125+889316322+876997649+873036213+880595626+888961521
606+890636943+897161123+916727418+938152887
##END=
