##TITLE=Sample description
##JCAMP-DX=4.24
##DATA TYPE=INFRARED SPECTRUM
##DATE=13/9/2023
##SAMPLING PROCEDURE=Instrument type and / or accessory
##ORIGIN=Default
##XUNITS=1/CM
##YUNITS=ABSORBANCE
##RESOLUTION=4
##FIRSTX=4397.6552
##LASTX=599.8556
##DELTAX=-1.9287962
##MAXY=1.7483636
##MINY=0.3422437
##XFACTOR=1
##YFACTOR=1.6282905e-009
##NPOINTS=1970
##FIRSTY=0.36048394
##XYDATA=(X++(Y..Y))
4398+221387979+222390572+222613354+221779001+221499370+222490212+223213101
4384+222065605+220483399+220673053+222215981+223912818+225044445+224593756
4371+222515013+220581319+220100137+220186911+219934387+219502458+219620420
4357+220945325+221545603+220055625+219033650+219839908+221221167+222106475
4344+222058266+221497412+220792149+219623843+218428046+218120741+218328753
4330+218276791+218130735+217962825+217774562+218249557+218743129+217442036
4317+215559700+215714670+216950111+217110846+216700844+216322232+215359284
4303+214392400+214037106+214224746+215014312+215390399+214836866+214332092
4290+214416560+214887839+215044567+214614468+214405322+214605829+214522149
4276+214537743+214929350+214841643+214657279+214950197+214859617+214046715
4263+213177879+212651380+212873851+213942132+214395384+213558230+212739051
4249+212995107+214299733+215032487+213904428+212094700+211292816+211992863
4236+213302101+213974400+213619801+212894057+213081533+213990214+214050265
4222+213243257+212768994+213094949+214057971+214743760+214211257+213561653
4209+214096279+214775442+214149503+212513157+211205182+210909939+211723006
4195+213236503+214533332+215553404+215990914+215067646+213494445+212587046
4182+213073736+214348126+214673861+213636292+212656304+212503859+212538616
4168+212600279+212850735+212797382+212402206+212180796+212263726+212621016
4155+213006693+212641442+211820432+211823525+212361720+212432369+212306939
4141+212252653+211860149+211566535+211982631+212529154+212631814+212209037
4128+211327152+210464174+210185898+210738039+211999232+213568700+214438340
4114+213710272+212416646+212064024+212302968+212412693+212690658+213209726
4101+213447736+213696435+214422069+214691395+214450530+214923109+215414119
4087+214752472+213724146+213322472+213325510+213445265+214059032+214949081
4074+215311056+214940570+214436785+214482944+214711766+214657151+214723645
4060+215116057+215725798+216368392+216795250+217152028+217385553+217121004
4047+216865533+217218632+217727505+218058182+218409889+218738645+218751622
4033+218643049+218969224+219577445+219733879+219084294+218304978+218250527
4020+218876685+220000131+221382397+222233863+222023545+221378517+221452076
4006+222182139+222306452+221615191+221481726+222085848+222131276+221846044
3993+222235949+223093290+224206999+225567796+226338913+225915715+225084693
3979+224910688+225401845+225869372+226126948+226470144+226869969+227360064
3966+227729214+227506505+227649304+228869700+230011540+230356951+229985532
3952+229053222+228555312+229601795+230512562+229461339+229128246+231061628
3939+232368377+231666024+229927128+229040703+230667532+232823733+232645775
3925+231742182+232601976+233437244+232843153+233079643+235705898+238400312
3912+239254597+238220816+234166813+227645863+223490828+224000214+227652653
3898+233417404+237150540+235724915+233619742+235900603+237554337+236170534
3885+235974364+235614603+235444717+238980329+240214928+236870580+233763968
3871+232362740+233993540+236362475+236457138+238649011+243542876+245455394
3858+241495851+231494856+224943743+234166593+245753474+250562194+248650940
3844+243511048+238515217+234689725+234334613+238364750+242857051+246455662
3831+249841356+251761048+251581296+248468186+241374797+238066267+241926828
3817+245149334+250056084+256784900+258760269+254647843+250078231+249188915
3804+247144397+246224296+251167286+255693905+259407933+264091481+267041714
3790+267897755+267741925+267331539+268000141+268402163+267960442+270496061
3777+275499304+278339995+277371666+275233364+276438240+280181699+283852258
3763+285880687+285198431+286021180+290772301+293807642+291866316+291656419
3750+302811682+317076413+333428600+362712211+392805539+410964361+416945945
3736+415949649+420634917+432846198+443345762+447369127+448287526+452045975
3723+461775649+476376182+490954532+502368908+509415607+513464778+523137640
3709+542238399+563451524+582842420+602819774+624191402+643129192+657777093
3696+666415442+666313752+658957625+652365166+654446124+660528227+661823628
3682+657489958+651874504+643973685+633108906+631112799+633609818+629059222
3669+626572966+630224087+631613931+628226443+621388726+611942234+601669881
3655+594134423+585489631+570934087+560403298+564780273+572244166+572064616
3642+566438399+560594453+554551737+548497747+543527028+536561667+525874901
3628+521134688+523503880+522641743+516393158+508792615+505967573+505547633
3615+500978222+494435913+489599134+486693706+487103287+488332505+486225410
3601+482137363+478939859+476530182+474708392+473467167+470859014+465678288
3588+462244312+463932894+466128099+466358934+465396352+463128851+460062761
3574+457973969+456050525+450669273+443029563+440940844+444292275+446866238
3561+448010934+448352245+447146381+444613892+442341340+441225489+439628641
3547+437217426+436145027+436375825+436441789+435981107+434539283+432598414
3534+431578654+430558161+428241023+425827869+424482025+423932647+423547007
3520+423332314+423424597+422827815+420989479+418711033+417007406+416172211
3507+414714757+412210344+411236341+412022264+411832244+410376730+409044211
3493+408016288+406827958+405289386+403511669+401814191+400433169+399494198
3480+398798434+397779369+396439163+395223782+393937276+392147991+390336341
3466+389041672+387846277+386705609+385843472+384770633+383469449+382438231
3453+381451525+379818657+377511146+375332121+374072886+373860098+374086650
3439+373870969+372760171+370848331+368884876+367906956+367529808+366266291
3426+364299139+362942680+362382467+362040314+361341841+360169362+359005485
3412+358033715+356897658+355464693+354240124+353800856+353711392+352919611
3399+351721435+350973325+349946317+348318829+347095285+346388796+345776017
3385+345052836+344196813+343455036+342543701+341362656+340715944+340634716
3372+340259947+339382144+338043328+336266746+334722207+333966483+333915931
3358+333974610+333295758+332081036+331026207+329655911+327741764+326319927
3345+325932310+325808510+324965335+323388546+321794553+320556330+319528772
3331+318538736+317423728+316166982+314974626+313629698+312102436+310883138
3318+309694223+308006336+306184088+304778376+303550183+302047155+300258291
3304+298280341+296519719+295254152+294192404+293303747+292761746+292299855
3291+291527256+290559549+289733817+289238433+289359305+290038779+290174147
3277+289253075+288706205+289434090+290363288+290136754+288982010+288319374
3264+288186752+287618760+286731586+286089742+285660889+284931356+283783110
3250+282970849+283059416+283315418+282696087+281661611+281301100+281213063
3237+280539903+279977110+280216840+280657993+280897522+281053554+280993759
3223+280683507+280694581+281171571+281492035+281682714+281754388+281085474
3210+280292431+280798010+282326369+283167458+282767376+282297341+282409775
3196+282693799+283207687+284077200+284748145+284916384+284835431+284810045
3183+284802559+284663439+284815957+285491075+285824205+285328601+284974130
3169+285507932+286353010+286849566+287249409+287984451+288670020+288964366
3156+289290742+289775822+290201308+290427696+290263775+290015534+290202717
3142+290494080+290376558+290061017+289628082+289154130+289363350+290104376
3129+290050181+288996817+288115902+287868320+287847546+287697554+287174386
3115+286565158+286352479+286498957+286702869+286640749+286160867+285309145
3102+284425319+284071928+284232170+284253438+283865784+283717183+284486323
3088+285773707+286477542+286362656+286299383+286686250+287188662+287678007
3075+288140995+288482123+288645128+288471325+287988899+287837186+288375656
3061+288921739+288993413+288996707+289193792+289397997+289470787+289444815
3047+289432864+289637581+290145063+290743090+291293877+291692568+291664509
3034+291240579+290878421+291025759+291654845+292107181+291953822+291980636
3020+292941479+294219987+295109578+295535924+295650042+295853167+296426100
3007+297637198+299593020+301675754+303434034+305271235+307945534+312047052
2993+317667192+324312363+331211432+338016753+344821086+351208334+356518460
2980+360847445+364591289+367821043+370596850+373046281+375153742+376880394
2966+378090504+378732091+379314158+380066843+380476387+380724317+381637811
2953+382880427+383640690+384093026+384462560+384582920+384179452+383011512
2939+381391895+379514940+377240777+375034187+373384151+371980580+370545272
2926+369314883+368255369+366905132+364879302+362028197+358527452+354963452
2912+351794317+349040510+346720077+344680630+342747448+341024786+339365415
2899+337677967+336343179+335722127+335893295+336621565+337426120+338251798
2885+339419628+340696287+341717914+342465292+342918873+343045894+342903974
2872+342672773+342068157+340753099+339080586+337279551+335378437+333405831
2858+331142576+328370466+325087122+321483332+317853661+314575954+311722396
2845+309142503+306985350+305294406+303827563+302360225+300834428+299518912
2831+298722226+298207771+297506113+296744771+296202934+295693859+295105368
2818+294535491+294045213+293758536+293697752+293727952+293766626+293926867
2804+294411453+294913042+294861629+294448278+294335258+294652409+294974301
2791+295006972+294809118+294582712+294449852+294297499+294080281+293773508
2777+293157782+292307762+291566516+290969093+290329647+289769471+289565266
2764+289548245+289310784+288813130+288386765+288246273+288275374+288228519
2750+287953922+287553017+287222028+287020441+286828957+286509060+286168737
2737+285956498+285825998+285682669+285561486+285546953+285524752+285426887
2723+285383253+285433439+285494241+285400329+285222316+285279952+285478336
2710+285615205+285801399+285922326+285800136+285641634+285676428+285731354
2696+285471967+284994428+284636205+284499428+284503894+284507481+284453158
2683+284276280+283791273+283097376+282525376+281999334+281258582+280530441
2669+280205676+280189349+280094358+279769977+279220745+278517514+277964567
2656+277706113+277528869+277258920+277014065+276998160+277043166+276882852
2642+276660509+276639461+276811471+276932453+276884700+276827010+276864274
2629+276939225+277018695+277075160+277112058+277305409+277752291+278215463
2615+278491286+278762571+279243661+279800140+280302534+280809834+281195474
2602+281418915+281699333+282037185+282475446+283081709+283535564+283756113
2588+283915128+283954022+283949391+283991561+283982757+284009973+284161905
2575+284339919+284454933+284410055+284205484+284002250+283908503+283858060
2561+283681181+283359216+283033975+282866760+282984594+283203862+283230200
2548+283111561+283006301+282979927+282977035+282875509+282788900+282919143
2534+283244348+283637511+284049416+284467233+284756143+284791596+284760682
2521+284934449+285224092+285508334+285956992+286531188+286910990+287075112
2507+287362557+287926852+288490707+288817394+289072371+289431436+289765243
2494+290000764+290223418+290407855+290488644+290540130+290779677+291230055
2480+291537744+291479870+291350561+291459133+291587143+291526982+291479761
2467+291584910+291769018+291836592+291669909+291465869+291430746+291498100
2453+291494513+291451373+291597393+291942639+292292040+292549158+292738355
2440+293013977+293384756+293547065+293377013+293114734+293048496+293235606
2426+293413107+293430659+293525797+293812969+294145751+294403985+294457008
2413+294369082+294440390+294778516+295252523+295692559+296029276+296336544
2399+296670351+296971598+297256756+297625466+297937328+298035065+297986636
2386+297641682+296514814+294152358+290577523+286310731+281744998+276981632
2372+272091684+267130354+262221773+257747610+254376760+252496529+252230936
2359+253872938+257343740+262286218+268863412+275913113+279792123+278300022
2345+273534789+270242842+270020645+271293680+272886301+274425386+275664359
2332+276722519+278540960+281460737+284500489+286951476+289540649+293022524
2318+296708842+299656000+301949912+304265897+306948049+309771864+312392536
2305+314763521+316973588+318909222+320469758+321854659+323310869+324738636
2291+325953285+327149595+328498513+329784397+330739219+331358293+331958773
2278+332860187+333924716+334715874+335163635+335551618+335991142+336486526
2264+337070350+337615372+338011518+338432886+339056427+339801169+340456007
2251+340929685+341304270+341567941+341754923+342036676+342370739+342705681
2237+343175588+343729541+344122576+344347335+344533402+344722031+344982297
2224+345245601+345499608+345915009+346364893+346659202+346948899+347368803
2210+347817844+348228230+348631954+349050760+349440903+349762007+350245349
2197+351009235+351724803+352251998+352754007+353308437+353943655+354668374
2183+355479006+356386497+357320270+358181968+358951675+359716330+360588716
2170+361504444+362369508+363280953+364323409+365421908+366461618+367453632
2156+368532876+369690933+370772959+371859745+373051588+374185449+375364956
2143+376850011+378431705+379810494+381119951+382537322+383942614+385337326
2129+386838267+388304873+389688238+391194194+392862644+394494963+396021273
2116+397625808+399430065+401372031+403395372+405525968+407750970+409968211
2102+412247865+414689755+416985516+419003439+421268524+424180248+427494963
2089+430777137+434018494+437447053+441038398+444667007+448291955+452088365
2075+456309546+460935037+465793743+470634475+475298585+480160585+485629763
2062+491376412+497076389+502906681+508950715+515314645+521946346+528461384
2048+534816016+541274389+548063055+555149178+562122336+568819671+575653325
2035+582702330+589593930+596401009+603159804+609569455+615686443+621642843
2021+627462996+633350430+639320666+645193312+650856281+656125079+661071602
2008+665764594+669982297+674016680+678206051+682166564+685447163+688038185
1994+690013499+691721592+694244893+697765113+700914078+703068760+704913612
1981+706591762+707739130+708716647+710025226+711487403+712192501+711640122
1967+711182844+712154358+713547716+714113200+714256474+714456048+714470325
1954+714310358+714317752+714629632+714950225+714624142+713541127+713248721
1940+714844800+717256601+719443642+720795343+721444288+722565300+724791509
1927+727509772+729775955+732068714+734740781+737331217+741329726+747071763
1913+752196335+756299829+761146199+767592235+774440861+780422884+785838618
1900+791327856+796853627+802709727+809030865+814456336+818759624+823947451
1886+830282426+836348569+841390120+844953095+847629847+850556323+853680250
1873+855751837+855464849+854644589+857000236+860877434+862572130+862095817
1859+861527038+861251251+859943624+857392649+854046013+850032203+845621880
1846+840385953+836159830+835712289+835728616+833197481+829150140+824521647
1832+818285068+811592748+808227224+806610133+804443590+803268695+802382545
1819+800557753+798164475+795005187+790609653+786348023+784359237+783803637
1805+782223810+778664861+774851357+773298252+773391377+772331497+768940422
1792+766959763+769684981+772794119+773320801+772656921+772331497+773147730
1778+774405866+773034325+767801913+763221154+765288934+771160628+776101806
1765+777752428+776189294+776110299+778370259+779759224+780607084+779574951
1751+775232202+772836508+776312728+781116269+783536342+784276435+785438738
1738+786403517+783336109+779649773+784459976+793015597+800115264+804580715
1724+806252349+806057753+802429620+795434645+794313853+803624941+814469953
1711+821455704+823497421+822125660+821577674+821289367+818261494+818029926
1697+823583298+833297780+845595744+853880702+856912017+856059764+851307691
1684+852079557+865229481+877511485+882762127+883631584+885893448+889085461
1670+891500190+899019798+909266087+914690826+918142666+924982067+931372830
1657+931437695+923181289+918243112+928135645+934654161+937541249+948914846
1643+962327599+968360650+967762953+962832903+961202926+971090847+982028398
1630+986405263+986600225+986448092+987245582+991727433+997630168+998873882
1616+999692970+1006975593+1013812724+1015775519+1015770102+1016877350
1605+1019185336+1022254208+1025833070+1028424751+1029345456+1029902595
1593+1030640784+1031144112+1032038461+1033935440+1036168312+1037795433
1582+1037821789+1034929357+1029337476+1028328771+1035379679+1038623160
1570+1035520392+1036572658+1041643493+1043281084+1038705889+1026142315
1558+1020377802+1033288032+1044160864+1050301756+1055890122+1060741909
1547+1060846235+1054648678+1045050821+1035964857+1041303207+1056596831
1535+1063010728+1062985983+1066342941+1068651440+1065745244+1062636765
1524+1059537876+1055586149+1056734322+1060958468+1064058528+1065480219
1512+1063476791+1056252299+1044454368+1043056838+1060189750+1072715986
1501+1072361936+1066478162+1065964658+1070185657+1069842295+1062685523
1489+1058258142+1063950761+1071091281+1073597084+1073741823+1072163900
1477+1066673417+1058754808+1052789037+1051743873+1052732372+1050324232
1466+1045135380+1043941450+1046217150+1042220618+1028790149+1020630455
1454+1023992172+1024504285+1018670148+1012215839+1008838381+1005191652
1443+999658707+994711965+986667286+971802388+960840238+956407439+949118447
1429+940673229+938044504+939160244+939322187+936607439+934925702+943446400
1416+957374560+966755199+971816664+975566035+977863772+979272870+983377463
1402+987561123+987790494+989586148+996836631+1005493137+1011564844+1013392272
1389+1012469955+1012712212+1014858182+1017918561+1022405975+1025807812
1377+1026073057+1027084691+1032694947+1038187992+1037975533+1035956072
1366+1035215759+1033542661+1033282688+1035542428+1036080092+1034606275
1354+1033021836+1031413676+1031167686+1033870575+1035168831+1029339087
1342+1018682375+1008618088+1001869396+999076531+998929376+999824092+1000458175
1329+1000013343+999752491+1001784251+1005243266+1006861090+1007587127
1317+1010640478+1014095979+1015936365+1017970029+1021182395+1025292990
1306+1029668392+1032154721+1031154435+1028846887+1028655440+1030673290
1294+1032705197+1034257277+1037028911+1041622335+1046538841+1050840079
1283+1054521876+1057512631+1060483473+1063582069+1064852944+1063333297
1271+1061242016+1060761018+1060740738+1058557137+1055417690+1053641144
1260+1051082335+1046973570+1043551600+1041232558+1039949310+1038734222
1248+1036291819+1033295427+1030015560+1026849976+1025239839+1024448498
1236+1022387526+1019391280+1017428558+1016875446+1016655666+1016557343
1225+1017150135+1017798495+1017504478+1016820538+1016083666+1014943839
1213+1014288232+1014774940+1015579460+1015885629+1015407633+1013971007
1202+1012170082+1011117596+1010532930+1010190814+1010843786+1011249450
1190+1009735366+1007394801+1006123559+1005542481+1004393430+1003715932
1178+1003685256+1002284578+1000377203+999751246+999111453+997851193+996605722
1165+994141649+990680072+988397782+986756604+984516338+983021143+982784158
1151+981712198+978907839+975847752+973836564+972626088+970874654+968105143
1138+965381243+963633689+962403958+960934607+959049709+956892244+954408770
1124+950752817+947441469+946272650+944153475+939799086+936011425+934296670
1111+935245708+936785342+934353775+928083738+922921169+920482354+918029848
1097+914950433+913068171+912169282+910501016+908626586+907734067+907157235
1084+907444809+909137016+910486007+911480510+914019259+917347372+919032404
1070+918687212+917761016+918436097+920673582+921894380+922952284+925742147
1057+927736863+927542706+927533994+928386320+929285282+930494367+931800384
1043+932882740+933704683+933636816+933392217+934495219+935220743+933412790
1030+932146966+933366081+933348876+930690793+928342760+928207099+929257389
1016+928830713+926265242+924189482+924210713+924172643+922171192+919818034
1003+918605874+918212510+918637282+918984670+918233522+918436756+921033049
989+925269934+931370194+937563505+940441296+941921628+945115985+947684750
976+947116044+944250627+941574753+941527239+942398600+941325395+940706467
962+943052670+945494560+945339572+944657096+944525316+942098068+937430554
949+934813395+935610740+936375066+935318480+934844803+934201715+930493196
935+927323731+927926407+929265662+929242600+928064630+925583352+922033628
922+918946453+917352350+915921728+914913755+915527046+915385601+913090646
908+910826586+909590413+908772936+908156497+906985408+904857302+903427924
895+904895079+909366680+912933535+911309562+906670380+904911844+907225834
881+910571811+914188084+918780776+923263725+925992018+926824723+928279798
868+931632876+935625236+939885402+944220098+948388530+952382720+956427499
854+961895286+968961203+975392597+980320963+986148291+994030441+1001918960
841+1007840584+1012874814+1019121130+1024578887+1027838548+1030685736
829+1032219220+1032655194+1034414388+1035703200+1033642814+1031475686
818+1034071247+1038492185+1038891626+1036329450+1034414608+1034309184
806+1035091300+1034557004+1033049583+1031314402+1028653170+1027163100
795+1026733423+1024197456+1021189716+1020066654+1017764817+1010780824
783+1000238321+989749117+982492265+979997223+980087492+978736524+975664358
770+972243925+966706807+960268750+958344684+959373595+957646321+954321722
756+950131545+943912830+941149835+943885009+945578021+944036044+943728191
743+945591126+946357209+945739891+944179026+940967978+938200444+936304637
729+933489222+930445901+927451119+923028716+917964104+915537076+915822746
716+915273442+914033022+915393435+919221874+923541122+927712996+931510687
702+934859738+937502447+939759772+940588084+937318321+932837642+932116291
689+933785875+935040277+937087119+940015206+940714667+940727991+945317901
675+952670221+954748617+946919619+932656224+926154986+932419532+940561509
662+945142560+942053482+934953083+931517788+934580657+943553069+951116970
648+948674347+941504470+939889648+941590933+939663352+937445269+939357329
635+942006407+941178241+939416484+943331971+950809189+953280218+950608078
621+946418633+940183153+933530587+934198128+944863772+957183772+965409942
608+967023080+961497895+959133169+965575472+973176637
##END=
