##TITLE=Sample description
##JCAMP-DX=4.24
##DATA TYPE=INFRARED SPECTRUM
##DATE=13/9/2023
##SAMPLING PROCEDURE=Instrument type and / or accessory
##ORIGIN=Default
##XUNITS=1/CM
##YUNITS=ABSORBANCE
##RESOLUTION=4
##FIRSTX=4397.6552
##LASTX=599.8556
##DELTAX=-1.9287962
##MAXY=1.6325043
##MINY=0.24081638
##XFACTOR=1
##YFACTOR=1.5203882e-009
##NPOINTS=1970
##FIRSTY=0.26268661
##XYDATA=(X++(Y..Y))
4398+172776018+172831119+172357010+171956291+172474111+173548720+174048762
4384+173320124+171994495+171414890+172095405+172830511+172295284+171746199
4371+172664562+173710945+173912784+174051369+174133520+173646200+172750183
4357+171731360+171167887+172029464+173299817+173041367+172060063+171468638
4344+171226438+171835152+172256316+171063959+169709769+169450359+169208219
4330+167715386+165423525+164661428+165924567+166561840+165961065+165913374
4317+166088575+165212199+163489584+161887481+161747377+163105683+163988420
4303+163608714+163326399+163774143+163664236+162863307+163002754+163608802
4290+163467042+163341600+163501894+163353665+163020503+162518296+161624464
4276+161179798+161603951+161549370+160840912+160500184+160148018+159653152
4263+159615820+159669588+159770576+159979845+159697246+159711957+160485551
4249+160854967+160778402+160489011+159999966+160156281+160793495+160959062
4236+160703288+160789036+161462524+161750141+161040586+160423531+160855231
4222+161576136+161628747+161259920+160819919+160382779+160379349+160926013
4209+161338768+161331427+161453595+161310042+160228141+159533032+160312526
4195+161380226+161735773+161814572+161860626+161662717+161353117+161183659
4182+161236447+161173309+160569467+159709193+159190981+159358949+159902682
4168+160116881+160353563+161168252+161335348+159943366+158511083+158391385
4155+159019838+159299496+159002814+159045771+159969887+161067901+161752180
4141+162048882+161972092+161585153+161316608+161379236+161356645+161100665
4128+160785390+160387533+160172413+160693791+161830048+162456344+162081460
4114+161885648+162666956+163556553+163798371+163670665+163350676+162883448
4101+162606337+162780391+163473197+164296746+165000186+165995349+166731337
4087+166139343+165112210+165032509+165693501+166541219+167139858+167067841
4074+166661261+166603416+167334856+168699474+169600587+169107250+167830213
4060+167199094+167456564+167810631+168078881+168563241+169403256+170313485
4047+170539964+170063817+169774730+169988291+170416022+170816133+171133721
4033+171606987+171879060+171502039+171386761+171830604+171911560+171724892
4020+171778777+172029072+172420834+172743361+172514060+171756784+171626569
4006+172771431+173822342+173611093+172832961+172310691+172168637+172585508
3993+173466079+174081556+174159453+174393871+175253742+176154621+176045929
3979+175140660+174858433+175600714+176665777+177481544+177885615+178034118
3966+177902473+177637065+178196970+179501371+179928141+179306333+178844574
3952+178789199+178869723+179317741+180042439+180586722+181341645+182379129
3939+182946855+182811466+182072674+181516140+182209456+183418082+183551903
3925+182806075+183022028+184453997+185464567+185686440+186614800+187869765
3912+188059099+187598908+186597727+184480322+182982589+183943959+186097195
3898+188319018+189654880+189107775+188310609+189474799+190906513+191445229
3885+191847869+191648676+191443935+192339796+192283048+190950186+190104937
3871+189971723+190825166+191635758+191859630+193500554+196054177+197154935
3858+195989178+192398268+190237073+194553680+199108566+200354887+198998444
3844+196734614+194840768+193615891+194119167+196591560+198875678+200521463
3831+201978072+202572124+202379458+201438964+199130187+198551797+200853106
3817+202458688+204339695+206705238+207162058+205284227+203397986+203531317
3804+203472296+203942994+206763319+208905147+210540779+212400008+213055276
3790+213335542+214408054+215763086+217005271+217642623+218114634+220048625
3777+222602267+223867817+223837924+224121229+226499964+230066842+233506368
3763+236047778+236981803+238642859+242789754+246450779+248132808+253161568
3750+266999547+282982294+302372125+328646064+347290126+354882133+357748384
3736+361983076+371064034+382799153+393747103+402436025+411185243+422509587
3723+435673714+449257007+462796195+475951306+487769968+499228858+512946266
3709+529559916+547510447+564901073+581308198+597694037+613929686+627484085
3696+636104010+638873664+638133069+639457836+644076801+648974856+653028623
3682+655443994+654661765+651319935+647860965+647003543+647876019+648130411
3669+650043663+653806970+656584073+656982342+655916789+654837946+653124710
3655+651868981+650248776+644506942+637560266+638978141+645454845+647520364
3642+643834405+639469479+636428223+633698047+632632965+632811184+629784825
3628+626329423+626677276+626977928+625805036+623575293+622038239+621690386
3615+621221040+622446270+624634260+622817802+618856281+617018927+615109321
3601+612093391+611178810+613082144+614007231+612268239+610383292+609563898
3588+610403481+613051134+615635002+616596626+616310205+615936869+614743630
3574+612898358+612524944+613393185+613516010+613499662+614115197+614138602
3561+614439960+615227481+615141547+614972383+615064708+614279852+612909256
3547+612437912+614107984+616317732+616722431+616616699+616862544+615950748
3534+614904718+615500887+616663743+616754891+615781780+614874727+615361479
3520+617284727+619039558+620014903+621354176+622819566+622223515+619314884
3507+616401941+615250689+616090155+617297155+617463261+616963925+616745130
3493+617372739+617796216+617087063+616171581+615483990+615035579+614569841
3480+613234567+611813948+610813982+609625408+608864859+608474470+607626183
3466+606586426+605523813+604716337+605046353+605965206+605417101+603762945
3453+603453433+603820261+602850129+601029790+599215841+597797416+597233591
3439+597305412+597576975+597502017+596634207+595177089+593107062+590534563
3426+588906948+588600063+587856214+586873655+587527335+589405657+590436515
3412+589587365+588204146+587748561+587730802+587835554+588125229+587883147
3399+587790313+588479904+587499814+584671120+583742035+585468364+587394122
3385+588149731+588174782+587892477+586933832+585358907+583588474+582817614
3372+584226983+586193865+586327980+584911399+583505010+582329295+581445489
3358+581942943+583110347+583114033+582525116+582220858+581428553+580084302
3345+579238799+579386518+579686072+578525607+576310292+574951496+574212234
3331+573240143+572568154+572431138+571950110+570167092+567734903+565863873
3318+564607673+563676275+562055050+559175313+556674791+555430078+554278904
3304+551961934+549009513+547623353+547339167+545965317+544518979+544557869
3291+545225898+545591354+545840806+545568733+544637296+544382041+544472876
3277+543055706+540419423+539223400+540577766+541983488+542044999+541987840
3264+541426288+539111160+535630001+532085645+529350647+528203472+527788307
3250+527003255+525891677+524457806+523824904+524718236+524786136+521935684
3237+518349812+517660103+519279838+520723039+521101432+518944961+514885078
3223+512592846+512785178+513280437+512955126+511502986+509024576+507122771
3210+507108580+507532880+506246180+503683246+501617336+500792884+500970006
3196+501345380+501158105+500068481+498566239+497999434+497893114+496493468
3183+494218720+492432841+491673467+491560051+491179463+490455569+489741633
3169+489322978+489248570+488692937+487623621+487020199+486678697+486508593
3156+487365622+488357394+487729196+485904858+484283320+483242739+482874696
3142+483176681+483443658+482926445+481232890+478701672+476528265+475409082
3129+474862153+474022295+472905346+472082855+471295490+470175444+468749022
3115+466969102+465478504+464662442+463583795+461982094+460159285+458049662
3102+456658759+456593798+456416755+455626960+455487474+455488062+454219787
3088+452797873+452338956+451819980+450877330+450490704+450531201+450037550
3075+449273080+448787348+448310711+447423181+445947833+444321630+443486398
3061+443354047+442588440+441233957+440326512+439682789+439004254+438284241
3047+437571481+437048623+436669838+436697790+437227901+437575676+437328262
3034+436868365+436370597+435461074+434216674+433328635+432948204+432402608
3020+431843251+432315144+434178216+436810069+439232105+441253519+443299005
3007+446019929+450046880+454911416+460486987+467518030+476337109+487082416
2993+498817612+510397720+522269894+533946600+543175277+549114814+552486478
2980+553685519+554040390+555461088+557215879+557673071+557797111+559390148
2966+562838886+567630817+573113554+579209122+586565829+594878240+602080211
2953+607101286+610919871+613669335+614930984+615782211+616911196+616332982
2939+611789563+604762205+597966266+591515123+585138309+579656434+574982585
2926+570192771+565321100+560958566+556995045+552604912+547403657+542076754
2912+536723349+531149072+525901556+521117035+517195894+514484928+512295643
2899+510712250+510730990+512718062+515846624+519325157+523944867+530344458
2885+537762989+545630126+553715823+561314848+567979298+573737009+577823236
2872+579705792+580391462+580116057+577876239+573532131+567759601+560784737
2858+552086484+541721138+530452816+518058255+504031648+489352302+475370153
2845+462256950+450275516+440009904+430680042+421325403+412450421+405049845
2831+399247991+393991380+388795613+384497294+381135549+377821946+374635911
2818+372394368+371197483+370605940+370394633+370263223+369992052+369856878
2804+370013457+370221941+370199634+369630320+368448097+366947071+365085568
2791+362651575+359718638+356338624+352877693+349870466+347139310+344330923
2777+341482705+338774522+336597313+335023642+333482315+331716233+329965833
2764+328374697+326960369+325682392+324530160+323557578+322720405+322082171
2750+321798376+321498195+320652280+319484699+318525506+317813412+316938310
2737+315709729+314581685+313871591+313232063+312336007+311417761+310864344
2723+310352972+309341383+308118467+307064008+306180909+305666205+305471187
2710+305135800+304580717+304094357+303667744+302969548+301949001+300887995
2696+299877249+298842157+297763941+296634584+295587006+294693851+293653898
2683+292294455+290846765+289556791+288519034+287581127+286420055+284955409
2669+283515913+282496463+281781939+280908699+279896855+279064230+278314148
2656+277514199+276801204+276205486+275670102+275127564+274500836+273841275
2642+273232522+272696394+272265978+272014507+271929356+271832308+271586384
2629+271324367+271295082+271430569+271420024+271318290+271501861+271993846
2615+272438160+272659229+272858089+273238697+273683991+274062501+274432034
2602+274836595+275326463+275890387+276330447+276509078+276584467+276813455
2588+277203844+277518061+277541093+277310262+276976150+276509137+275894602
2575+275345516+274990940+274699108+274321676+273808286+273164112+272491398
2561+271936570+271437332+270819601+270239310+269918762+269738974+269539938
2548+269294524+269006260+268716134+268514275+268434534+268334644+268149583
2534+268112222+268283914+268352109+268262019+268292147+268483068+268685927
2521+268936223+269325514+269777061+270231509+270689426+271011052+271180196
2507+271457091+271866160+272222521+272637687+273204100+273676679+273908000
2494+274045212+274194127+274332398+274557485+274896871+275143324+275257916
2480+275389914+275466989+275282732+274909141+274607862+274472276+274378619
2467+274185659+273945420+273828181+273877931+273850704+273468136+272921618
2453+272562984+272382393+272222148+272044635+271916164+271826388+271702034
2440+271542182+271262641+270855865+270559231+270427154+270279474+270106528
2426+270049506+270098216+270150475+270211966+270214965+270059797+269933013
2413+270026709+270192619+270230528+270193991+270255148+270439895+270647850
2399+270890364+271189467+271351398+271337167+271379781+271459168+271337559
2386+270838674+269770925+267968306+265339883+261934367+258186564+254603750
2372+251042125+247251571+243598876+240171484+237000406+234957115+234566354
2359+235651175+238260134+242295279+247548068+253054680+256262943+255561395
2345+252271510+249509422+248523021+249058464+250692351+252407017+253544019
2332+254377428+255671400+257676663+259919813+262141969+264516275+267020736
2318+269438832+271579347+273217586+274502150+275954661+277771904+279695309
2305+281473838+283066856+284406736+285454961+286391573+287333616+288254507
2291+289203547+290126733+290881735+291593378+292312645+292886762+293334820
2278+293688573+293986011+294325827+294669897+294914273+295089689+295369818
2264+295700677+295910808+296116764+296405420+296646522+296795907+296950918
2251+297126178+297193137+297038107+296791301+296753116+296929650+297143427
2237+297409110+297613007+297550635+297392527+297327135+297341836+297495691
2224+297678673+297681065+297641489+297781328+297998692+298137708+298277645
2210+298496656+298769552+299063657+299339180+299627032+299986000+300410241
2197+300898169+301453076+302000730+302455785+302888867+303446028+304047921
2183+304521030+304992315+305671615+306471858+307165585+307686777+308174175
2170+308816800+309667047+310608678+311530295+312322285+312965851+313721814
2156+314678577+315637790+316550782+317411203+318274681+319304108+320462730
2143+321698349+322948531+324004381+324974905+326151404+327483561+328783943
2129+330056746+331438515+332880187+334168416+335338761+336566773+337842262
2116+339120651+340444791+341855570+343428849+345194774+347048711+349010653
2102+351156814+353349273+355575291+358033630+360721387+363528794+366462711
2089+369512631+372665461+376014739+379613274+383403593+387467318+391915355
2075+396547649+401301356+406423264+411798191+417123055+422421065+427893805
2062+433765089+440122536+446781889+453352486+459653441+466124539+473141351
2048+480432941+487623738+494434222+500956559+507759908+514829723+521703795
2035+528389219+535065117+541870112+548725679+555113509+560957350+566797663
2021+572531460+577730088+582746303+587825988+592461850+596642322+601079187
2008+605723594+609802255+613212378+616146217+618558059+620864641+623427574
1994+625836438+627768899+629377383+630997627+632754613+634214398+635294887
1981+636354168+637346136+638141302+638556507+638598807+638599748+638446345
1967+638035491+637696694+637531804+637463590+637473704+637402981+636986874
1954+636067746+635010622+634458518+634298881+634015675+633730978+634065698
1940+635144267+636425518+637820656+639566312+641479878+643365374+645593979
1927+648498846+651785477+655507778+659951032+665101833+671301799+678134825
1913+684590633+690888530+697888093+705468182+712828182+719917442+726978554
1900+733859643+740620142+747571249+754330336+760141168+765593522+771597628
1886+777285909+781502645+784666295+788261184+792414489+795196452+795695514
1873+795014940+793634739+791967725+791800247+792660295+792300249+790447645
1859+787699005+784106389+780074459+775781982+771138946+766298716+761108320
1846+755022671+748671301+744148463+740601795+736059512+731118372+726841576
1832+721877385+715447843+710553826+708086431+705857865+703542502+701160572
1819+698289067+695275018+692855295+690899429+688785808+686762119+685242197
1805+684036609+682509081+680549686+679296975+679193321+679043250+677945236
1792+677309433+678842057+680627074+680857513+680431762+680575796+681089127
1778+681481633+681253861+679942031+678285758+678810929+681792518+685076993
1765+686952492+687322260+687695321+688703715+689933218+691455492+692365329
1751+692008263+692052798+693804727+695963354+697538005+698791578+700602313
1738+702783129+703854563+704964729+708357563+712297914+716166522+720018430
1724+723372452+725738466+726152691+725131517+727026460+733409586+740171575
1711+745101737+747819329+749353129+751595260+753963548+755293490+758418955
1697+764661418+772681136+781144716+788034744+793182016+795946417+796164232
1684+799114065+808431500+818007677+824877554+829984447+835197032+840386487
1670+846468999+855608136+864606140+870905291+877186644+885478826+893495957
1657+899547420+904021488+910195031+918388107+924324704+930501619+939821405
1643+948047726+952706521+954746518+955489661+958321335+965647777+972246836
1630+974592620+974499394+975638729+978421476+982582700+986210285+986336913
1616+986079188+990095045+994524657+997334063+999827881+1002171862+1004315121
1603+1007042357+1010881092+1015611395+1020675712+1024556552+1025618499
1591+1025375593+1025928050+1026495718+1026120461+1024954469+1022925449
1580+1019780852+1014762324+1010373563+1010579146+1010565660+1008527624
1568+1010329733+1016746025+1024275463+1030087157+1032013699+1035959695
1557+1046427754+1053846011+1055277019+1053070721+1050057142+1045389408
1545+1038321397+1032371471+1029305908+1031440699+1038547052+1044549041
1533+1049553769+1054980013+1058043067+1058630258+1058877946+1057087676
1522+1053269326+1053202602+1056268713+1059517827+1062799871+1063931051
1510+1060849729+1053363101+1049113356+1056558663+1065618294+1070549476
1499+1071143724+1070692648+1072671958+1073741823+1071244634+1068888264
1487+1070164262+1072410940+1073013656+1072777415+1073392754+1073377935
1476+1070499060+1065427138+1063222956+1065311095+1064974572+1059547935
1464+1054572296+1052513325+1047960614+1037959783+1029371143+1028152382
1452+1028201308+1025680754+1021043050+1015844578+1010113565+1003907169
1441+997707673+989163255+976051072+965714893+961195271+955903102+950023743
1427+946737778+944850126+944926102+947845906+952884584+960885405+969454600
1414+974587210+976959418+979543169+982043651+984690519+989688896+994990003
1400+998720772+1002915084+1008597249+1015288907+1021641610+1025405388
1389+1026171426+1025212977+1024579839+1026048640+1029135529+1032702270
1377+1036806100+1040363432+1042882340+1044577895+1044529831+1044082832
1366+1043961693+1043342041+1044572249+1047147297+1046591468+1044068954
1354+1044012344+1045576409+1045612555+1044335773+1041670322+1036171551
1342+1028346754+1020769958+1016123864+1014206261+1012633492+1010797118
1331+1009933620+1009871914+1009972824+1011199033+1013507575+1016300672
1319+1019709031+1022812386+1025418012+1029247965+1033223756+1034169190
1308+1033521703+1034865602+1038444809+1041800400+1043106428+1043344001
1296+1043369719+1042885006+1042886025+1044931668+1049081209+1053557394
1285+1057621628+1060924372+1061695820+1061565429+1063699828+1066121041
1273+1065560195+1062548733+1058233910+1052562407+1046327236+1040558352
1261+1035179387+1030256046+1026039310+1021880203+1017432715+1014155375
1250+1013510789+1013839943+1012086367+1008484813+1005553170+1003583426
1238+1001578163+1000572121+1001299112+1002257796+1002446758+1002278339
1227+1002771677+1004203705+1005483937+1006057799+1006237743+1006199323
1215+1005648121+1004997734+1005626010+1006577324+1005593628+1003475695
1204+1002357138+1002155083+1002006031+1002170372+1002337772+1001825146
1192+1000703296+998928159+997040428+995436140+993681388+992372381+991587682
1178+990634016+990471086+990947253+990298512+988459786+985604512+982097360
1165+979789759+979224914+978735575+976626267+973188976+970355891+968580831
1151+966416245+963634360+960693386+956863119+952738982+949902760+948243900
1138+947294076+946321357+943793041+939805097+935788769+932367160+930021689
1124+928615143+926757521+923895347+919763682+914451363+910196756+907522681
1111+903471933+897525065+892801505+890392210+889368056+889925923+891240026
1097+891227403+889879349+888225977+886583348+885918926+886616044+887118320
1084+887526899+889759935+893039078+894749060+894789361+895043400+896722803
1070+900273313+904198218+905909924+906197365+907479792+909424916+911078523
1057+913281215+915961328+917822243+918755915+918672568+917613131+916255433
1043+915187763+915879471+917902218+918065070+916090778+914950503+915362532
1030+914824424+911955037+908904685+908118183+908126651+906639503+904981192
1016+903525798+901018887+898518561+896690499+895068412+893852944+893197225
1003+892980587+892720588+891889865+890791302+890653071+892358896+895668305
989+900517081+906830424+913260359+918123483+920993185+923165062+926441148
976+930202182+931598221+930612173+930124324+930932936+932113042+933100031
962+933308046+933178595+933616734+933271743+931276830+929414425+928525759
949+928970249+930879071+931725476+930231977+928355380+926868702+924512646
935+921226132+918821464+918278808+918439856+917477408+915830074+914942662
922+913656315+911081503+908379200+906207715+904940028+904979310+905783846
908+905970219+904698299+902718910+901588828+901582007+901504384+900863719
895+899509236+897877426+898418828+901842083+904708570+904959159+904942537
881+906143107+907515389+908516962+909282529+909874973+910243801+910952444
868+912473229+914567641+917786332+921695164+924598031+927668769+933604895
854+941348384+947595160+953000391+961165476+971349309+979495576+986324446
841+994630820+1003997102+1012617497+1018542646+1022837319+1026665548+1027134971
827+1024642957+1024443881+1027960755+1030682973+1031538473+1033859168
816+1036753489+1038820144+1040562665+1040224103+1038466685+1037511451
804+1033991911+1027243252+1023361549+1023892522+1024651425+1021213585
793+1013892083+1007147187+1002897834+1000766257+997149493+988464255+978372550
779+971368127+966475443+960689309+954437908+949486732+944347928+938655491
766+934766026+933216623+932149894+930445244+927998471+923442232+918362625
752+917496932+920072763+920995615+918410218+914531260+912787407+913590688
739+913322143+911097184+910031788+909589650+907754688+905414077+902283359
725+899118141+897111624+893720280+890251156+889568229+888121618+885395558
712+886055668+891050124+897963831+903825078+907021189+909091372+911094753
698+912023564+911404854+910125563+909312873+910055231+913050698+916619477
685+919276695+921214293+920496397+917387319+916642921+919444722+920602168
671+914129737+903342639+905073242+917501244+924042438+924849091+923165376
658+920229185+916437730+912733149+913525375+919999296+925913076+928865340
644+931918906+932214187+928823784+925418484+929399606+953596129+975474387
631+957397150+930203280+922317481+922297017+922792628+925613325+927253211
617+923865865+921652353+926794686+939608608+957559923+966021857+956526204
604+944332952+943029669+949846856
##END=
