##TITLE=Sample description
##JCAMP-DX=4.24
##DATA TYPE=INFRARED SPECTRUM
##DATE=13/9/2023
##SAMPLING PROCEDURE=Instrument type and / or accessory
##ORIGIN=Default
##XUNITS=1/CM
##YUNITS=ABSORBANCE
##RESOLUTION=4
##FIRSTX=4397.6552
##LASTX=599.8556
##DELTAX=-1.9287962
##MAXY=1.5992829
##MINY=0.21159554
##XFACTOR=1
##YFACTOR=1.4894482e-009
##NPOINTS=1970
##FIRSTY=0.22517471
##XYDATA=(X++(Y..Y))
4398+151179951+151558630+151370436+150596009+150343266+150050204+149008977
4384+149139146+150296695+150304728+150229485+150948837+151730177+153197485
4371+154801454+155298346+155300858+155474095+155491813+154785076+153488695
4357+151994366+150648642+149880428+149330362+148984266+149427925+150220030
4344+150079747+148513045+146770424+146101274+146610242+147395644+146978707
4330+145284858+143573161+142938717+143581725+144322447+143864992+142650708
4317+142106974+142434551+142786549+142613181+142383118+142887444+143328932
4303+143145730+143463672+144339585+144786385+144627063+144517234+145113792
4290+145902995+146032273+146063017+146651311+146837654+146093191+145427652
4276+145206033+145183923+145722715+146588723+146338631+144698876+143068105
4263+142063034+142412261+144490592+145901014+145343294+144290092+143676808
4249+143940206+145035877+145596518+144995008+144421591+144505429+144740244
4236+144923716+145178461+145624300+145979019+146162041+146673641+147382589
4222+147759277+147898790+148189290+148570261+148804126+148850306+149121438
4209+149962325+150459968+150148528+149830826+149662160+149432597+149541156
4195+150183494+150691161+150937872+151484287+151583762+150657917+150094204
4182+150472754+150634716+150335462+150068002+149813158+149344638+148626676
4168+148695177+150148788+151637636+152240226+152155428+151458545+150821590
4155+151160772+151899283+152111648+152124884+152091329+151747955+151801569
4141+152743601+153868406+154576843+154594331+153982677+153614792+153801215
4128+154181456+155078348+156475724+157625139+158203639+158504473+159231869
4114+160239921+160719476+160928320+161175241+161197260+161236808+161619009
4101+162026282+162280966+162785062+163619746+164670737+165813389+166528410
4087+167009966+168002821+168852902+168822508+169163781+170594883+171975521
4074+172492833+172337624+172361434+172652805+172155742+171099469+170825606
4060+171815550+173435596+174676612+175113748+175128094+175321221+175542500
4047+175198606+174816955+175306734+176107693+176153454+175784188+175988080
4033+176836280+177802013+178323827+178183604+178037218+178440499+178898444
4020+178943645+178717563+178601911+178888620+179120344+179086589+179446130
4006+179976027+180016685+180070189+180530096+180609291+179958860+179509938
3993+179962441+180889537+181815992+182762336+183254257+183125319+183456487
3979+184317593+184379601+183458508+182779024+183111413+183959733+184739142
3966+185038196+184668430+184912920+185750115+185568174+185030853+184741823
3952+184064720+183596570+184076105+184068462+182767358+183163356+185740751
3939+186975464+185767603+183155452+182002476+184607643+187218934+185992124
3925+183884619+184096774+183938183+182673836+184273233+189180713+192654610
3912+192880491+191354507+186787500+178583123+172343026+172714953+178456546
3898+186316549+190297974+187039113+183208776+186167662+188113134+184942913
3885+183356282+182547420+183144307+188604595+190203091+186008851+181955635
3871+179659245+182200924+185545524+184626432+186308105+192439474+194776501
3858+188305080+173710939+166450305+180948483+195765484+200127479+196391825
3844+189700906+183900166+179668930+179948495+185618976+190648931+194172550
3831+198163139+200576841+200461829+196552477+187832228+184803091+190226522
3817+194305930+200526018+207902204+209247587+204277359+199622993+199173252
3804+196202180+194724138+201263729+207090400+211857517+217704197+221171832
3790+222097727+221518647+220642514+221457320+221561947+220699120+224480515
3777+231055542+233793549+231271558+227779613+228915122+233243102+238441452
3763+241840916+240335781+239739154+243897478+244897086+239047624+238523969
3750+256481158+276747641+293244716+317782954+339962855+347226871+342209862
3736+335830963+340575690+354247057+366027818+370771584+372463022+377277300
3723+386238516+398705224+413006154+425189935+431175338+433478170+444731294
3709+466771052+488156317+503530488+514877014+528525131+545508303+562235760
3696+577076492+587557550+593884185+603893792+624620002+649310308+668461852
3682+678460974+681992317+683102894+687210335+701590861+715479806+723923911
3669+739502413+759926528+775856067+786912143+794093201+795723452+793503257
3655+794998967+796717978+791652748+789340191+802552033+821242810+835267096
3642+843399861+844764473+843054506+845714659+852794232+858087564+859108022
3628+866307569+881302530+889938000+886306452+879984339+884903584+896723041
3615+905043170+908830788+910773979+914164619+923860084+937294746+946958197
3601+952065366+952648908+949641960+949388807+955799440+964543759+967364944
3588+964469726+963868176+965745898+970732213+980026939+985499552+986783968
3574+993636239+1000573428+997415213+989527837+990294421+1000930788+1011134562
3561+1015418242+1016884979+1021310963+1025930233+1026159056+1025967210
3549+1025659712+1020753673+1015982255+1022098116+1034419078+1037215772
3537+1031294157+1028956470+1031268546+1033175481+1035773205+1038501468
3526+1038306340+1041624148+1049756432+1052433632+1048602875+1044832626
3514+1040995786+1037560886+1038562135+1040695331+1042479731+1048566699
3503+1054816540+1058918059+1066899236+1073741823+1068531248+1055815868
3491+1046780699+1042727202+1043067274+1048292336+1052223778+1054356574
3480+1059757315+1064048678+1063802408+1060969938+1056938452+1054723379
3468+1056033166+1060674606+1065049207+1060524699+1047358478+1039534251
3456+1046778458+1060843402+1065819072+1061871383+1057047941+1050830834
3445+1044680798+1044774279+1050989865+1055516054+1053747821+1051271271
3433+1053592072+1059271577+1062927456+1058759348+1048045105+1041041086
3422+1044662869+1050577841+1046736599+1037280040+1032097157+1035734148
3410+1043856348+1046393165+1043022854+1042159107+1045524936+1043802964
3399+1035696531+1034757150+1041632151+1043373011+1037136456+1031655439
3387+1034771716+1041255102+1041003709+1038319386+1039059398+1038639370
3375+1035143643+1034642538+1037522469+1035990422+1030367262+1027994999
3364+1028425032+1026271266+1024979087+1029522964+1030084335+1021428936
3352+1014422195+1012841407+1014509835+1018194046+1019247078+1018559730
3341+1019845106+1018069990+1011714902+1007000229+1004271326+1001997666
3329+1001835034+1000852433+995721814+994112212+1000749187+1004607236+998824164
3316+988942535+980415433+978196438+982352541+986514967+987216561+987571521
3302+988016440+982076658+970628647+965494906+972022231+982679328+986285264
3289+981624135+980218865+988445992+996058765+992906792+983863699+980694198
3275+986619654+990138991+982394960+975216943+981596282+991135118+989246671
3262+984986282+988347868+994949627+995621208+988805434+985110658+986235562
3248+982956492+979451081+983346347+987195752+985112098+982751600+984534799
3235+988470483+988496895+985957197+986198905+985893568+984015607+984207213
3221+987968659+991919549+990407352+989599710+993923648+995258486+991105905
3208+986824706+985519561+983659767+977893823+970584707+964587459+962985381
3194+964123411+963291758+963265826+965211338+964502941+963169943+963314168
3181+959806596+955765345+958995512+964624275+964588979+961840788+961521605
3167+960431676+955945505+951841266+948485202+945372046+943718185+940396536
3154+935467607+934648920+938346337+940653451+939976028+938807584+935660974
3140+931905450+930414702+927117144+922072963+920577893+922294263+924645396
3127+925923409+923740191+918227160+913419565+913436933+916070993+914584567
3113+909876617+907111778+904286751+899720065+896008401+893449094+891677740
3100+889919592+885399246+878848710+874427528+873038185+874365820+878596197
3086+881241782+877951187+871406574+867464247+867519152+867295772+866326377
3073+866255065+863423316+855925875+847752292+843555371+843427874+844307548
3059+845107507+845653751+844444089+840377947+835202827+831724148+830044515
3046+829070319+827614066+823966831+819541648+816555109+813455320+809524278
3032+805690960+802054450+799902525+799405022+797243093+791808898+786763276
3019+784911566+785047467+786371661+788270512+788674693+786323719+782516172
3005+780611399+783542392+790169523+795146794+797195472+800125505+804067992
2992+807372113+809737974+809743016+807614702+804959512+801474830+797709382
2978+794777988+791435130+786523889+781814258+780248756+781816819+783820277
2965+784912927+785731293+786653067+786769039+785956274+785826936+787390277
2951+788688539+786627135+782092943+777366424+771701005+764918925+759467282
2938+756717249+754963263+752616931+750381769+748546307+745343831+740505903
2924+736101129+731975920+726734611+721374128+717291578+713326121+707984046
2911+702966437+699468550+695969221+692385775+690299880+690008229+690040964
2897+689645747+690510534+693793046+697325669+698339724+697801562+698906778
2884+702099729+704771006+705736879+706199486+705589773+701781186+694870809
2870+686257268+676679535+666877862+657339107+647958702+638670219+628985678
2857+618945978+609790955+601195783+591939874+582956408+575611916+569967826
2843+565637765+561933585+558352100+555154346+552485750+550174354+548454864
2830+547085570+545415901+544124723+543768603+543365703+542294182+540713234
2816+538760198+536579781+534037482+530930649+527446928+523679479+519357982
2803+514766204+510870938+507773230+504517210+500690295+496849533+493478222
2789+490325970+486980230+483617523+480571678+477721280+474997659+472697028
2776+470791694+468912292+466945770+464794526+462462241+460555506+459299983
2762+457974629+456356304+455062084+454122543+452842529+451136965+449562779
2749+448331787+447259947+445855357+443975075+442377959+441270862+440074246
2735+438701471+437367873+436136721+434927179+433611069+432091188+430336802
2722+428684781+427491646+426603528+425526126+423936893+422126202+420420517
2708+418682778+416837871+414879514+412683289+410433561+408443949+406436489
2695+404087356+401842510+400026576+398289238+396409595+394426546+392359820
2681+390423912+388767890+387233322+385887519+384708911+383224365+381505075
2668+380078195+379037289+378242252+377408159+376265326+375008923+373924597
2654+373113874+372601324+372210509+371787079+371346161+370992243+370868667
2641+370875711+370966031+371259443+371606758+371780076+371741219+371832740
2627+372261172+372571551+372711133+373195350+374049933+374802231+375232543
2614+375646449+376063076+376021617+375590824+375117932+374421140+373430536
2600+372403956+371405268+370484815+369516581+368135162+366378335+364638395
2587+362984734+361145629+359199397+357431405+355810478+354287275+352931948
2573+351669822+350332343+348980057+347771155+346636126+345496655+344456029
2560+343599965+342824418+342090249+341585142+341294132+340896794+340343346
2546+339994349+339932281+339878497+339852726+340013558+340274075+340565685
2533+340927487+341454964+342149755+342794044+343421365+344174183+344875497
2519+345571609+346394138+347030703+347363252+347731097+348216114+348500962
2506+348458743+348323002+348266297+348226439+348090298+347804730+347385702
2492+346845660+346277766+345812077+345291483+344606657+343970491+343446176
2479+342903133+342346564+341909688+341597828+341248391+340775339+340284239
2465+339949369+339744637+339471235+339049326+338549582+338142879+337927263
2451+337799886+337735817+337756026+337648218+337252921+336842336+336790553
2438+337023778+337255402+337375856+337325393+337191893+337179247+337305864
2424+337540609+337855911+338195543+338623055+339133243+339537985+339738595
2411+339840640+340035568+340387165+340727438+340884268+341017248+341443679
2397+342048510+342447209+342648819+342915218+343146082+342917019+341982400
2384+340195279+337420115+333867783+329778710+325132268+320103254+315024558
2370+309908745+304863763+300572860+297474051+295462730+294807076+295976980
2357+299142959+304222236+311110383+318313872+322244994+320947572+316721438
2343+314076993+313936290+314707355+315748242+316832708+317848443+319162852
2330+321435591+324396538+327231409+329828433+332525622+335612845+338837551
2316+341399739+343097500+344656119+346620239+348832311+351054146+353305676
2303+355539477+357505518+359039405+360212691+361184327+362049835+362901817
2289+363895622+364987832+365921730+366572622+366932823+367092775+367277458
2276+367560305+367883289+368235007+368527578+368720865+368907709+369075424
2262+369199359+369324415+369403051+369475363+369721753+370043177+370166713
2249+370161230+370201368+370337870+370627399+370866747+370878592+370859583
2235+370792073+370634763+370821326+371413872+371821695+371863753+371904132
2222+372135675+372486513+372770920+372932392+373139845+373431536+373794699
2208+374247142+374620869+374906917+375329267+375891439+376423877+376848788
2195+377172893+377456940+377827226+378322848+378791218+379149499+379580052
2181+380161713+380606392+380798358+381063477+381528245+381953836+382322441
2168+382811100+383378314+383963497+384616309+385250273+385844220+386571866
2154+387375186+388059332+388676889+389321578+390036899+390884079+391780440
2141+392570514+393293919+394170592+395170000+395917815+396342165+396890011
2127+397811704+398823997+399743930+400774311+402050283+403328576+404200327
2114+404831730+405871756+407348378+408784662+410093609+411486393+413049213
2100+414748535+416508884+418337584+420387582+422622984+424868831+427236692
2087+429889321+432738398+435621130+438548322+441657676+444864513+448100804
2073+451674486+455653389+459622928+463469892+467615310+472258431+477123572
2060+482151746+487363882+492465929+497538482+502960913+508479586+513538334
2046+518340446+523411839+528769881+534396202+540159025+545620633+550740808
2033+555854740+561084484+566232432+571199418+576022099+580745096+585275927
2019+589086555+592484358+596566308+600659222+603576570+606136077+609314742
2006+612663443+615528447+617816032+619740935+621698252+623545240+624403224
1992+624873075+626461147+628424947+629792680+630909901+631814586+632719192
1979+633646928+633866586+633526914+633334307+632919482+631766165+630775521
1965+630868602+631210355+630870443+629993210+628795873+627567163+626689529
1952+626066010+625380462+624375492+622609380+620133551+619110932+620969245
1938+623472607+625075006+626480596+628205489+630198942+632405491+634450568
1925+636038720+638659094+642933610+647369038+653025213+660690449+667740129
1911+673359727+679509844+687059548+694861525+702106852+709010266+715692461
1898+721590305+726899404+732523125+737516723+741881159+747597081+753402563
1884+757476229+760908808+764172030+766595277+767962289+768190471+766451292
1871+761390224+755717361+755220658+757777164+757738027+754865059+751565340
1857+748515253+744931326+740398815+734713707+727479424+718725981+709000902
1844+702096928+701003157+700482604+696853938+692054106+687062109+679666154
1830+671346705+667299011+665716181+664113023+664292943+664437728+662643804
1817+660482796+658545287+655453902+652150781+651371592+652196482+651601015
1803+648427392+644782319+644269769+645944560+645091457+640676238+639313427
1790+645081973+650697290+651995752+651470476+650996224+651429658+652912283
1776+651934164+646120558+640663633+643375928+651315127+658447043+661310927
1763+660137321+660479474+663177724+665464509+667651329+666843647+662234701
1749+661123483+666660645+673271768+677366563+679712255+683450810+687418749
1736+685805065+683741741+692599551+705575047+716762861+725175352+730652607
1722+733629621+731107050+724222605+726394698+741734374+757385389+767136639
1709+770799881+771466980+774102801+775958273+773251540+775788837+788248022
1695+806744472+826629625+839366053+846129164+849325477+847638401+853361206
1682+875409808+896399456+908196424+914019674+920848174+927004774+930511546
1668+940447599+953174103+957857802+959642682+967203671+974698151+973220128
1655+960702037+954603464+969261234+977931280+979799637+990893249+1004740656
1641+1010248725+1006317683+995140113+989455565+999601072+1009675908+1010855076
1628+1007865336+1004393460+1001020909+1001853362+1002562640+996624138+993154583
1614+999118296+1002905433+1000003573+995878604+993694025+991290467+989119334
1601+988873224+988591097+987280830+987366309+989964913+991902182+990310908
1587+985937908+980628168+976829106+975402546+971739144+961896413+955247432
1574+959433229+961543855+959626915+964559606+973877143+979849179+977723426
1560+962637865+954092595+970558055+984147026+988049095+987193111+984582341
1547+979301814+969042496+955572858+946654141+960775430+985778797+997114518
1533+1000444650+1008725722+1016059569+1015465223+1010088893+1001587483
1522+992331254+989802841+991918749+996124714+1001372826+1000527728+988971028
1508+970513075+967224881+987989228+1003181877+1003776864+997627228+997930083
1495+1006542744+1010607606+1005985214+1003578535+1011732270+1022746806
1483+1028656495+1029446689+1027792108+1022894633+1013889637+1006175059
1472+1010935032+1024318231+1030053762+1024922021+1019751064+1018324424
1460+1010416080+993039891+986233401+996360020+1002373195+998084793+991075011
1447+988548038+988159064+984543363+975647056+961671592+947160768+940058305
1433+936077400+929017996+924110036+924161980+923377548+920956623+918301353
1420+917335640+926897286+943669203+956007693+961304547+962787692+963473039
1406+965343878+970913414+977904948+981657350+982877977+984909607+991091098
1393+1001301114+1008559327+1008870907+1006537141+1006369306+1007628670
1381+1009729372+1012566884+1014132465+1014973082+1019365291+1026283352
1369+1030002699+1029737140+1027869583+1025557826+1025305873+1028557411
1358+1031479841+1030699171+1027905439+1025660352+1024213224+1023611114
1346+1023485778+1021775251+1016289352+1008540359+1003247587+1001082296
1335+998850176+995964002+993864661+993824563+996224679+999632847+1001738991
1321+1001698252+1001754277+1004331032+1008781347+1013371484+1016828874
1310+1019627568+1023365884+1027410657+1029527926+1028947426+1027595060
1298+1027370079+1027072745+1024860634+1022314853+1022577531+1025998264
1287+1030736468+1034864638+1037651647+1039563544+1040158130+1039072684
1275+1037282201+1034597078+1029740501+1023801039+1018163232+1010792809
1263+1001251572+993712913+989972757+986853919+982945207+980095850+978372918
1250+977274185+977678286+978507858+978091511+977887660+979156149+980218625
1236+980058153+979589383+979798997+980807369+981065645+979957308+979269880
1223+979497902+979714079+979962350+980341880+980132906+979254113+979336790
1209+981195943+982921836+982931441+982206556+982622902+984248271+985142912
1196+984493261+983655285+983469522+982467233+979503584+976440531+975093368
1182+974192164+972120435+970141548+969187601+968118161+966943875+965743817
1169+963837683+961277815+958820954+957626259+956471501+953181787+949268113
1155+946613323+944422421+942442093+940997526+938877375+935959267+933395238
1142+930343310+925794151+920688183+915863540+911718162+908807578+905905237
1128+902000687+899255936+898226595+896348153+892492185+887672425+883492231
1115+880311846+876570729+871009436+864837070+861402250+861349026+861076424
1101+859343487+858269886+858568740+859307151+859622172+859851155+860417889
1088+861384082+863102132+864502119+865058609+866155501+867739250+869013662
1074+870187148+871741684+874121071+877014928+880035642+882786875+883763553
1061+883640137+884916709+886607067+887194851+887917895+888786844+888717293
1047+888272053+888495193+889877413+892247115+894599850+895284717+893725618
1034+892546289+893257248+893211787+891593622+890025239+888277256+885986229
1020+883687278+882074956+882375250+883961481+884610652+884049521+882534042
1007+880339538+879157808+879611612+880204838+880057652+880796143+883268051
993+885674249+887399662+889423209+892078720+894560072+896271639+898858158
980+903021784+906389134+908044996+909582565+911268441+912225430+913445176
966+916302217+919437942+920643843+920554523+921813167+924528624+926189048
953+926732812+928079255+929994674+930998644+931159356+931661341+932211828
939+931570340+930370202+929864295+928944363+926437560+924341180+924115319
926+923499203+920905400+918701612+918183700+917500034+916452204+915322898
912+913453420+911336551+909281550+907904373+907091609+905012597+902153955
899+900643118+900020359+898453417+895895710+892735494+889633223+887801122
885+886710073+885154416+882204534+878919221+877713721+877070713+875086463
872+873350165+873027140+873920101+874868366+875421334+877677545+882153871
858+887214059+892957994+899355661+905993116+914414411+925217813+936705602
845+946867116+954942336+962165653+970026777+978950216+987516776+992474198
831+993681299+995326837+999507190+1004311263+1007251701+1008437033+1009594431
818+1010042472+1009945469+1011237248+1011286550+1007918880+1004213380
806+1001585242+999845422+999526559+998715235+995399749+991179057+988521866
793+987035120+983912040+978303126+972065851+965738855+959440512+955064150
779+952164371+947115868+938925637+931076359+926390979+922427042+916460848
766+911136461+908703131+908146401+908515607+907978726+904651875+900936290
752+900457995+902561978+904158614+902988650+899566636+896776745+895800548
739+895235414+893553701+891751293+891384328+890860494+888908739+885833921
725+881799152+878474542+875846964+872529798+870585726+869688684+868147673
712+869871406+875034040+878989893+882442000+886358396+888654145+889433134
698+890827599+893179373+893976930+893337924+893346248+892472176+890681853
685+891700470+895965182+899754080+901732406+902980406+902169722+899281628
671+895682575+892232468+894937841+901314059+903762837+904372070+904529020
658+904220162+903449176+901226580+900710108+903643263+904254017+898717535
644+893970127+896798995+901194165+899933360+895928205+894927116+898687202
631+903726180+904991067+900270391+893372179+888145597+883820618+881060981
617+881436270+887509151+897680110+902969361+904148129+907291698+908468946
604+905910599+904121317+905431985
##END=
