##TITLE=Sample description
##JCAMP-DX=4.24
##DATA TYPE=INFRARED SPECTRUM
##DATE=13/9/2023
##SAMPLING PROCEDURE=Instrument type and / or accessory
##ORIGIN=Default
##XUNITS=1/CM
##YUNITS=ABSORBANCE
##RESOLUTION=4
##FIRSTX=4397.6552
##LASTX=599.8556
##DELTAX=-1.9287962
##MAXY=1.6796238
##MINY=0.28796434
##XFACTOR=1
##YFACTOR=1.5642716e-009
##NPOINTS=1970
##FIRSTY=0.32233751
##XYDATA=(X++(Y..Y))
4398+206062366+206323434+205395893+203192505+201911609+202741318+203639214
4384+203342538+203395788+204096555+204398146+204484394+205111982+206106910
4371+206509914+206056613+205213014+204012822+203135483+203990550+205338185
4357+204633608+202953899+202615004+203154020+203694312+204632103+205101656
4344+204013355+203057294+203791801+204953566+204954633+203817121+202088848
4330+200077731+198829376+199083356+199613075+199616542+199792696+200174153
4317+200391554+200379151+199879496+199143655+198892704+199234742+199831257
4303+200334875+200471800+200455854+200456616+200443699+200829347+201291203
4290+201192743+201320047+202313794+203640072+204448005+203941244+202549104
4276+201690835+201500450+201232066+200953165+200954689+200884159+200090153
4263+198934447+198998270+200398946+201095559+200432077+199716031+199428976
4249+199755640+200852838+201300253+200516668+200073273+200567155+200794520
4236+200098460+199378832+199170557+199423166+200592475+201857292+202071263
4222+201910618+201700990+201170986+200904335+200960272+200538653+199822684
4209+199518311+199681909+200325882+200977838+201023410+200899801+200970083
4195+200605011+199592994+199041328+199291460+199546298+199567255+199388720
4182+199309197+199360828+199105495+198982172+199362447+199705705+199973632
4168+200822317+201865941+201903893+200872481+199565788+198453844+197676508
4155+197485532+197815320+197989473+197789276+197529846+197463165+197794287
4141+198387410+198482231+197470176+196218334+195956027+196587045+197244316
4128+196891551+195824074+195889651+197249136+198330407+198545731+198018032
4114+196899420+196019337+196035855+196722218+197677670+198513743+199027687
4101+199013969+198480726+198236557+198478192+198929588+199680842+200003181
4087+199292946+198148976+197132196+196531890+196727076+197503841+197999456
4074+197978214+197883335+197911056+198080408+198168370+197828599+197439369
4060+197505041+197522454+197148542+196888884+196758226+196550580+196646487
4047+197227836+197848318+198219677+198601667+198674236+198091020+197897167
4033+198473563+198819335+198798664+198587779+198146594+198172962+198517630
4020+198267478+197899548+197854014+197751020+198037274+198928826+199556662
4006+199561044+199199992+198681457+198334751+198278185+198103632+197774111
3993+198045695+198861078+199406286+199447438+198958585+198479297+198664882
3979+199099512+199324191+199473063+199790410+199991236+199626887+199541383
3966+200463837+201253061+201201773+200989192+200744166+200326168+200081675
3952+199965687+199793210+200120084+200211418+199112296+198977409+200617281
3939+201667897+201263463+200037894+198959252+198881197+199098083+198422942
3925+197903168+198800493+199469900+199062056+199225674+201025734+203043786
3912+203563502+202451882+199292298+194068576+190022146+189567683+192277947
3898+197621638+201607312+200533586+197742713+198677303+199511909+197018818
3885+195640966+195630697+195979004+199049692+200225707+197091215+193755439
3871+192513428+194769628+197420298+196972598+197800364+201664734+203314456
3858+199596709+190432867+184088456+191654779+201428034+205187390+203155030
3844+198544874+194099955+190464646+190027176+193564235+196857467+199301577
3831+202277805+204075903+204052736+201965201+196228317+192963738+195690139
3817+197883869+201791601+207667031+209601940+206204855+201720956+199989483
3804+197612608+196553914+200702423+204160512+206641353+210076903+212001029
3790+212143423+211598597+210905927+211272562+211253014+210026035+211570628
3777+215555387+217181046+215249395+212651442+213028936+215374852+217835936
3763+219111707+217813664+217825877+221902713+225216789+225058429+229522095
3750+249300086+273527872+298423580+328592544+348722194+352649588+345581338
3736+336151875+334885801+341855971+349918729+354127366+355494644+357557429
3723+360954228+365775384+371954748+378111212+383600060+391350367+407724700
3709+432195322+460164708+490485669+520938849+545160577+557850885+558421222
3696+549458377+534493922+515304140+498105508+491431671+490197642+485178728
3682+475273196+463516316+450764775+437863563+431551178+427719348+420668932
3669+418510696+420582474+419146038+414049507+407657218+399857415+390967615
3655+384152336+376238641+363302563+354499373+358322439+365118056+367833292
3642+367602421+366969061+365501341+362278144+357925664+351804408+343414758
3628+340422355+343227364+342167698+334011091+322183033+314606670+311116860
3615+306527947+303237610+302908946+303987721+307069211+309898682+309467348
3601+307228713+305113192+302316185+299133929+297182997+294274155+287277732
3588+280808112+280560590+281821177+280476952+277514250+274673386+272513950
3574+270946399+268669584+263321358+256274809+253980372+256437055+257976866
3561+257500436+256249813+254671993+252639367+250506622+248856501+246584106
3547+243880282+243226630+244326439+244870160+244273874+243292455+242338355
3534+240996303+239057430+237065194+235534927+234455962+234100263+234622285
3520+234949920+234421230+233722121+232824168+231201386+229904390+229912811
3507+229636883+227945266+226996978+227704717+227935588+227333034+227069775
3493+226938507+226253497+225395609+225096571+224989652+224359492+223720492
3480+223758062+223744802+222981278+222218155+222227910+222533902+222527443
3466+222207543+221528344+220910586+220975820+221259788+221281107+221148582
3453+220836874+220166229+219154574+218470116+218400424+218349632+218406692
3439+218955653+219533116+219709365+219674786+219523647+219173569+218753951
3426+218189348+217439542+217196288+217841423+218686317+219190963+219346979
3412+219152707+218800819+218576064+218686107+219374166+220198979+220189644
3399+219638378+219634510+220116732+220681449+221318278+221657877+221530668
3385+221248186+221199946+221741248+222630781+223103553+222914959+222719544
3372+223123444+223873554+224441548+224679544+224667370+224696482+225067536
3358+225405326+225324317+225256512+225414337+225502795+225471512+225603694
3345+226043259+226381144+226486158+226536132+226236522+225489078+224709418
3331+224398167+224426916+224151655+223495260+222561775+221456861+220574035
3318+219881994+218987032+217915916+216965855+216092022+215189591+214385792
3304+213528610+212230128+210896154+210388764+210314195+209744162+209088015
3291+209257101+209844585+210112073+210361634+210600221+210513744+210420161
3277+210457236+210643183+211206871+211936634+212461799+212643345+212421104
3264+212177355+212272119+212593467+213069288+213361601+213235592+213163385
3250+213302502+213285565+213264188+213663802+214171515+214457922+214757932
3237+215112202+215418004+215621802+215793250+216186271+216621245+216895611
3223+217530077+218784072+220116332+221086302+221562294+221665670+221963184
3210+222714743+223759415+225050218+226220880+226949119+227564514+228406436
3196+229571535+231023422+232417277+233333234+233808769+234200933+234774890
3183+235548721+236283533+236985633+237862306+238842925+239661775+240196714
3169+240903634+242131776+243463598+244618047+245492452+245820030+246167918
3156+247264182+248347206+248605968+248765699+249525755+250439655+251162598
3142+251675532+251741223+251473525+250968078+250354665+250225264+250502983
3129+250648102+250571685+250555624+250953637+251371692+250897853+249601867
3115+248453515+247888531+247590693+247181802+246570008+245847008+245008401
3102+244130090+243448852+243028129+242518758+241633340+241128446+241738278
3088+242651245+243055964+243255513+243451328+243673245+244006329+244216947
3075+244297956+244391044+244554433+245155177+245978142+246352568+246386443
3061+246257614+246008663+245922606+245871165+245675693+245649249+245714273
3047+245287359+244557633+244014350+243340504+242277866+241205206+240383099
3034+239350696+237892255+236587544+235589797+234598908+233499138+232653044
3020+232600404+232921847+232651882+231519247+230070809+228955626+228260727
3007+227775704+227435971+227105688+226693672+226587572+227017744+228002593
2993+230010586+233083598+236461459+239352468+241283014+242315017+242903892
2980+243533347+244203192+244354312+243820744+242836181+241439468+239939018
2966+238702151+237712177+236930364+236186216+235556570+235401183+235313678
2953+234877809+234716401+235270468+236049652+236418173+236028771+235191879
2939+234556785+234048214+233404050+232756877+232132966+231521762+231081340
2926+230950548+230955997+230741016+230259175+229825820+229464863+228824873
2912+228276445+228658778+229918336+231154594+231754824+231963251+232024599
2899+231941189+232104845+232703017+233229002+233334892+233437086+233890521
2885+234358950+234635526+234910102+235230440+235577089+235888816+235999146
2872+235883596+235589263+235217561+234991472+234801696+234386613+233999002
2858+233910830+233903724+233719835+233300008+232640756+231916974+231595512
2845+231814990+232199838+232644318+233231173+233805683+234301470+234873827
2831+235595112+236356768+236986300+237329139+237481249+237607067+237668167
2818+237761902+237963357+238213489+238634536+239166445+239513742+239816534
2804+240434405+241230717+241952555+242602643+243104336+243397011+243705233
2791+244230722+244551575+244241162+243827222+243774144+243717236+243510123
2777+243463731+243450281+243215428+242992788+242727300+242243725+242065247
2764+242327782+242484521+242526093+242613579+242658884+242788456+242907416
2750+242778625+242544440+242309511+242182378+242344757+242462059+242164678
2737+241785298+241656622+241590683+241419273+241297475+241355278+241402298
2723+241294236+241174914+241124941+241087752+241040312+241044790+241134486
2710+241275222+241456329+241505350+241298808+241053134+240815214+240403979
2696+239947058+239760369+239843949+239859972+239636341+239378931+239175952
2683+238834790+238375449+237905725+237352649+236859986+236563672+236269111
2669+235911469+235555694+235199024+234902824+234708666+234548383+234290801
2656+233955659+233800310+233887663+233987762+234034420+234062807+233922319
2642+233604724+233352858+233287681+233337654+233341522+233215284+233110003
2629+233190117+233411461+233705661+234016740+234239933+234505001+234984804
2615+235533727+235999203+236446522+236942538+237347886+237556027+237714501
2602+237987000+238434338+239114262+240066418+241038331+241633721+241842092
2588+241929959+242140902+242547507+243023385+243430657+243676064+243815810
2575+244012883+244204411+244309273+244518996+244880125+245141135+245095125
2561+244793286+244510766+244371858+244298223+244344767+244616237+244919695
2548+244952903+244856843+244943091+245192575+245480068+245732372+245859449
2534+245851771+245819592+245838225+245925444+246057664+246104894+246043337
2521+246079307+246344757+246669173+246848737+246965315+247186355+247496215
2507+247763246+247927264+248035917+248162136+248368601+248645139+248931584
2494+249262249+249671997+250061456+250460002+251036093+251669149+252092273
2480+252323848+252442027+252325830+252002291+251715064+251552933+251463922
2467+251443727+251512181+251620681+251725962+251774011+251653908+251500578
2453+251453673+251458855+251680428+252095721+252334308+252439722+252730682
2440+253116997+253334151+253399422+253402014+253388963+253431163+253475611
2426+253438669+253402585+253521659+253786404+254001481+254058656+254083709
2413+254188056+254306768+254451468+254699009+254968974+255241378+255580730
2399+255897849+256262444+257257829+260050112+266553758+279284018+300470914
2386+330759048+368650694+411386587+456735636+504184012+553972379+606192338
2372+661225079+717376470+768734102+810411167+840265318+857357526+864557157
2359+860920076+835267628+788963089+736004184+688651562+663990117+673447777
2345+710606878+740855175+740744674+726627379+713816740+707406390+708731639
2332+713206470+712059699+704364566+695006357+684238307+670231133+653154167
2318+632045174+609267769+594556246+591223462+587287190+570040395+540886363
2305+510864936+488934083+474318315+461241597+447257895+431805330+414306288
2291+396336360+380132960+366093360+353986420+344402598+337854161+333810741
2278+331027947+328542133+326118924+323940264+322178841+320762296+319545871
2264+318426458+317250557+316008507+314892581+313886851+312816421+311714079
2251+310651537+309635138+308692374+307917134+307362572+306854953+306368730
2237+306064891+305734264+305197439+304769648+304580558+304465371+304411187
2224+304458379+304725962+305169166+305463270+305533953+305564588+305706410
2210+305923869+306118331+306468086+307177711+308046477+308714303+309170119
2197+309702200+310466448+311270075+311878192+312452397+313238992+314122180
2183+314941049+315785124+316743891+317731503+318684326+319648294+320612205
2170+321557598+322551458+323604646+324657835+325648685+326549534+327419748
2156+328391623+329536565+330723116+331831250+332930277+334093814+335329900
2143+336594298+337836938+339150641+340660503+342255832+343703585+344960895
2129+346224721+347712901+349369653+350993445+352670164+354536563+356318562
2116+357902002+359814392+362272085+364706306+366830020+368977396+371413217
2102+374259455+377498199+380930358+384561800+388499710+392738106+397282476
2089+402088429+407167090+412692441+418805200+425541832+432761163+440068704
2075+447180620+454298404+461719533+469179831+476288471+483373905+490699050
2062+497866978+505011778+512670064+520530262+527973643+535122482+542326457
2048+549378436+556124784+562908513+569773707+576422853+582937188+589569835
2035+596180877+602407071+608327635+614250370+619890338+624975362+629897759
2021+634871216+639539614+643782697+648111514+652696159+656948921+660662133
2008+664427472+668353379+671799713+674812349+677737347+680398133+682628347
1994+684004884+684739829+686179085+688293920+689952806+691084412+692011095
1981+692841148+693821863+694850665+695580657+696162654+696718969+696730857
1967+696043694+695767213+696681246+697857585+698516933+698972807+699191446
1954+699333268+700012277+700929740+701663237+702141211+702356345+703407628
1940+706094096+709302281+712190852+714921368+717686787+720702319+724202303
1927+727682092+730513126+733876545+738523986+743363088+749282509+756667324
1913+763058317+767985211+773004925+779050698+785935668+792916126+799883324
1900+806580214+812184060+817500983+823715480+829195335+833041682+837607962
1886+843465502+848619265+851946944+854064675+856288868+858608854+860173166
1873+860062208+857195204+853709624+854249173+857550789+859235814+858582182
1859+857059479+854869426+851657431+848047099+844185206+839819276+834743473
1846+828242817+822835892+821284230+819627631+815641443+811259357+806668844
1832+799965781+792234679+787867606+786126035+783895821+781873959+780108764
1819+777645964+774844652+771716027+767430268+762949798+760563054+759641629
1805+757815391+754210622+750282276+748839362+749494214+748411076+744113809
1792+741166940+743647647+747136352+747793414+746805459+746101530+746035687
1778+746189550+744997664+741134932+737198584+738597221+743943942+748717049
1765+750277094+748836847+748275960+749242653+749901009+751136181+751190746
1751+748266967+746307062+748304614+751344228+753340942+754977498+757364090
1738+758970774+756566273+753799635+758693302+766802699+773262507+777054061
1724+778690389+779177812+776637282+770995866+770465995+778935777+788432075
1711+793847459+794735429+793865520+795002613+795780692+792606495+792201757
1697+799309558+811052987+823092940+829642445+831881270+831524847+827206928
1684+827490268+839989676+851963252+856908588+857850284+861025700+864975003
1670+867238977+874531429+884893216+889913235+892070899+897658969+903671744
1657+903553317+894546501+889062759+899487493+906801740+909762708+919046005
1643+929533153+933750250+932192263+926764152+925346997+934563384+942834036
1630+944120572+942856746+943069899+944847363+948946795+951437182+948616055
1616+948043355+955118234+960746237+961491395+961382951+963157063+966030239
1603+969153986+972103980+974254862+974953075+974389063+974557330+976291204
1589+978412821+981112092+985058424+988501938+989174317+986325145+980314885
1576+977828310+983341696+987080210+986505300+988821704+994380054+998627633
1562+997176642+985492197+976989950+988704802+1002932597+1013713297+1022528147
1549+1028728697+1028887818+1022344105+1014247588+1010753320+1020635837
1537+1036256249+1043766350+1046536951+1052372391+1057243119+1057270249
1526+1054564805+1049474142+1045205986+1047314192+1051754881+1057503444
1514+1065251160+1068546755+1062144102+1048599736+1045144258+1059200967
1503+1070657780+1073741823+1071053831+1068769281+1070916886+1070981586
1491+1065143022+1061638313+1065560334+1069444861+1071167151+1072610065
1479+1071302267+1065694231+1058514109+1051619460+1050184244+1056044222
1468+1059417702+1056471594+1054019998+1052534637+1043878375+1028722600
1456+1022563126+1027098237+1029188686+1025812006+1018421170+1010516543
1445+1004615412+999685623+992912601+981025368+965797959+956724994+952394882
1431+945565238+939530820+937674329+936571148+936375600+938002021+939855693
1418+944827549+952849917+959589712+964761079+969660614+972868647+973329321
1404+975942173+982171072+986531592+989690699+995163010+1002456071+1009829380
1391+1013096473+1011775568+1010610050+1010626282+1010670101+1012150280
1379+1014742861+1017266931+1021121660+1027826019+1034891829+1037921155
1368+1036275225+1032752912+1029935596+1030508143+1033790630+1035882222
1356+1035709307+1034570614+1033995781+1033572219+1030957158+1026822594
1344+1023758136+1019577010+1011870675+1005760659+1004582186+1003742912
1333+1000863029+998540909+999124506+1001678907+1004034406+1005475795+1005490732
1319+1005704418+1008826412+1013308406+1016989306+1019760136+1021681862
1308+1023330612+1024632008+1025603730+1027174901+1028830053+1030152787
1296+1032073446+1033193544+1032166495+1031462566+1033147439+1037892120
1285+1044834170+1050082049+1051954850+1053223477+1055621880+1057340665
1273+1056355683+1053117319+1049090742+1044767717+1039616163+1033304274
1261+1026714684+1021682243+1018630131+1016554314+1014886893+1012323576
1250+1008877624+1006747851+1005486312+1003314016+1000713053+998643789+997509364
1236+997085117+996340035+995611491+996366251+997989929+999159105+999862729
1223+999457152+997829436+997443978+999735310+1001940070+1001391833+1000325004
1209+1001165954+1002540433+1003232855+1003428861+1003406075+1003518328
1198+1003002098+1001314101+999702541+998961118+998024298+996335006+995673982
1184+996034291+994596483+991680630+989354319+986902265+984412108+983797570
1171+984340244+983587161+981210781+978594653+976646940+975665540+976128729
1157+976533391+973807219+968857615+964918219+962160878+959378007+957255856
1144+956426489+955170665+952848012+950729061+948557832+945818171+942769869
1130+938980907+935171978+933329280+932820289+931464938+928926846+925170196
1117+920383371+916403052+914353831+912728248+909521968+905282009+901721441
1103+899077649+896948029+895034762+892773151+890163348+888170368+887680811
1090+888883900+890957583+892663108+893734128+894494299+895090546+896253321
1076+899366323+903907378+906924358+907500334+907471452+908188260+909846079
1063+911620495+913253699+914861144+915368763+915967373+918746967+921598120
1049+922393879+922206789+921553691+921007968+921514139+921680500+920937172
1036+921576096+923408201+922591028+919104304+916865631+915607064+913894528
1022+912329987+909558929+906156567+904567030+903955160+903254584+902685466
1009+901909216+900989010+899726708+897514175+895862300+895955654+895864586
995+894402697+894105640+897980184+905414534+913578876+920127238+923761194
982+925509853+927224979+929466853+931197602+930033380+926080190+922379094
968+920412406+920229508+920819812+919440303+916098145+913987044+913844079
955+913136720+909854843+905926268+905230188+907592469+909146189+908115863
941+905506288+902661765+899876532+896939570+894773142+893147330+890945694
928+888316001+884810911+880754460+877437680+874285888+870106362+865717646
914+862999856+861221935+858538286+855761893+853978408+852415544+850285772
901+847472570+843816056+839593397+835780962+833638692+833680682+834373028
887+834158808+833970500+835347112+838191940+841366365+843933187+846010148
874+848287762+850546173+852714277+856467118+862716364+870025887+878365887
860+889003850+900236918+910259581+920440679+932020872+944892783+959009010
847+973105424+985038534+995667275+1006251664+1014872947+1020757845+1024647554
833+1026599458+1029105772+1034759609+1039751813+1038718362+1033297796
822+1028644945+1027952752+1030326693+1032002268+1032751007+1034948451
810+1036223632+1034849229+1034798856+1036090955+1034095841+1028106538
799+1021041795+1016876824+1016318299+1014139068+1007403846+999251849+992608305
785+988538898+986670518+983344592+975086210+964292479+956151609+952171441
772+949302075+945501148+942566319+939542175+933898169+928659434+926689850
758+926601145+926576529+926246322+926256991+925492706+923155725+921950884
745+922682172+923257615+922857144+921167623+919074354+917501126+914616594
731+910615394+907269121+903177462+897962351+895656159+898011810+898639379
718+893926171+890319345+891386631+894182381+897172231+903405094+913737007
704+922024501+923986464+923679195+925948351+930315348+935037700+940742063
691+946781358+951343675+953346333+951446250+947927062+948594945+953464150
677+955746184+953011248+951734086+955075101+953778201+942516556+937196050
664+938164953+938370484+938181414+938620521+937347932+934193778+933063620
650+934907385+937130359+937262351+934108730+931933081+934423544+936553697
637+936949290+942267890+950207878+952669762+947662851+938292296+933986722
623+936777823+935830944+929907790+926673999+927323592+929858483+933153850
609+936937249+943451775+950511717+955673330+964574218+969935800
##END=
