##TITLE=Sample description
##JCAMP-DX=4.24
##DATA TYPE=INFRARED SPECTRUM
##DATE=13/9/2023
##SAMPLING PROCEDURE=Instrument type and / or accessory
##ORIGIN=Default
##XUNITS=1/CM
##YUNITS=ABSORBANCE
##RESOLUTION=4
##FIRSTX=4397.6552
##LASTX=599.8556
##DELTAX=-1.9287962
##MAXY=1.8362671
##MINY=0.45336127
##XFACTOR=1
##YFACTOR=1.710157e-009
##NPOINTS=1970
##FIRSTY=0.4712421
##XYDATA=(X++(Y..Y))
4398+275554873+275235896+274440578+273298278+272524429+273516930+275660339
4384+276154786+274832259+273839532+274159799+274983296+274922756+274322094
4371+274044104+273691772+273902233+275661420+277027426+276428541+275763836
4357+275491684+274420607+273498928+273364760+273397784+273315286+272790482
4344+272432957+273320061+274418568+274309773+273708275+273388896+272949919
4330+272365342+272133637+271983907+271009565+268971657+266845047+266336380
4317+267502659+268457256+268621764+268536600+268370960+268466719+268719528
4303+268687707+268520899+269048020+270412388+270869681+269882775+268936646
4290+268282833+268095009+268979237+269809757+269646713+269492923+270057773
4276+270102176+268536008+266975119+267238907+268556205+269406818+269039289
4263+267752418+266981445+267481172+268495717+268811262+267918773+266859371
4249+267146493+268435473+268688003+267471099+266523333+266730484+267548700
4236+267952929+267608509+267717913+268707538+269503466+269502194+268695479
4222+267447504+266471506+266345233+267091669+267836711+268055311+268278407
4209+268587416+268453911+267746005+266869200+266736723+267875293+269024372
4195+268508177+266956298+266314126+267131105+268217762+268220132+267303420
4182+266458175+265820115+265391019+265575776+266076130+266520615+267182409
4168+267719168+267681282+267224390+266590513+266439319+266647725+266498396
4155+266190606+265618506+265099209+265814469+267370635+268303797+268123501
4141+267375462+266565750+266042078+266455299+267394457+267644041+267460626
4128+267462822+267272645+267044564+267680794+268930338+269306109+268497477
4114+267808898+267786853+267571076+267186226+267490460+267507992+266517652
4101+266078587+266747405+267214788+266602154+265598814+265144762+265134150
4087+265406912+265800650+266064367+266686272+267836798+268504796+268254863
4074+268163199+268647329+268965540+269094061+268999138+268003083+266927475
4060+267069397+267494800+267392540+267691581+268626103+269281764+268904773
4047+268117071+268375752+269639098+270460015+269763559+268301619+268026191
4033+268824454+268926957+268671256+269420062+270569263+271350639+272081304
4020+272450384+272360584+272533509+272850831+272784888+272785010+273715350
4006+275144528+275726055+275409918+275010865+275100787+275837777+276143772
3993+275425672+274817691+275027002+275774048+276540612+276940833+276976174
3979+276778120+276140165+275090122+274782489+275661437+276250023+275990505
3966+276541239+278592793+280574552+281320274+280884329+279685967+278746200
3952+278508936+278451881+278778910+278987088+278060042+278133792+280615732
3939+282982220+283376079+281675325+279693495+280273228+281861163+281334111
3925+280323765+280810109+280836022+280105270+280874587+283403980+285861696
3912+287130426+286783671+283644136+278002744+273922553+274167624+277687530
3898+283032896+286462846+284773244+281364764+282282818+284139419+283342097
3885+282768743+281911752+281894918+286014092+288043688+285150305+281478264
3871+279353170+281225700+284177619+284206843+285363816+288655590+289214289
3858+284755243+274935774+268666969+278085241+289703333+294800962+293921369
3844+289969299+285893970+282601743+281825508+284926738+288578007+291352505
3831+294156245+295609350+295131615+292620504+286471647+283142667+286848411
3817+290282125+294573683+300329744+302380513+299498910+296285016+295839207
3804+293145360+290924837+294953585+299163203+303021884+307962167+310905077
3790+311757380+311460673+310414899+310529288+311283514+311296410+313025587
3777+316684210+318550918+316945540+314576142+315655618+319297999+323216035
3763+325488611+324699915+324981077+328743178+330571374+327737172+327512996
3750+338424106+351393966+365292144+390726875+418742006+437998429+447192943
3736+449249533+453433325+462472394+470939136+474846436+475210305+476010711
3723+480161463+488110389+498727162+509499033+516859078+521583550+531243251
3709+548131600+566822388+583933241+599962909+617832135+637254285+654184981
3696+664433947+664752995+657406473+651957575+654678086+659099717+658116993
3682+650847915+641090799+631065730+620220911+615085066+613902702+610345712
3669+609986723+611019845+606987456+599963397+593405675+586408942+577536960
3655+569246088+559424214+544309516+532513445+533406004+537911074+538005248
3642+533714351+527460167+521025269+515262726+508839016+498900523+486047247
3628+480584826+483024210+483221235+478124879+469411201+463291969+461742879
3615+460469129+457852970+453268713+447982475+446447222+447843655+447261151
3601+443819386+439550761+435555804+432803054+431557501+429282102+424249597
3588+420980217+422727379+424222237+422992577+420901762+419196668+417814141
3574+416193253+413088798+407279587+400729533+399092752+401560994+402476974
3561+402137677+402651066+402309573+399244886+395129093+392483831+390440695
3547+388377483+388442275+390352097+391250023+390097947+387913829+385970269
3534+384915851+383754365+381243288+378880965+377903050+377161929+376397631
3520+376011840+375590254+374846798+373633833+371565741+369173549+367658789
3507+366583285+365215781+364866167+365881653+366346492+365536954+364010832
3493+362212331+360645291+359353976+358070119+356700209+355455179+355046907
3480+355282237+354910247+353576515+351981140+350803411+350021826+349302174
3466+348818794+348488872+347660165+346547752+345709529+344750749+343528897
3453+342483053+341072783+338765285+336883449+336561544+337080963+337534161
3439+337435247+336731315+335989845+335286017+334101179+332945791+332750195
3426+332838374+331886111+330294430+329581645+329668499+329371375+328714390
3412+328168412+327553530+326811991+326205508+325810098+325564173+325160606
3399+324307466+323657208+323709384+323819903+323628768+323502913+323581542
3385+323481757+322825294+321822704+321098417+320828548+320519015+320002942
3372+319875031+320045882+319297651+317797494+317052470+317195438+317514137
3358+317681712+317458302+316759597+315909943+315199319+314202688+312841353
3345+312172866+312379407+312163142+311256189+310672012+310225541+309120900
3331+307948086+307149701+306142406+305094471+304437346+303829749+303033176
3318+302078335+301042180+299812834+298355965+297298585+296854415+296606468
3304+296041531+294417192+292102618+290498773+290046673+290247568+290658715
3291+291148979+291341108+290809891+290296798+290569769+290789363+290442136
3277+290506685+291222816+292082316+293204122+294045307+293659829+292966214
3264+293381073+294087236+293758708+292978412+292912365+293554782+294016030
3250+293807712+293190564+292776577+292992179+293467823+293899585+294401508
3237+294686957+294778482+295084807+295272388+295014473+294708392+294626591
3223+294810547+295504406+296606887+297265231+297365887+297563854+297691661
3210+297845713+298624441+299745184+300540606+300777992+300707519+300821210
3196+301693275+303149865+304020954+303879380+303654576+304172775+305043027
3183+305404596+305497062+305984938+306397148+306642690+307499942+308454366
3169+308984763+309658548+310313895+310549189+310815643+311644594+312831733
3156+313716310+313950106+313777129+313674277+313769392+313896990+314129078
3142+314777036+315349815+314903798+314134167+314146749+314273824+313936653
3129+313551419+313075915+312625541+312632930+312877949+313094388+313062776
3115+312137420+310529323+309769102+310221917+310560761+310106413+309125431
3102+308193454+307799123+307621232+307266948+307102022+307479936+307989109
3088+308276858+308623787+309003166+309147249+309394220+309940685+310334075
3075+310458431+310447975+310368719+310568742+310949863+311219907+311663868
3061+312167533+312248184+312144739+312377629+312838041+313116415+313089334
3047+312813400+312380348+311914777+311560040+311327046+311003537+310438948
3034+309673953+309000587+308750061+308726744+308535748+308151351+307827285
3020+307831223+308087987+308264624+308268040+308301534+308337328+308023997
3007+307675080+308005141+308769161+309607034+310844536+312453993+314301323
2993+316733074+319872940+323502006+327306838+330749858+333346535+335163159
2980+336573847+337741120+338721265+339421189+339739609+339946568+340146417
2966+340068694+339568305+338862630+338514585+338839104+339341793+339306348
2953+338883472+338659714+338543862+338337077+338232343+338149949+337710867
2939+336798965+335642183+334384815+333101899+331900575+330612153+329306687
2926+328489586+328128784+327754878+327266792+326778776+326233949+325482198
2912+324604033+323857231+323329099+323179509+323536581+323855802+323622181
2899+323210458+323036471+322934176+322841641+323112067+323839909+324497731
2885+324708663+324795064+324919282+324863865+324763557+324700507+324545933
2872+324369645+324108349+323786584+323595587+323350081+322854955+322154926
2858+321267595+320270337+319249135+318194474+317014724+315668758+314574190
2845+314183867+314219662+314232453+314277065+314570251+315013586+315303949
2831+315444826+315698279+315964733+315956542+315752476+315626342+315735293
2818+315969403+316164024+316380323+316670338+316962932+317114195+317250785
2804+317799551+318639341+319312916+319826550+320290203+320672300+321006021
2791+321179346+321078272+320874240+320759922+320796587+320827467+320800561
2777+320950221+321031324+320650064+320155739+319944075+319790198+319552533
2764+319511232+319649251+319658208+319638446+319802083+319798493+319407090
2750+319235089+319538975+319624017+319209576+318797959+318591592+318481142
2737+318569042+318883349+319186747+319300927+319306573+319304552+319353277
2723+319472510+319569890+319691040+319744888+319457349+319062495+319103831
2710+319639109+320155914+320308327+320229594+320103181+320079480+320282048
2696+320551115+320556796+320315786+320161874+320220706+320337430+320411598
2683+320550209+320606149+320129495+319274369+318653387+318381984+318252818
2669+318148049+317995287+317846916+317718412+317460951+317091296+316842235
2656+316727009+316495758+316202188+316102961+316053155+315849264+315638575
2642+315531924+315508677+315554230+315540393+315499998+315645999+315875787
2629+316058802+316234079+316228015+316012028+315963304+316287405+316759493
2615+317075787+317225412+317419510+317705168+318052446+318558342+319061589
2602+319258476+319303332+319521514+319946898+320479736+321030279+321516936
2588+321886904+322182390+322505864+322795216+322960316+323073485+323145422
2575+323171457+323165219+323055814+322930063+322927798+322956796+322941216
2561+322964359+323011237+322969343+322831882+322686543+322594147+322575048
2548+322679573+322829651+322888971+322933096+323037133+323140996+323161699
2534+323212584+323503435+323859079+324064643+324230476+324403906+324526171
2521+324639863+324893595+325390185+325932049+326239002+326378346+326588337
2507+326934396+327247832+327477201+327827895+328237631+328522104+328742203
2494+328981192+329279432+329588581+329851723+330089318+330315516+330636689
2480+331077270+331330096+331173849+330895963+330913634+331155133+331128888
2467+330782899+330608528+330747628+331009027+331223759+331198525+331015650
2453+330999931+331253698+331552635+331645414+331646634+331890468+332294941
2440+332525182+332695858+333021563+333303874+333334127+333247273+333290839
2426+333445309+333554505+333639442+333795864+334049910+334327237+334562637
2413+334783154+335013743+335284344+335586732+335866081+336092663+336311507
2399+336638431+336963717+337128677+337366516+337837803+338234678+338209305
2386+337688526+336543630+334356723+331005228+326891840+322234182+317118099
2372+312036694+307309922+302809418+298794281+295980224+294512760+294152934
2359+295431493+298872352+303993977+310419256+316911418+320276680+318756309
2345+314521596+311832976+311616956+312360516+313479656+314882502+316202328
2332+317410901+319541519+322660612+325347803+327357132+329687459+332751449
2318+336213882+339366713+341765423+343998510+346641228+349286630+351562307
2305+353619838+355532658+357250648+358799111+360260789+361706644+363055293
2291+364308828+365733422+367366370+368870465+369955135+370640386+371209645
2278+371877121+372603847+373284324+374037120+375078503+376248319+377240837
2264+378028209+378697044+379387697+380158199+380869730+381524728+382182585
2251+382771048+383381713+384107463+384774939+385319766+385897739+386472575
2237+386847422+387060097+387384303+387925435+388400172+388721834+389166039
2224+389645377+390004331+390417343+390816379+391051917+391397035+392087096
2210+392866729+393414170+393757127+394059758+394332207+394566735+394934333
2197+395590133+396481576+397410870+398215145+398862476+399383707+399892426
2183+400550980+401347483+402123631+402860047+403601412+404364978+405249590
2170+406249183+407272198+408297722+409264971+410070815+410790745+411701985
2156+412826736+413945388+415066341+416300985+417553160+418710847+419898126
2143+421196760+422509476+423787686+425122324+426644508+428241208+429677130
2129+430957711+432255056+433630158+435015020+436463594+438105847+439951470
2116+441862128+443735738+445684317+447827552+450106367+452251135+454062218
2102+455710292+457534445+459682699+461928542+464222588+466848053+469722825
2089+472660471+475798002+479175567+482527027+485736948+489125457+492855947
2075+496741952+500761376+504982984+509364046+513869047+518551450+523500621
2062+528552645+533580131+538867240+544545716+550364199+556081258+561809366
2048+567916295+574256531+580293161+586153676+592331078+598679052+604845649
2035+611177242+618210084+625358012+631622895+637366443+643209253+649024529
2021+654776721+660267861+665566889+671438140+677826125+683640774+688276962
2008+692397670+696740672+701243163+706006775+710965217+715201428+717969967
1994+719545825+721567317+725392050+729812148+733199263+735495539+737148353
1981+738813993+740890554+742967672+744702670+746041038+746898429+747214409
1967+747548513+748949129+750750139+751496836+751672497+752087879+752437388
1954+752407763+752173479+752299090+752838131+753007449+752514623+752653409
1940+754532909+756743167+758105444+759457125+761017647+762177775+763313087
1927+764633400+765643728+767210664+770105162+773316825+777067460+781778374
1913+786175817+789676903+792902089+797331737+803442708+809656776+815296530
1900+820463883+824321030+827723899+832495806+837304936+841077808+845835634
1886+852101006+858610002+864281334+868383848+871722238+874800135+877070201
1873+878223985+877483004+876380872+879372402+885364315+889512905+890347990
1859+889770471+890048879+890863750+890567497+889174409+887169368+884155950
1846+879255086+874341953+873340269+873866345+872546868+870609302+868688118
1832+864159626+857511077+853583248+852191903+851428755+851765438+850747024
1819+847376220+844107886+841582972+838369635+834617746+832298048+831299013
1805+829613437+826458166+823254309+822016668+821842680+819790935+815094033
1792+812615125+816307486+820721798+821753735+820709181+819011336+817820817
1778+818156594+817451372+812895625+807919547+809463131+815299249+819786404
1765+820791086+819215437+819402600+821636418+822737435+823587368+823338376
1751+820232387+818366689+820669448+823651428+825242900+825967919+827069354
1738+828023568+825238648+821877743+826743754+834984402+841354543+845259160
1724+847081222+847011655+842801304+835804362+835607301+843932782+852836550
1711+859393435+861217658+858193505+855951949+854992646+851381494+850492525
1697+856296718+866480927+877900477+884611065+886800689+885854701+880072884
1684+877714987+888502856+901004671+907325947+908233737+909614277+911638209
1670+912396129+919260211+930145808+935313788+936928403+942225201+948146013
1657+946928796+936466806+931612296+942727646+948123567+948224921+956764541
1643+969209406+975453796+973307877+965119090+962407293+973480541+983865017
1630+985344331+983204755+982751383+982644732+984648868+988143819+987722512
1616+987055698+992970027+999571803+1001969921+1002491396+1004735671+1007578795
1603+1008982826+1010583221+1013582279+1015995314+1016663522+1016612636
1591+1017178096+1019458548+1022491623+1024864437+1027321387+1029346365
1580+1028543344+1024051309+1021654238+1025742532+1027359029+1024788875
1568+1026055445+1028668607+1026892691+1020113094+1005776042+998708068
1557+1014914094+1031006637+1039773292+1045667197+1050565204+1050943223
1545+1045324519+1037452619+1030883466+1035302169+1047059378+1052712238
1533+1055013811+1059621280+1061879845+1059664499+1056525191+1052472726
1522+1047988428+1047006471+1047632576+1051383420+1059485980+1063415482
1510+1055188008+1038269720+1037257440+1058584046+1072156067+1072018048
1499+1066006617+1063560123+1065807047+1065638287+1061621652+1060058271
1487+1064367117+1068714650+1070097978+1070989247+1070340836+1063895831
1476+1053420736+1045028615+1044203916+1048076537+1048085530+1043531107
1464+1041421854+1041786629+1036584283+1023462567+1013148355+1013251661
1452+1015375482+1014705811+1012191144+1010606712+1009826765+1005910785
1441+996149138+981388898+964741908+954893476+951856985+947818322+942276157
1427+937999376+935632905+935937384+937294363+938593764+945495767+958064570
1414+968391399+973280343+975363665+976307911+977336990+981949060+988057662
1400+991157934+992734837+995588278+1001305129+1009420793+1015118962+1014466229
1387+1010034839+1008835815+1011571940+1014385578+1015558880+1015904765
1375+1017006130+1020440227+1024696653+1027253075+1029541892+1030670930
1364+1029212737+1030046359+1032085766+1030421241+1027821532+1026470130
1352+1025189688+1024006279+1023000552+1020978153+1017331869+1012400543
1341+1007104511+1004011001+1004084123+1004600998+1003441358+1002130664
1329+1003356664+1005888200+1007037175+1007296483+1006567143+1004111866
1317+1003959557+1009725969+1017284120+1019874139+1017954349+1017959228
1306+1022324328+1027609833+1031432127+1033790720+1035051922+1035821135
1294+1035665620+1036037853+1039861750+1045233901+1049400754+1053577088
1283+1057231598+1058813868+1061012973+1065960750+1071229805+1073741823
1271+1072808521+1070772042+1069840761+1067880053+1062522192+1057237453
1260+1056795234+1059433630+1059977760+1056965876+1051412000+1044517247
1248+1038866688+1036514228+1036065178+1035365393+1034410273+1033655002
1236+1033206509+1032545411+1030835577+1028483815+1026393731+1025211507
1225+1025205303+1025676032+1025491030+1023793465+1021003038+1018753605
1213+1017415935+1016274768+1016402819+1018971578+1022178153+1024386320
1202+1025775921+1025706215+1024996741+1025699174+1026467690+1024892878
1190+1022057003+1020401191+1018760297+1015253635+1012164307+1011150215
1178+1011291231+1012003424+1011502094+1008315455+1005219365+1004516653
1167+1003902955+1001975776+999903816+998385884+997561673+996409283+994993681
1153+994621099+993991857+991243603+987253735+984809054+985116948+985133468
1140+982441259+979960330+979510373+979206104+978194033+975614400+972257607
1126+970380268+968517568+966247989+964907600+962930720+959116443+954854300
1113+951865210+948749951+943961105+940047287+936875426+931405477+927412053
1099+930372634+935230280+933678192+928563398+926743079+928042689+929043816
1086+928401678+925752757+922630945+922599926+925511711+927169335+926341847
1072+926820453+929788631+931181509+930488416+930374725+931381289+934852609
1059+940400421+944672392+945854547+943312067+939757935+939942309+942718166
1045+943439700+942354925+942723952+943883940+943100507+942628105+946461970
1032+951067348+949557015+943597725+939905504+939676936+938883116+937149582
1018+938677203+942501170+943328727+940214374+935929298+933285325+933020928
1005+933475485+933827573+934890530+936577918+937932876+938642141+937977279
991+935250634+933268596+935444419+940220508+944833832+948528423+950389312
978+952262887+956292767+959894160+961130198+960310239+957710948+955132081
964+954042776+954421004+955956502+958057599+959557407+958362496+955453220
951+955053452+956273528+955364902+953183851+951783793+951974441+953523043
937+953885727+951578716+948597294+946830161+945563103+943986130+942501170
924+940909767+938711917+935535455+931622473+929220662+930129148+932267748
910+931957762+929644129+928335736+927475974+925045095+922345148+921430318
897+921933321+923012589+924148249+923910619+922667890+923101116+925538339
883+927961899+929793023+931990873+935161967+938531168+940506026+941840769
870+945235970+950284473+954276990+956531582+958594340+962395861+967589842
856+972665879+977725535+982397901+986114589+990397992+996784932+1004301398
843+1010906660+1015996150+1020426913+1025686627+1030908700+1034342379
831+1037512636+1040250225+1041880454+1045664827+1050145988+1049186267
820+1046071008+1048061899+1049929270+1044562347+1037269500+1034551708
808+1037940705+1045052245+1050613998+1051751123+1047887911+1040794285
797+1034536721+1031818789+1033575606+1036529145+1036024888+1031091470
785+1021512315+1010966189+1005102746+1002497251+998839744+994499461+991361059
772+988594612+985076169+981051587+978224356+977646418+976729079+973766059
758+970479252+969546925+971835673+973618560+971162377+965906496+961450221
745+958782060+957222444+956787265+957234921+958561439+960757407+962937342
731+961817505+954007853+944482720+940113996+938861507+936332342+933667945
718+932236937+930412994+928633662+929356032+933633301+940712358+948174453
704+954086830+959038372+962419701+962152376+959208804+956499795+956843170
691+960603983+964005597+962772626+958053626+956313679+959178621+962982094
677+966156883+966808012+964740862+963356419+963161170+962325248+962801554
664+965666427+968354036+969133844+967933705+964051045+960714955+962317999
650+968960065+978350037+990593728+1010302931+1022009114+1001335312+969396011
637+952438059+954607678+965145579+964738422+956025093+952305408+966366072
623+1011176006+1060359683+1058171801+1027463589+1006442159+984139730+968055622
609+966660722+963399009+967050661+978154579+970656934+954773789
##END=
