##TITLE=Sample description
##JCAMP-DX=4.24
##DATA TYPE=INFRARED SPECTRUM
##DATE=13/9/2023
##SAMPLING PROCEDURE=Instrument type and / or accessory
##ORIGIN=Default
##XUNITS=1/CM
##YUNITS=ABSORBANCE
##RESOLUTION=4
##FIRSTX=4397.6552
##LASTX=599.8556
##DELTAX=-1.9287962
##MAXY=1.6775924
##MINY=0.27272317
##XFACTOR=1
##YFACTOR=1.5623797e-009
##NPOINTS=1970
##FIRSTY=0.30387059
##XYDATA=(X++(Y..Y))
4398+194492155+193472446+193253694+194494634+195890845+196449474+196455807
4384+196016530+194981313+193598588+192522475+192348225+192857679+193250337
4371+193145386+193280361+194166335+195063125+195577348+195592169+195031423
4357+194551497+194151571+193546800+192803945+191834784+191465131+191805428
4344+191801727+191910302+192311983+191966898+191340934+191370557+191438331
4330+190873502+189878457+188984814+188801886+189172378+189946803+191605618
4317+193027312+192534492+191053913+190210056+190088167+190800788+191982730
4303+192024447+191209412+191520982+192792633+193253618+192838432+192381091
4290+191789939+191542995+192124686+192756582+192774512+191801232+190127290
4276+189057337+188950212+189021896+188763526+188225097+188058268+188440701
4263+188797594+189573010+191281878+192773406+192724555+191534983+190821694
4249+191465684+192525584+192056092+190181863+189127571+189372704+189750750
4236+189546209+189085511+189198778+189652495+189749701+189687211+189840994
4222+189604808+188502256+187564493+187713144+188798051+190224248+191132235
4209+190725499+188891233+187030070+186757356+187468184+187977485+188496076
4195+188802725+188593015+188349981+187721461+186742496+186449009+186947228
4182+187617274+188109942+188386891+188489495+188572452+188693254+188868190
4168+189367668+189973908+189973145+189353934+188887246+188591317+188018096
4155+187696873+187963408+188456877+188904909+189048220+189084595+189435479
4141+189732381+189315898+188298860+187463014+187241115+187279857+187367430
4128+187453057+187401193+187621890+188046994+188137390+187996159+187607259
4114+187193352+187319857+187567202+187495060+187471999+187727737+188275894
4101+188620082+188370315+188373729+188698537+188300958+187363138+186846588
4087+186982936+187473582+188044514+188233376+187785915+187097100+186755543
4074+187039493+187178798+186740684+186665452+186870260+186639282+186647293
4060+187421679+188224010+188180843+187220610+186172689+185726392+185819364
4047+186388427+187270033+187843770+187793793+187261564+186703412+186893417
4033+187771590+188279041+188060003+187591084+187258664+187258855+187561670
4020+187975692+188262102+188422542+188610812+188663420+188539891+188559615
4006+188655066+188270228+187650636+187584579+187761194+187774089+188009035
3993+188584660+189201887+189456157+189272617+189258483+189825028+190300452
3979+190066422+189614231+189315345+189268459+189831227+190624154+191216184
3966+191667840+191536395+191036383+191164986+191893898+192054471+190845843
3952+189238797+188607455+189061343+189256385+188734990+189421535+191074037
3939+191498626+190738718+189265846+187844266+188485547+190543715+190821923
3925+189423462+189153418+189311206+188426433+188775867+191610635+193908766
3912+194049310+192839882+189692514+184546454+181086600+181935474+185479467
3898+189847422+192149903+190334425+187923045+189389165+190828638+189655204
3885+188915229+188232326+188059240+190446261+190811394+187852544+184871014
3871+183159228+184440149+186292899+185935854+187157071+190855629+192309961
3858+188634560+179934378+174556270+182183544+191521097+195371167+193782089
3844+189784742+186233424+183595243+183655768+186671766+188922229+190448436
3831+192996735+194938432+195124051+193138825+187997895+185346171+188126041
3817+190509323+193749261+197822108+198385429+194656867+190833597+190113270
3804+188807570+188569705+192071600+194239717+196136091+199808287+202242404
3790+202605038+202064225+201411499+201675115+201849975+201068570+201862965
3777+204497789+205787809+204364455+202697819+203818339+206295603+208699868
3763+209681923+207838157+207369409+210939745+213619413+213275969+218357251
3750+238895045+263290807+285820656+308938892+320794091+318072724+306388265
3736+294328372+291671803+297670877+304358632+307761356+310069636+315023268
3723+323173920+333588312+344647322+354074318+360114975+364890046+376417042
3709+396795313+420909604+446421060+470641217+487567836+494760163+494671006
3696+489727808+480935894+468627817+458060368+454930740+454587506+451093165
3682+444080257+435424615+425015374+414010193+409410038+407318622+402230988
3669+400100506+400222777+397505206+392760349+387328031+380425949+372454220
3655+366355461+359429154+347489529+338168209+340621667+346200253+347472323
3642+345047210+341299744+336808508+331181625+324764543+317453036+308818414
3628+305460459+307916531+307453277+301876466+294718703+291398364+290845190
3615+288628013+285436219+282483035+279874745+279282086+279204241+276689837
3601+272997517+270328512+267896207+265427965+263857505+261372095+256072043
3588+252052415+253121986+255163331+255296474+253982610+252175067+250655766
3574+249198917+246257864+240625144+234538955+233176641+235466875+236617667
3561+236492421+236512145+236061537+233893077+231213771+229906449+228761895
3547+227195250+226801562+227370034+227422471+226472175+225142918+224349305
3534+223690856+221892603+219271380+217564591+217197703+217292792+217412316
3520+217415825+217356617+217320279+216417671+214401811+213013593+212995090
3507+212611989+211137361+210276890+210511607+210538655+210267143+210142392
3493+210014953+209701952+209153165+208507096+207892158+207316152+206992793
3480+206990580+206961434+206795234+206679926+206633421+206502357+206322823
3466+206127629+205623001+205072937+205123543+205493597+205593569+205457793
3453+205187520+204520335+203586540+203170897+203392491+203646092+203794743
3439+203897138+203978874+204073810+203981659+203672148+203375590+203338108
3426+203343220+202862569+202469263+203073615+204068602+204522186+204567431
3412+204489949+204247735+204103757+204418132+205094434+205673207+205664890
3399+205166805+204797895+204635510+204678505+205301627+206100047+206572190
3385+206951229+207346557+207705948+208077261+208471083+208772219+208953908
3372+209301301+209813616+209991662+209789639+209805281+210224853+210764636
3358+211186574+211355083+211556343+211999988+212254181+212077222+211818966
3345+211705184+211572194+211328511+211018753+210777722+210802290+210944666
3331+210893259+210437692+209498422+208578418+208165197+207884223+207387034
3318+206678896+205602629+204364321+203371680+202658124+202274050+201880762
3304+200517990+198267412+196541987+195977941+196027440+196231390+196560147
3291+197009858+197215429+197042877+196982752+197312120+197696995+197708078
3277+197435001+197156449+196985442+197108895+197552788+198150025+198756532
3264+199386235+199858683+199695745+199277908+199337804+199862842+200717629
3250+201471452+201531900+201276029+201529707+202279887+202746288+202625258
3237+202548996+203029151+203722468+204020076+204001497+204265055+204987386
3223+205991243+207141520+208021391+208287258+208284930+208362871+208707136
3210+209645738+210920975+212007313+212991905+214051919+215090264+216108867
3196+217288004+218628497+219774901+220570270+221340822+222089094+222580217
3183+223032580+223672525+224678519+225984658+226937852+227364635+227740393
3169+228348541+229351139+230594331+231521793+232239164+233184233+234202511
3156+235254094+236232449+236799738+237122715+237329125+237534276+238032934
3142+238538935+238896361+239417890+239841373+239804615+239436488+239023000
3129+238992309+239291328+239431986+239513398+239589889+239126920+238079305
3115+237074741+236547224+236483170+236467280+235884464+234497181+232674836
3102+231258139+230846578+230986760+230987217+231004061+231356623+231737645
3088+231930264+232148272+232355464+232487787+232712204+232994761+233292655
3075+233737616+234296798+234669008+234703686+234693653+234963411+235322421
3061+235334705+235130469+235076621+235122191+235172167+235107427+234775771
3047+234326918+233923998+233457615+232703925+231671131+230752347+230039555
3034+228933493+227340658+226048311+225221774+224242122+223037024+222286386
3020+222222676+222107139+221422787+220497480+219720233+219103959+218431338
3007+217700347+217138399+216633867+216149191+216261905+217271294+218881850
2993+221116157+223992241+226967991+229610769+231648222+232913445+233577882
2980+233814774+233913125+234172888+234236636+233448383+231895147+230338097
2966+229159570+228265469+227618428+227073075+226471699+226029846+225831200
2953+225587098+225315184+225351140+225784695+226247129+226165011+225443234
2939+224651261+224154492+223631037+222892092+222332700+222172814+222198127
2926+222259491+222151660+221627938+220756098+219798058+219308538+219474318
2912+219674262+219759470+219992089+220290593+220653456+221159839+221721806
2899+222259624+222727132+222951759+222909622+222989108+223537780+224384727
2885+225076614+225481727+225815253+226220901+226489171+226429963+226358889
2872+226353663+226087930+225724914+225519191+225284531+224943680+224718634
2858+224724089+224695191+224269400+223631686+223221441+222911454+222528448
2845+222373196+222624604+223257721+224150544+225064692+225838982+226361541
2831+226718757+227098635+227525208+228046336+228497936+228574941+228503868
2818+228713788+229076098+229243042+229408097+229801118+230139717+230469485
2804+231121829+231954947+232789076+233563004+234109425+234481349+234946606
2791+235474562+235656518+235491463+235350003+235161352+234824431+234534663
2777+234343112+234193336+234102100+234094547+234042148+233789881+233541964
2764+233640773+233960412+234051475+233817311+233615594+233696204+233862404
2750+233839858+233668832+233542136+233512970+233498855+233418416+233236269
2737+233070298+233111691+233254695+233211300+232936888+232621655+232484258
2723+232547034+232608531+232601703+232587568+232475350+232274681+232232373
2710+232272278+232108596+231989473+232085000+232052000+231889482+231774441
2696+231604731+231396318+231328449+231394258+231429318+231420944+231259932
2683+230736782+230069846+229529261+229125578+228883784+228633521+228136275
2669+227583482+227271416+227135202+226947581+226575600+226065154+225637970
2656+225406553+225252675+225130729+225089775+225074821+225032894+224949078
2642+224790871+224676230+224791596+224966055+224921401+224850900+225003709
2629+225283405+225553220+225717647+225737942+225809893+226220462+226853541
2615+227265961+227413963+227684789+228231459+228803745+229259789+229761556
2602+230380615+230941647+231346342+231817207+232487672+233128744+233600620
2588+233959267+234232726+234478258+234758851+235060922+235369440+235698502
2575+236105047+236565612+236871746+236984708+237118633+237321800+237393160
2561+237245710+237029572+236801626+236637162+236765250+237066520+237183278
2548+237146654+237212062+237400446+237602545+237748621+237840086+237913868
2534+237928651+237916138+237935575+237971798+238046381+238067192+238019638
2521+238134832+238445124+238686613+238687033+238601234+238672307+238913357
2507+239164517+239353970+239603394+239954983+240268614+240456082+240562483
2494+240728892+241014368+241392720+241882126+242342481+242709960+243241541
2480+243820428+243927991+243608543+243356735+243269200+243204497+243189810
2467+243216839+243209304+243163353+243143210+243175618+243144850+243045851
2453+243040434+243182790+243424489+243637537+243774591+244007610+244378618
2440+244782378+245185107+245430106+245408303+245272108+245091869+244949074
2426+245016332+245201416+245332461+245412729+245541866+245760942+245917643
2413+245922545+245941143+246115736+246365542+246558866+246747041+247084477
2399+247486329+247668647+247636372+247668437+247899893+248197787+248312026
2386+248014266+247008272+245052994+242209033+238726041+234964098+231211234
2372+227339552+223171884+219000153+215183979+212111481+210521469+210604807
2359+211928590+214696939+219357656+225857638+232384248+235570128+234150608
2345+230341358+227690436+227171616+228055855+229740879+231602633+233330785
2332+234992958+237000864+239468706+241821029+243906036+246369643+249393843
2318+252441125+255082758+257305658+259477647+261887272+264349219+266588886
2305+268571289+270321778+271858075+273272597+274695894+276197360+277688411
2291+279034397+280216797+281293235+282297874+283155847+283869498+284595167
2278+285345442+286017529+286595672+287169923+287821485+288439266+288922778
2264+289394864+289888963+290289575+290619610+290979363+291458202+292012368
2251+292391921+292545493+292719858+293071371+293460366+293749104+294033035
2237+294254571+294286121+294370032+294695031+294986000+295032753+295026497
2224+295180832+295490094+295748884+295869419+295998556+296154532+296392397
2210+296910339+297603828+298213140+298731559+299185371+299556264+300020740
2197+300708182+301498839+302253692+302972513+303727366+304504727+305245999
2183+306010924+306896155+307846869+308759091+309660745+310613882+311618808
2170+312690477+313756901+314659757+315522727+316546689+317664253+318781034
2156+319823729+320780967+321724758+322720737+323907963+325273653+326589901
2143+327743593+328832048+330039798+331433490+332888986+334247390+335443237
2129+336603986+337977268+339547175+341081145+342529659+343965736+345447440
2116+347094868+349014762+351038691+352918757+354814045+356943306+359168704
2102+361396964+363772483+366364693+369053537+371793540+374828594+378333579
2089+382069905+385760871+389387744+393135592+397222706+401681591+406440983
2075+411388531+416644749+422450555+428333805+433823959+439526264+445976651
2062+452788089+459615092+466534608+473589061+480690171+487860637+495291858
2048+502857367+510233232+517442574+524719402+532145053+539496312+546752158
2035+554122606+561458910+568480440+575196426+581790486+588237439+594454768
2021+600377961+605783918+610963951+616543070+622159691+627000533+631270309
2008+635611349+639886390+643394046+646208746+649391898+652836606+655407147
1994+657165629+658812713+660699684+662945722+665122861+666547150+667439476
1981+668320434+668900313+669208335+669617226+669942721+669907776+669278073
1967+668518661+668557269+668937700+668952120+668892683+668798224+668529572
1954+668354235+668546205+669061992+669435709+669258083+668879407+669611275
1940+671961767+674690325+676929343+678758173+680781263+683519053+686875177
1927+690627145+694544606+698687458+703073172+707697093+713582022+721042008
1913+728630102+735306870+741505544+748182236+755378225+762386211+769069694
1900+775894636+782485720+788543163+794307386+799165090+803885989+810233218
1886+816512617+820395820+823015499+825969980+828862659+831082831+832375426
1873+832240681+830201492+827897466+828541666+830606568+830999436+829963131
1859+828036256+825031645+821353002+817339326+812970932+808022507+802115299
1846+794969592+788858358+786592100+785141793+781847091+778137775+774472179
1832+768537579+760998012+756324343+753786000+751040122+749488947+748287911
1819+745789855+742815688+739916066+736552617+733646968+732722519+732642481
1805+731456934+728700755+725501046+723863805+723780561+722825746+719847611
1792+718228147+720775798+723810471+724981292+725297860+725259481+725054616
1778+725054234+723944377+720449311+717274552+719314428+724618639+728832067
1765+730028678+728985964+729360825+731352861+732970112+734756367+734929034
1751+732102583+730696682+733791556+737816600+739598659+739222119+739381891
1738+740977091+740809766+740498844+745124139+751579867+757429088+761614972
1724+764012694+765353053+763764262+759358558+759767296+767911768+776235086
1711+781255157+783239944+783600613+784883442+785874577+784251832+785035050
1697+791415699+801585931+812084939+817926300+820516832+821420603+818761173
1684+818906601+829282690+840583532+847281436+850583387+853190704+854371902
1670+856052711+864800409+875754698+881303297+884373068+889585948+894490577
1657+894719476+888618924+886841138+897077217+901403112+900071069+905635844
1643+915856434+922101193+922015814+916870611+915532313+925119233+934128334
1630+936019501+934877140+934908576+936094733+939074317+940719112+938531139
1616+940058051+948569525+954372737+954741646+954086841+955730416+958529398
1603+961006548+963122647+963872980+962830419+962135557+963622640+966567127
1589+969567770+971783669+973340643+975948647+980128046+982716365+980885704
1576+978633257+980841831+982130688+980353970+981144513+985632697+989572362
1562+989048182+982076515+980147961+992468016+1003876213+1010894576+1016356651
1549+1022312463+1026438681+1025999423+1021569379+1017315053+1024767943
1537+1037850158+1043586074+1045582229+1050180896+1053793464+1053982611
1526+1053414406+1049901791+1042931116+1042948360+1050756426+1059152458
1514+1064420579+1063837191+1056686982+1045534695+1043431566+1056226055
1503+1066060644+1067614642+1064747524+1064441485+1068103724+1068434560
1491+1063147059+1060179530+1065299477+1071925277+1073741823+1071233161
1479+1068062370+1064608658+1059780405+1055015482+1054079359+1055996621
1468+1054623377+1049716612+1046459067+1043329248+1033768499+1019387509
1456+1015863678+1023418123+1025669655+1019453432+1011142474+1006867777
1445+1004090082+998675846+990340854+979300270+967655620+959508020+952270600
1431+943923858+939606127+939912471+938879371+936079091+933544030+932639190
1418+938457509+949226161+959481086+968458599+974631941+975300938+972835920
1404+974137366+979394195+983777619+987731629+992968162+999725274+1006691371
1391+1009794943+1008275508+1006437293+1008218589+1011691833+1014192178
1379+1017249664+1021343302+1024860571+1028438117+1031360172+1032241511
1368+1032294845+1030976460+1027702587+1026297984+1027840079+1028557984
1356+1028268350+1029235374+1030058573+1028528838+1025424046+1021126229
1344+1015304171+1008546067+1002252400+998484105+996148262+993082612+991376548
1331+992584297+995143775+998054079+1000737315+1002166334+1001809556+1001508096
1317+1004501566+1009787160+1014187600+1017437667+1020101675+1022080435
1306+1023331981+1023950772+1024235294+1024596193+1025542081+1026974916
1294+1027311245+1025918011+1025882531+1029982044+1036853301+1043865026
1283+1049086757+1051189427+1050977771+1050024787+1048865258+1047847800
1271+1046006380+1041864673+1036538335+1030881696+1023709970+1016558006
1260+1011944461+1008443215+1005291575+1003020892+1000472097+998460986+997891255
1246+996721274+994779825+993213542+991175269+988920456+987751238+986942002
1233+986114759+986298413+987184559+987716140+987746507+987534394+987670055
1219+988826302+990381293+991370291+992026851+992299089+992022883+991987862
1205+992042263+991316957+990713807+991686630+993533315+994138220+992874084
1192+991038082+989287993+987426353+985797199+984480722+983144178+981503732
1178+979902046+979102653+978004851+975767817+974130728+973544364+973037962
1165+972590234+971573616+969221368+966300077+963527800+961216678+959859380
1151+958627901+956031647+952182779+948666120+946840571+945741243+943650857
1138+941302501+939717525+937440357+933433014+929796183+928022899+926349872
1124+922823142+917812533+913429642+911088230+910439147+909916493+907773460
1111+903948169+898973191+893945949+891364192+890245789+887230267+883786322
1097+882775579+883219109+883313950+882996848+883306778+884138751+884074736
1084+883516908+884201470+886373039+888837981+890868319+892657779+894143489
1070+895859777+898087503+899129987+900043220+904243449+909149604+909598399
1057+907677780+908665558+912494512+914719719+913008620+909967767+908808849
1043+909431913+910940742+913675022+915988280+915181639+913732018+915358883
1030+916313852+912417906+908007777+907070662+906908296+905314546+903859737
1016+902904082+900989643+898064995+895209932+892186704+887895525+884262433
1003+883448390+883153415+881046625+878222692+877686152+881802222+889328818
989+897305048+904964635+912937966+919679971+921865961+920384905+919995547
976+920958145+919502192+915820497+912881886+910845596+908706759+907128803
962+906628886+905913652+904269925+903074307+903010902+902515487+900448067
949+898476022+898264061+898202105+896519999+893807999+891019927+889063065
935+887774743+885338566+881837014+879189411+876926968+873368345+869003308
922+864696794+860621468+857465402+854762862+851201110+847649811+844819698
908+840966481+836160050+832847265+831102898+828403410+824107807+820682250
895+819101623+817868847+816567935+816125319+817376408+819995628+822050229
881+822656813+823428738+824628248+825595272+828119041+831997056+835140227
868+838919204+844614376+850885305+858302335+869537331+884148212+898676156
854+911438217+923851969+937672613+951809597+964961397+977519279+988733827
841+997621459+1004618992+1011027109+1016830778+1020706657+1022168637+1022295677
827+1024629383+1029943360+1033325960+1033023737+1032885558+1034485412
816+1035606486+1033885009+1030308989+1028506482+1027439887+1024718043
804+1022706780+1022017488+1020884969+1018918341+1016209774+1011565785
793+1004541395+998926796+995866411+991558446+986492520+982932752+977976239
779+970178550+961333874+951103976+941305477+934698141+929186776+923424613
766+919497080+918213946+918435826+918998385+919472893+919833257+919424519
752+916869925+912791623+909662567+908548666+909015850+908718357+906140262
739+904276639+904179281+903284742+901733261+900321028+897635198+892933221
725+887588953+883961354+882987234+883216210+882701263+881645197+881388448
712+881908431+883830042+889181559+897899348+906637661+910496067+908602458
698+907435223+911400372+915893897+916260518+914199202+912709906+912643830
685+913611236+914743525+914363476+913916588+915986449+917893258+916936306
671+912201139+906008111+908513111+915837970+919282601+922977497+925972341
658+923554094+917991761+913456347+910630354+908219356+906830699+909478456
644+916867331+924575215+927183143+925615258+923458567+922444390+926538943
631+935562847+939290780+931617612+922934235+925513855+934320686+938365034
617+938120112+933839768+922767519+909999202+905751133+916529628+935690039
604+951698504+963217030+968670484
##END=
