##TITLE=Sample description
##JCAMP-DX=4.24
##DATA TYPE=INFRARED SPECTRUM
##DATE=13/9/2023
##SAMPLING PROCEDURE=Instrument type and / or accessory
##ORIGIN=Default
##XUNITS=1/CM
##YUNITS=ABSORBANCE
##RESOLUTION=4
##FIRSTX=4397.6552
##LASTX=599.8556
##DELTAX=-1.9287962
##MAXY=1.8470664
##MINY=0.46756527
##XFACTOR=1
##YFACTOR=1.7202146e-009
##NPOINTS=1970
##FIRSTY=0.48690385
##XYDATA=(X++(Y..Y))
4398+283048310+281971558+279676269+278000288+277896010+279580082+280747477
4384+280406716+279642589+278303298+277467257+278014546+278423359+278216432
4371+278348325+279067823+279977668+280949968+281710145+281582253+280316627
4357+278199696+276137199+275561134+276732461+278020454+278306555+278129790
4344+277932825+277847189+278386440+279209886+279420018+279542019+279750540
4330+278698788+276562852+275472483+276233023+277573891+278509948+278858886
4317+279020578+279690631+280294070+280078273+279224543+277658453+276061871
4303+276004977+276876187+276850859+275977794+275298265+275757371+276706717
4290+276683449+276217205+275927396+276129438+277225524+277739238+276775201
4276+275834605+275535025+275125693+275083715+276092831+276907043+276141323
4263+274746280+274609657+275728629+276040250+274442820+273123625+273620534
4249+274280296+274362363+274502036+274802257+275371756+276267101+277155688
4236+276722638+274848652+274061380+275008941+275884830+276178900+276261297
4222+276286019+276622536+277232853+277490940+277180081+276606372+276222628
4209+276508417+276923761+276553132+275707701+275059633+274805306+274676011
4195+274421527+274192771+273882796+273420762+273381296+273991094+274445453
4182+274360839+274239132+274456073+275024048+275229381+274428319+273464888
4168+274199320+276681734+278033967+276878422+274900107+273198988+271971060
4155+271806354+272687041+274068379+275773726+276488927+275156028+273904400
4141+274370073+275065628+274642782+273764174+273576980+274223887+275170010
4128+275442528+274309713+273135960+273532732+274634050+275322190+275757596
4114+275595731+274540393+273736212+273946067+274636441+275410720+275740826
4101+275060118+274310164+274484988+274606677+273921136+273781741+274560940
4087+274594429+273974618+274095579+274297378+273792552+273618299+274221981
4074+274929975+275264152+275004090+274624245+274750317+274837478+274258779
4060+273921483+274702535+275848292+276500275+276518760+276056137+275490674
4047+275175813+275304762+276017399+277072650+277191862+275906035+274819512
4033+275074394+276014349+276604500+276677091+276151492+275586202+276228986
4020+277311316+277915171+278500593+278631464+278159554+278080969+279001694
4006+280271600+280560889+279892291+279234262+279008104+279460108+279935395
3993+279688361+279347306+278877839+278345900+279050602+280823619+282230650
3979+282574252+282165544+281672221+281205318+281154418+282007888+282766159
3966+282716211+282611414+282690969+282574616+282372627+282523993+283053715
3952+283291307+283341480+284397095+285834323+285991632+285643682+285817865
3939+285422566+284179167+283260642+283410900+284782641+286470853+286843630
3925+286347119+286727329+286946193+285286428+283852682+285592348+288403448
3912+289253731+288268887+285857054+282622017+281517892+283595773+286162212
3898+288104267+289317399+288861931+287865999+288953596+290172896+289479160
3885+288629831+287833255+287637589+289481482+289782431+287789320+286590965
3871+286422794+287445440+288329818+287782355+289133029+292454309+293948466
3858+292641277+287754549+282330181+285580879+291938515+295111790+294649530
3844+292128568+289412599+287660302+288265110+290985549+293090301+293924558
3831+294388688+294547972+294534632+293914371+291446353+290471922+293057314
3817+295259916+297625787+300384514+300915483+298686375+296075359+295057875
3804+293895521+294392812+298262992+301058829+302703573+304487782+305319821
3790+305599443+305764583+305507622+305665831+306077849+306366133+308018085
3777+310565657+311714394+311203417+310826984+311669314+313371023+316311764
3763+318941179+319363626+319806204+322178173+324465597+324740611+325851267
3750+333365851+342464127+353650662+376026953+401373368+419642095+429894028
3736+433881462+436445355+438740436+440256354+441320510+443208979+446526015
3723+451075949+457919649+466894296+476423543+484452084+490778882+499609802
3709+512661209+526797424+540905192+555787897+570369081+583461375+595721699
3696+604431900+605655029+601213720+597873019+598663098+598947917+595185740
3682+588471005+582433600+576801075+567333886+559646539+556451089+552001811
3669+550025921+550448160+547999096+542929557+536182737+527172194+517065200
3655+509749539+502635503+489852873+477353779+475418914+477061926+475015282
3642+470001563+464953367+460806580+456722716+451682109+444669631+435422812
3628+429984324+429545973+427500784+422207235+415511004+411401499+410264059
3615+408262494+404749342+401307777+398935184+398012605+396792561+393946898
3601+390797497+387812994+384248630+381387757+380523147+379777454+376587687
3588+373031985+372862064+373472346+372067238+369611279+367637364+366175396
3574+364817411+363097547+359943468+355819827+354095596+354600752+354190883
3561+352899737+351414173+349714162+348414389+347832969+347393440+346119169
3547+344234823+343182759+343025173+342458306+341126690+339795281+338717784
3534+337553352+336264354+335051932+334171799+333561171+332954838+332166249
3520+331081095+330130450+329736173+329279354+328230547+327185136+326675164
3507+326188546+325130938+324006110+323475209+323013608+322191998+321768685
3493+321920658+321693357+321039763+320401449+319703642+318951504+318011774
3480+316962690+316192881+315591885+315067464+314795257+314618475+314417820
3466+314108815+313398673+312656029+312333789+312100701+311699633+311197630
3453+310804254+310390019+309495610+308540704+308148402+308179898+308508272
3439+308808059+308735573+308697666+308930026+308727742+307616150+306438863
3426+305952210+305760944+305688042+305884886+306001620+305800133+305582257
3412+305738873+306027780+305946874+305682879+305620267+305674113+305561952
3399+305425745+305573248+305627197+305367741+305167259+305175540+305486901
3385+305749718+305415107+304996333+305072908+305407900+305577718+305330216
3372+304944047+304852399+304866778+304645125+304381338+304384180+304438926
3358+304229816+303855739+303513887+303302975+303212817+303031981+302655202
3345+302196442+301503625+300540887+299815118+299550846+299603791+299658364
3331+299274100+298465311+297290449+295878861+295093841+295247789+295148172
3318+294087168+292887012+291909098+290846223+289813529+288738994+287414862
3304+286162195+285408394+284899721+284223137+283786293+283805628+283832342
3291+284037849+284802633+285768715+286652139+287380282+287752123+288110088
3277+288903943+289666199+289917373+290194587+290657557+290626736+290586993
3264+291449922+292492492+292883997+292861163+292646094+292515742+292931952
3250+293517218+293520856+293173494+293055132+293251040+293654638+293828717
3237+293649614+293998812+295055415+295677721+295612891+295932395+296856914
3223+297531367+297820725+298186832+298802139+299795229+300741647+301016487
3210+301100166+301535294+302122292+302757037+303361914+303813502+304140177
3196+304401400+305026478+306313812+307632678+308239738+308148852+308009145
3183+308369500+309149704+310052359+310848432+311348183+311477321+311441667
3169+311633244+312120209+312780005+313650575+314568753+315177407+315603077
3156+315986474+316099258+316199291+316547623+316969793+317398893+317764688
3142+318062986+318487512+319095993+319328734+318899669+318625695+318735880
3129+318665507+318465302+318401235+318415095+318298256+317925982+317390439
3115+316744710+316132141+315919011+315972579+315890772+315592439+314898063
3102+313984112+313389040+312921029+312125164+311376803+311417793+312062933
3088+312613445+313006960+313495865+314260130+315138253+315674767+315874313
3075+315848811+315534193+315287385+315595870+316419836+317129354+317113831
3061+316591732+316321708+316562661+317059813+317609181+317836413+317575606
3047+317364833+317311091+316874403+316044928+315352249+315052461+314725958
3034+313821432+312599759+311889963+311694435+311174380+310248302+309564216
3020+309384247+309469069+309354136+308969977+308703349+308601375+308300236
3007+307771934+307578971+308006858+308769148+309603648+310444419+311619974
2993+313471784+315704773+318181591+321105631+323937608+325878051+326825543
2980+327209182+327724629+328502442+328741870+327941223+326597479+325474384
2966+324696329+323976346+323377983+323097460+323060524+323092367+323042160
2953+322806231+322354747+321924781+322130599+322934434+323261734+322785199
2939+322203398+321665984+320856952+319843730+319002786+318340979+317566181
2926+316968684+316810717+316722049+316609992+316536605+316207954+315544034
2912+314902913+314721107+315062786+315456613+315557478+315523902+315585994
2899+315877466+316238064+316346794+316500396+317076652+317584129+317594420
2885+317612611+317988490+318263642+318248950+318304805+318526216+318745305
2872+318906564+318946549+318733177+318328956+317849926+317320620+316964284
2858+316762797+316436156+316127601+315808167+315191856+314556279+314330087
2845+314376206+314310718+314332998+314750144+315086764+315030805+315081151
2831+315540361+316258196+317136839+317732048+317662333+317576021+318007235
2818+318588793+318880057+318803481+318706012+318866266+319181300+319738499
2804+320719774+321790341+322334651+322323563+322446811+322974454+323563947
2791+324150390+324536871+324522908+324645844+325078166+325286722+325174735
2777+324975985+324570585+323941488+323523580+323408994+323345967+323448945
2764+323823957+324134278+324163072+324191901+324378488+324459222+324390373
2750+324452257+324561715+324414836+324256210+324379840+324558285+324617154
2737+324546157+324337394+324121008+324063870+324185109+324336251+324509325
2723+324764553+324987523+325203355+325372722+325293305+325113370+324955230
2710+324744284+324775711+325222932+325682316+325916443+326024064+326054452
2696+326150431+326335425+326340137+326147521+326033073+326109822+326139863
2683+325938792+325756189+325577744+325157341+324821760+324649656+324167438
2669+323570184+323422161+323574203+323550572+323257922+322998363+322997566
2656+322978543+322711464+322442757+322332953+322278796+322151528+321926618
2642+321673953+321438960+321393950+321667127+322017988+322143662+321977310
2629+321744500+321696302+321703648+321648243+321684833+321772808+321816536
2615+321920589+322149449+322610877+323234603+323640661+323864289+324157701
2602+324452326+324780180+325253562+325832140+326407877+326806624+327022421
2588+327210776+327466767+327902832+328463634+328874231+329136979+329354301
2575+329421001+329361127+329167366+328945644+329161476+329692757+329847606
2561+329526890+329191240+329127208+329288640+329547541+329843136+330040916
2548+329994832+329892131+329947189+330034021+330086792+330254080+330675314
2534+331290136+331807939+332048545+332065004+331998095+331998719+332089397
2521+332208245+332460667+332880342+333167101+333322020+333672292+334175576
2507+334637004+334927852+334988420+335056922+335392399+335927769+336428108
2494+336776648+336978481+337157134+337436202+337673898+337845378+338172123
2480+338630953+338996713+339098825+338887740+338559644+338467684+338621320
2467+338709988+338717334+338824886+339059290+339309737+339468224+339568881
2453+339511016+339184375+338917262+339027794+339442133+339987690+340594611
2440+341093980+341227035+341133654+341142351+341311198+341512304+341529837
2426+341389957+341356624+341603537+342125393+342552795+342593127+342486060
2413+342509483+342701373+343010135+343322188+343578595+343813450+343983475
2399+344154436+344476191+344851377+345238689+345647484+345935283+346096369
2386+346098760+345631753+344332119+342177749+339551383+336857485+334220863
2372+331391867+328157159+324910012+322433263+321036228+320303113+320087108
2359+320817451+322966589+326589337+331326483+336050220+338617959+337860416
2345+335071094+333016792+332503493+332932039+334154717+335748596+337098681
2332+338097315+339372695+341201221+342999878+344507029+346263311+348812339
2318+351794971+354374768+356213411+357616856+359181941+361056724+362772014
2305+364133256+365454616+366797528+367923535+368887173+369967164+371232219
2291+372577661+373982769+375346297+376495935+377410474+378120929+378782908
2278+379594643+380561746+381557331+382424228+383108002+383752934+384570005
2264+385484857+386293750+387049526+387802287+388502832+389175448+389856035
2251+390562955+391218212+391674338+392002747+392379145+392899061+393618489
2237+394284765+394689160+395191648+395979128+396654240+397076721+397441304
2224+397684544+397914131+398443784+399114184+399598723+399932814+400352004
2210+400912807+401449251+401826168+402181465+402710078+403253695+403708713
2197+404290097+405000447+405585886+406096863+406822597+407701032+408514361
2183+409259361+409967147+410622751+411277662+412015766+412793233+413617649
2170+414588564+415568072+416333792+416975467+417831553+419037184+420337442
2156+421485763+422612115+423995221+425618379+427130935+428284834+429242616
2143+430217239+431192900+432170953+433290687+434673862+436252461+437821912
2129+439369914+441031325+442600256+443958414+445445711+447034046+448549028
2116+450267888+452352127+454636675+456793782+458538282+460003230+461606637
2102+463666379+466146559+468594895+470779860+473067180+475670400+478408199
2089+481211416+484139857+487210118+490500854+494030221+497617938+501241206
2075+505022476+509039223+513274748+517386055+521247400+525443216+530454059
2062+535889637+541148952+546310520+551756492+557386453+562843756+568248599
2048+573838297+579705365+586017402+592563532+598996427+605272983+611635955
2035+618183055+624397796+630264379+636497346+643210902+649855852+655855697
2021+661072393+666104476+671590053+677296693+682608121+687604654+693177755
2008+699410930+704744603+708606918+712182473+715973826+719811955+723587785
1994+726773879+729203020+731398761+733940374+737293965+740847552+743397827
1981+745225452+747262706+749267529+750723780+752041224+753412237+754500995
1967+755471390+756407829+757231448+758240443+759292264+759913392+760171115
1954+760472705+761310738+762701917+763738840+763796358+763306621+763231917
1940+764322754+766017324+767148146+768013068+769528570+770994453+771740042
1927+772702745+774918167+778250690+781080449+782633649+784739787+788574243
1913+792625398+795953348+799734721+804684962+809894867+814843237+819637001
1900+824184614+828378664+832540836+837477633+843314625+849277672+854297282
1886+857907348+861504386+865955327+870277996+874164565+877882738+881721006
1873+885265723+887145530+888315991+890619493+893368033+895636261+896754887
1859+897139704+897663328+897156960+895503761+894536970+893563179+890893016
1846+887454742+885332112+884918881+884539192+883709335+882354192+879463935
1832+874718888+869194505+865575152+863991253+862932293+862610815+861102867
1819+857120803+853488561+851762529+849888613+847046034+845017858+844043651
1805+842970624+841138980+838173257+835259439+833807900+832840970+830923880
1792+829589180+831369751+834056060+834774207+833622594+831958862+830685007
1778+830068314+829348297+827372233+824407965+824230213+827666269+830734486
1765+831347852+830437886+830095410+831310292+833367574+835491868+835896921
1751+833406035+830921801+831914372+835225551+838479213+840009752+840251259
1738+840757212+840033868+838191621+840114047+845052507+850026171+853807268
1724+856470362+858324944+857814695+854558054+853449061+857586493+863404289
1711+868266936+870169335+869163112+869175031+870634193+870086938+870386379
1697+875397604+883495478+891562584+896198623+898293811+899171138+897744547
1684+898586946+906441443+914561285+920015538+922800530+923644731+924672714
1670+927942521+934611172+940453846+943018397+945585512+950478928+955422101
1657+957058252+952893585+950231946+958065445+963370982+963774026+967858167
1643+975744887+981353331+981371764+974561744+968860855+975040046+983998823
1630+988316156+989814748+990387852+989929230+991108424+994161741+995147035
1616+995806485+1000857972+1006104467+1007771456+1007982333+1009797761
1605+1012040141+1013008803+1014960196+1019039140+1022301325+1024129019
1593+1025850616+1025550343+1023859723+1025188117+1029103792+1032223775
1582+1033800052+1033354666+1030118815+1027104998+1027896532+1028424314
1570+1027202225+1029352298+1034885206+1038688201+1036775754+1025677368
1558+1017078115+1027698614+1039764762+1045531831+1049052848+1053761859
1547+1057391121+1056619129+1051188369+1043173445+1044147166+1054489846
1535+1060491423+1061218024+1062323760+1063068032+1061975879+1060511174
1524+1057073246+1052472619+1053377942+1058888882+1064984083+1069526707
1512+1069862946+1065642770+1058483829+1056999096+1067058135+1073741823
1501+1069560732+1060729396+1059143140+1064702867+1068100046+1066679831
1489+1065306393+1067016486+1067441220+1066318991+1066479487+1065807286
1477+1061537354+1055813458+1052259178+1055555527+1062126119+1062719735
1466+1057493961+1051940957+1046759534+1039030192+1028419671+1021933070
1454+1022844976+1023673169+1019007124+1009754865+1002527872+998263692+994107549
1441+990449251+984421825+972368982+962005097+958116380+955643858+953275285
1427+951309755+949653438+949739368+950187941+950207761+954915317+963200853
1414+969234724+972882904+976694839+979473316+978881294+979355161+983627657
1400+987265651+990214396+995089933+1000145994+1004513014+1009607951+1014037618
1387+1013948638+1010357767+1007929527+1008538181+1011425943+1014466995
1375+1017518788+1021842911+1025567113+1026587611+1026446103+1026026497
1364+1025263722+1027261545+1030989420+1031381514+1029034285+1026361211
1352+1024204555+1022915869+1020951725+1017996813+1014989094+1010078769
1341+1003402565+999492850+999554457+1000126798+999185439+997217969+996412852
1327+998770199+1002214017+1004219393+1005737043+1008013864+1011578124
1315+1014833171+1016635640+1018895275+1021437165+1023083157+1024320839
1304+1024808427+1024033317+1023190709+1024060482+1026675691+1029043917
1292+1030207172+1032402636+1037453568+1044212169+1051028634+1057853346
1281+1064348471+1067664502+1068008156+1069307098+1071235968+1071101944
1269+1068971413+1066038607+1063375928+1062385159+1062739693+1062462497
1258+1060740831+1057724242+1055285954+1055044239+1054151181+1049813059
1246+1044866907+1042946491+1043444820+1043572053+1040549435+1035757889
1234+1034173435+1034502883+1032494041+1029499559+1027049074+1024778212
1223+1023524523+1023548292+1023411704+1022104862+1020236836+1018469432
1211+1018105058+1020231985+1022098279+1021709926+1020829897+1019523887
1200+1017893072+1018170684+1019877936+1021026499+1021455737+1020052916
1188+1016464818+1014176216+1014351473+1014057437+1012312556+1011058242
1177+1011272030+1011320886+1010661782+1010917634+1011173417+1009482173
1165+1007387332+1006597253+1005799828+1004485779+1003221902+1001286864
1153+998742757+995829839+992159691+989061190+988043533+987797937+986003784
1140+983413731+982115205+981690263+980723264+978166890+973753301+969556479
1126+967531838+967049447+966317856+963608124+959109782+955845241+955610525
1113+955719047+953272443+949073751+944717541+941443645+939118453+935984818
1099+932497896+930761954+931689592+932645850+930972970+929699322+929644853
1086+927710300+925296197+925382475+927152720+928182227+928342238+928033026
1072+927231582+927762413+929707292+931280103+932782785+935509703+938683671
1059+938743476+935484063+933745141+934977764+937287433+939996057+940971510
1045+939849558+939997235+940336939+939854756+942313071+945794172+945279626
1032+942772316+941082112+940104302+940340334+940173670+937639126+935079010
1018+933999607+933051873+932321045+932533932+933597603+935678239+937968920
1005+938444519+936592086+935035836+936258272+937517506+935791196+935101463
991+938416938+941733731+943297326+945247263+947246195+949965561+954379704
978+957402391+958199608+959286425+960012610+957967594+954445192+953269186
964+954961400+957188049+958391220+957520130+955826253+955976978+956687640
951+955688971+954150740+952883398+951698107+952274467+954140899+953463778
937+950314620+948127333+947552982+946569629+943754492+941386681+941490353
924+941536298+939840757+937722146+935809561+933653528+930963615+928862674
910+928458869+927810299+925079222+922738715+923263032+924479369+923464276
897+921027166+918141275+913960739+910516714+911947947+917727906+922734141
883+925200703+927863174+930388987+930253853+929770284+932563661+936828604
870+938948462+939380403+940574357+943224631+947301981+953298361+960839071
856+967985400+973312975+977886229+984485233+993827858+1002164468+1007896056
843+1012888708+1015492344+1016446454+1019631716+1024658672+1030337107
831+1036868407+1041529116+1039983747+1036229400+1038076359+1048111074
820+1062373378+1065101614+1052558342+1043045311+1041986768+1041415327
808+1040625942+1042204090+1042841988+1040979367+1040155193+1040645484
797+1038694646+1034123332+1032702424+1034496992+1031998414+1025968563
785+1021907914+1016083534+1005516256+996818321+992898765+990554516+988618438
772+986749373+984446634+980926934+975692151+971376550+969190303+966650908
758+962288046+955388491+950699022+956740654+966250082+965163541+959662719
745+958297458+956830189+954288784+955012959+957118334+955963673+953358859
731+952334342+949253235+941399501+934743879+933533917+933000869+929020399
718+927113774+931150237+934478602+933905915+933661289+935784682+942351879
704+953055884+961748760+964062310+961061452+956676622+955560214+957811186
691+958611729+957390125+957384027+959973664+964135351+963818654+958427255
677+956372953+957781041+958960581+958350541+952846393+952008982+961353132
664+966121393+962630660+956621321+953442711+953993916+955562709+954351291
650+950925145+951868860+956479674+949172640+930940399+927238720+940783433
637+949436601+946448494+937754578+929341600+926378233+935410121+960657646
623+978372154+971316953+961650563+953575003+942461302+940209844+947776195
609+954019626+957696289+960659586+962449651+960736508+948278059
##END=
