##TITLE=Sample description
##JCAMP-DX=4.24
##DATA TYPE=INFRARED SPECTRUM
##DATE=13/9/2023
##SAMPLING PROCEDURE=Instrument type and / or accessory
##ORIGIN=Default
##XUNITS=1/CM
##YUNITS=ABSORBANCE
##RESOLUTION=4
##FIRSTX=4397.6552
##LASTX=599.8556
##DELTAX=-1.9287962
##MAXY=1.8387381
##MINY=0.46777585
##XFACTOR=1
##YFACTOR=1.7124583e-009
##NPOINTS=1970
##FIRSTY=0.47992006
##XYDATA=(X++(Y..Y))
4398+280252116+280036717+280062003+280026640+278982672+276855944+275600874
4384+276523263+277606076+277259351+277393756+278564594+278723103+278028557
4371+277942863+278208350+278595276+279781829+281735551+282612274+281181032
4357+279243651+278313448+277934771+277655536+277466293+277767456+278915217
4344+279794168+278812921+277473654+278194566+279472817+279196784+278450986
4330+277854298+276377024+274908730+275242837+276514649+276651142+276044848
4317+276185049+276383133+275964880+275953969+276525822+276789011+276733721
4303+276933527+277010432+276473229+275908825+275957606+276398012+276710783
4290+276961634+277265564+277470174+277642814+277436029+276251895+274783200
4276+274595594+275605486+276024208+275240714+274220954+273778320+274368829
4263+275443253+275684410+275493427+275929778+276513622+276580137+275990411
4249+275027960+274780364+275658462+276841760+277506042+276557461+274479584
4236+274043406+275117917+275181944+274586927+274821662+275565337+275775377
4222+275134624+274488825+274813778+275721548+275938863+275383786+275252705
4209+275717145+276163173+276466773+276018639+274737239+273869026+273856165
4195+274037559+274169527+274519594+274784192+274894338+275542086+276400849
4182+276410856+275307090+274162705+274515591+275533454+275195657+274457586
4168+274898288+275426407+275023243+274317472+273991127+273709508+273197504
4155+273594611+275124861+276390964+276652065+275820503+274545350+273665512
4141+273162976+273160435+273402845+273563982+274181936+274837011+275077420
4128+275231734+274752919+273802128+273407666+273668332+274365157+275023731
4114+275272406+275572768+275869685+275520088+275019223+275308970+275755206
4101+275183823+274165873+273971983+274511867+275234745+276027758+276216862
4087+275311563+274404854+274630400+275431819+275678179+275528372+275682461
4074+275792293+275411962+274904640+274669279+274742947+275107579+275477346
4060+275327730+275238034+275780841+275889646+275466556+275775220+276363606
4047+276318410+276580433+277404563+277627360+277443495+277593667+277656702
4033+277030899+275995789+275538136+275971650+276633026+277074650+277394591
4020+277589490+277243340+276474326+276148380+276537290+277465266+278923901
4006+280110071+279955078+279094679+279040938+279715383+279721805+278633354
3993+277821023+278558189+279854070+280012474+279648624+280181825+281037507
3979+281004998+280410590+280338663+280929886+281555898+281969085+282318786
3966+282586952+282491269+282293777+282656322+283321561+283524726+283168847
3952+282724734+282416818+282330202+282266820+282001212+282450111+283711202
3939+284452980+284159596+283095179+282281978+283107849+284905673+285429894
3925+284924051+285273143+285292617+284065305+283995901+286139859+288260339
3912+288996688+288672239+286185803+280842382+276687741+277222682+280370284
3898+283814821+285871831+285316181+283915690+284634548+285458383+284780909
3885+284745790+284897076+285601681+288199463+288860194+287096828+285403667
3871+283193682+282399763+283721104+284526108+286402230+289959226+291629067
3858+289054727+281693923+276076192+281735273+289043798+291675446+290565798
3844+287987126+285334089+283073686+283152018+286225779+289231736+291171309
3831+292637358+293112154+292480416+290227514+285651419+284382097+288335956
3817+290987201+293965678+298138383+299001862+295669281+292016898+291456966
3804+291043187+290994266+293923980+296583230+298998939+302078094+303575782
3790+303356501+302812998+302533641+302941329+303217936+303028415+304224366
3777+306570079+307999337+307524438+306402346+307815490+311227499+314181107
3763+315194324+313808121+313687412+316983482+318986525+316660512+315249492
3750+322671417+333007097+345427789+368241453+392476961+408174649+415911015
3736+419073532+422304235+427276723+431715872+432703993+431640446+433116276
3723+439044585+447748154+457596648+467528886+474690319+478800894+486722710
3709+501619883+517583144+530977061+544405470+561184978+576968115+586969514
3696+591963547+592080567+588224705+585036014+584445835+584525333+583410308
3682+579463636+572405369+563055304+552796303+547386158+544709609+539088328
3669+535977742+536270674+533797221+527580714+519828858+511506768+503017015
3655+496344196+489027560+477666377+467270378+463998917+463841487+462432347
3642+458816928+454070577+449057261+443223277+436197972+427782531+418951779
3628+416815914+419332179+417711032+411361704+403714129+399161824+397495185
3615+395527018+393172116+390340922+387248436+386068531+385409958+382594357
3601+379358538+377203077+374391027+371619352+370748703+369225571+364382319
3588+360438188+361778203+364066485+363917339+361923033+359150592+356516995
3574+354526760+352112513+347728637+342762205+341779270+344247188+345687794
3561+345394897+344458429+343158442+341277256+339335263+338277668+337087495
3547+335231997+334327585+334538095+334656367+334232598+333421886+332511035
3534+331480659+330123763+328437285+326656481+325171323+324187135+323626890
3520+323375274+323302424+323324491+323038347+321863072+320261591+319228186
3507+318525478+317649295+317163153+317002381+316350352+315626655+315490284
3493+315207933+314147624+313059886+312626546+312477121+311934140+311226838
3480+311067494+311048176+310660850+310234923+310208365+310420476+309932629
3466+308646773+307569651+307232899+307510063+307946118+307972223+307543373
3453+307115636+306368897+304959931+304044904+304205570+304495717+304573231
3439+304470691+303756358+302872795+302750346+303052432+303043695+302757621
3426+302415891+302244817+302364273+302322714+302105069+302390308+303101648
3412+303656916+303764746+303531543+303333529+303159531+302869698+302475793
3399+302126405+302172106+302589192+303076622+303174776+302612895+301987875
3385+301817602+301973292+302183871+302235906+302316832+302657065+302865277
3372+302432667+301489447+300955898+301555266+302660267+303132278+302687938
3358+302114432+302061839+301900581+301270514+300639055+300044247+299645956
3345+299430643+298932702+298473187+298328496+298245761+298242872+297955788
3331+297210025+296744453+296597431+296138368+295281885+294286698+293628194
3318+293127990+291862601+290124644+288709673+287460625+286420329+285438839
3304+283827560+282230377+281991048+283013036+284104498+284636462+284876471
3291+284891054+284718031+285042167+285927557+286640376+286945315+287158279
3277+287855540+289084713+289988168+290216411+290163453+290102263+290312390
3264+290849889+291224006+291393375+291978820+292915427+293379850+293144001
3250+292973310+293386533+293655761+293096734+292431269+292502762+293192939
3237+294135708+294793132+294594005+294138214+294603124+295838197+296487686
3223+296142580+296169590+297196311+298194178+298991734+299866769+300157542
3210+300081246+300739158+301922892+302715957+303372442+304390776+305141482
3196+305271519+305648508+306529564+307022668+307122075+307497776+307906439
3183+308113816+308662470+309882403+311049568+311291717+311091232+311297077
3169+311817156+312442176+313148295+313774463+314414937+315035050+315408036
3156+315739916+316044368+316195706+316561418+317205582+317782290+318288237
3142+318802955+319253908+319551225+319505281+319103405+318807167+319052553
3129+319312105+318879356+318338950+318177692+317781490+317078712+316611644
3115+316122091+315292931+315006613+315659617+315982760+315207098+314162486
3102+313663744+313524553+313232318+312877779+312886654+313010461+312739040
3088+312464104+313003639+314037705+314408394+314148424+314121902+314370872
3075+314701986+315178313+315466580+315425474+315606154+316158707+316694901
3061+316980558+317090303+317274464+317376029+317318007+317368789+317251039
3047+316746623+316331626+316215825+315936572+315241487+314484829+314072442
3034+313820269+313124104+312137306+311439958+310943757+310402586+309826504
3020+309366954+309228702+309303501+309116312+308405773+307388031+306514632
3007+306171162+306286232+306604851+307122284+307855413+308867968+310414246
2993+312602529+315317365+318409747+321360188+323609626+325087335+325812702
2980+326102744+326373922+326639739+326784569+326380431+325228127+324054139
2966+323362500+322859546+322420428+322023251+321477694+321095032+321075366
2953+320841849+320179482+319780635+320089159+320587623+320631061+320288461
2939+320034966+319885785+319305561+318199376+317163361+316510636+316010084
2926+315639012+315651612+315739011+315196447+314244699+313641329+313309136
2912+313033677+313193891+313885809+314622210+314977723+314940724+314799166
2899+314780579+314808042+314863314+315233447+315905699+316238692+316073222
2885+316179034+316763748+317197402+317161064+316825077+316471583+316372001
2872+316625462+316934474+316972100+316826644+316690863+316546521+316394103
2858+316207193+315761426+315171874+314638291+313923157+313090238+312601555
2845+312622160+313008373+313509134+313883303+314309439+315049320+315845449
2831+316410393+316687070+316822502+317037988+317283339+317371574+317285010
2818+317369764+317637774+317695378+317840417+318421233+318933062+319096304
2804+319470683+320311051+321207422+321878978+322354539+322711514+322990488
2791+323374264+323866393+324180696+324258488+324134856+323969803+323948641
2777+323896048+323732910+323667648+323745963+323759572+323558182+323249344
2764+323203574+323484984+323574715+323353450+323204339+323285021+323517632
2750+323722016+323952853+324324795+324524271+324380589+324089050+323740081
2737+323473393+323526508+323849895+324160021+324298794+324426986+324746336
2723+324999657+324861545+324565899+324438473+324517170+324787094+325091721
2710+325269547+325496450+325799162+325875841+325795716+325838911+325849075
2696+325542465+325210028+325410339+325873718+325980887+325865190+325643612
2683+325151414+324762068+324715706+324648913+324491831+324345713+324118601
2669+323925843+323776279+323510462+323197796+322835739+322345594+321919319
2656+321825307+321895233+321733905+321499553+321611386+321988793+322162929
2642+322014654+321973687+322056630+321865264+321473204+321139549+321061861
2629+321301469+321489946+321429104+321413441+321594331+321772784+321808808
2615+321867875+322215592+322732746+322983179+323006290+323169672+323496018
2602+323907395+324335515+324791932+325490672+326275454+326771760+327108582
2588+327538964+327946827+328228237+328423084+328556880+328736934+328820643
2575+328673586+328761890+329218725+329552067+329649699+329705911+329720495
2561+329663204+329633618+329676186+329684088+329617224+329600865+329700203
2548+329797731+329822234+329950844+330332950+330691596+330748539+330804090
2534+331196882+331657893+331817063+331844839+331843099+331605684+331453266
2521+331771154+332310550+332827565+333290387+333539636+333542804+333671692
2507+334070887+334390446+334591035+334945853+335410276+335795235+336121442
2494+336437345+336699125+336917327+337101418+337369498+337937017+338713619
2480+339361612+339650192+339642500+339515387+339414831+339474628+339464534
2467+339233872+339132481+339162553+339075990+339018211+339211770+339584408
2453+339777062+339664846+339561470+339690672+340031393+340393867+340577854
2440+340682135+340883490+341101483+341227865+341377150+341649511+341851354
2426+341810004+341796255+342051282+342293292+342263149+342165448+342353716
2413+342849813+343280612+343472675+343724604+344175557+344526023+344724664
2399+345057379+345432558+345608435+345684870+345773626+345853229+345851141
2386+345544113+344637404+342896906+340256521+336837550+332923457+329003342
2372+325208288+321165793+316955984+313098696+310010630+307953776+307332863
2359+308909527+312765598+317756638+323318017+328983990+332211839+331071439
2345+327172104+324364961+323860059+324476795+325586007+327052892+328537144
2332+330083213+332422487+335187653+337308099+339107281+341446798+344279384
2318+347184438+349823778+351948052+353765368+355764652+357992511+360137599
2305+362170124+364182112+366040082+367636760+369008135+370196533+371289839
2291+372362401+373372520+374429244+375720878+377016340+377913686+378438150
2278+379023769+380004720+381161200+382094432+382836924+383586446+384428102
2264+385406094+386375977+387138134+387753095+388418665+389179604+389934626
2251+390639736+391331619+392066662+392807727+393414508+393884953+394266293
2237+394550836+394864268+395353125+396005294+396707549+397380568+397964585
2224+398339312+398599769+399044805+399583713+399881309+400024955+400260699
2210+400579109+401047082+401795352+402584310+403012082+403078841+403250506
2197+403966093+405096468+406070945+406643233+407146396+407838975+408612862
2183+409368894+410042051+410614200+411341899+412399842+413507349+414414093
2170+415262153+416119158+416945290+417896621+419006147+420083825+421111556
2156+422251224+423383932+424318555+425268285+426427619+427873828+429603293
2143+431135613+432166825+433157661+434481525+435990978+437543208+439029444
2129+440320869+441657090+443298389+444934329+446239189+447447357+448897603
2116+450726649+452880648+454968967+456728887+458517349+460652587+462937981
2102+465183660+467313782+469223961+471069958+473250792+476012513+479160724
2089+482404862+485707405+488947053+492026765+495063770+498106274+501294130
2075+504906276+509046786+513530765+517949517+522139521+526447450+531182697
2062+536262947+541603096+547272828+553104271+558678598+563891217+569201363
2048+575112791+581506602+587704209+593468301+599353520+605697419+612375947
2035+619169615+625868122+632572824+639168443+645231454+650864882+656419788
2021+662136056+667988348+673601867+678961578+684219375+689098269+693576749
2008+698338554+703737596+709058532+713770842+718094434+722031812+725388688
1994+727993188+729976252+732282738+735568261+739113788+741934157+744131142
1981+746290676+748415681+750206822+751923339+753804838+754997238+755109802
1967+755338272+756650755+758554948+760121448+761241520+762273393+763042686
1954+763358381+763667671+763966868+763777938+763332903+762936666+763038997
1940+764229518+766004230+767844727+769652576+771149046+772316385+773524518
1927+774810130+775948233+777689531+780367890+783121987+786617741+791325666
1913+795540661+798775158+802315673+806777585+811892119+817064988+821718823
1900+826422153+831586182+836878646+842588719+847551357+850773532+854707848
1886+860069786+865104892+870132061+875408166+879634996+882577466+884879010
1873+886101274+886287976+887546439+891075955+894656846+896283422+896667895
1859+897309935+898443373+899528222+899497870+898082569+896067135+893167825
1846+889090246+886295076+886371999+885938380+883857300+882465876+881161956
1832+877343198+872453514+869978356+867958884+864368108+862120862+861371409
1819+859570731+856975281+854581918+851537674+848156990+846408939+846035396
1805+845023293+842091613+838059073+835483463+834510065+832694559+829610218
1792+828561638+831225517+833910002+834160817+832781088+831327779+830277389
1778+829372768+827901289+824773231+821244411+822041758+826639972+831003243
1765+833116623+833089126+833530333+835127950+836406879+837091314+835820112
1751+832853973+832195504+834739858+837139625+837792247+837166496+837438126
1738+839490664+839743011+838905567+842935391+848665513+852672156+855125735
1724+856438217+856980224+855477141+851187451+849463834+855171818+863183504
1711+868419652+869847762+869096011+869269278+870211281+869240737+869995828
1697+875471027+882748714+889757347+894234713+896721079+897458350+894292283
1684+893834508+904091003+914845857+919493149+919858895+921273709+923722554
1670+926101785+933017555+941575424+945575106+947721065+952421123+956384606
1657+955420676+948602017+944704387+952836573+958394541+959819797+966883006
1643+976354058+980589172+979476965+975308889+973700621+979897288+987107172
1630+989980308+989734504+989392496+989419575+991183637+994286287+995248617
1616+996534577+1002396684+1007237361+1008124578+1009032052+1012145770
1605+1015656561+1017567158+1017600711+1018236487+1020518539+1023205042
1593+1025594994+1027072251+1027993509+1029410272+1029447445+1026663483
1582+1025342021+1026627981+1025938604+1026111870+1030554152+1032002937
1570+1030734310+1033764145+1038553516+1039341326+1034564554+1022263457
1558+1013844048+1025145434+1039290160+1047221722+1049931197+1051598776
1547+1052876174+1051609844+1046361793+1038311820+1041173818+1053523017
1535+1059171274+1059846937+1064653016+1069136299+1067248117+1062599642
1524+1058186877+1055239116+1056861307+1059732076+1062775763+1067167993
1512+1068988720+1064176237+1054415386+1052695946+1063166153+1071361060
1501+1073741823+1070509484+1067205236+1070021567+1071590226+1066804613
1489+1063286096+1066665596+1071276480+1072481759+1071112333+1068584895
1477+1062478516+1053042897+1044860938+1044167036+1050348179+1053211847
1466+1049625457+1046928512+1046972020+1041988428+1028923886+1020083179
1454+1021938086+1023096515+1019065577+1012071702+1006684216+1003544254
1443+999488185+993365029+983512220+969280685+960264902+957745261+952406922
1429+946150248+945483217+947420058+947244216+945548653+946123169+951859137
1416+959121857+964085679+968030089+972036732+974603571+977428047+982832658
1402+987193910+989151078+991857561+994626973+998468634+1006181193+1011382603
1389+1010162984+1008659623+1009858010+1010433779+1011542504+1015780333
1377+1020275172+1022963763+1026649839+1030562018+1032081739+1032756218
1366+1032325871+1029280235+1027529608+1030277649+1034723202+1037501804
1354+1037431355+1034585647+1029418695+1024474991+1021777141+1019786141
1342+1016280362+1011893006+1009639216+1008792305+1006484357+1003341262
1331+999690828+996254037+996397091+999917697+1003150801+1004613648+1004874140
1317+1006774295+1012015873+1016655367+1017769244+1018523919+1022350821
1306+1027667790+1030941687+1031918844+1032066006+1032229388+1032802441
1294+1034406672+1036486150+1037373994+1038911744+1043977340+1051716283
1283+1059467894+1065380054+1068587749+1068926625+1069106853+1071226498
1271+1072742390+1071791616+1069276709+1066696017+1064827535+1061971873
1260+1057602824+1054899962+1055254779+1055280814+1052527761+1049236530
1248+1047678174+1047609536+1047438427+1044726515+1039709927+1036440136
1236+1036131681+1035917900+1034893754+1033654295+1032265726+1031633292
1225+1031266849+1029381313+1026868563+1025693357+1026273164+1028557930
1213+1030152485+1027469184+1023307373+1023182348+1025628269+1025959696
1202+1024568064+1023794664+1023427247+1023630864+1024933532+1025848803
1190+1025064961+1023113014+1020686863+1017767017+1015695126+1015667003
1178+1015367528+1014201163+1014032073+1012489380+1008815069+1007869864
1167+1010330125+1011260781+1008484825+1005163799+1004194230+1003752397
1155+1000765444+995788187+991989199+990490780+989813098+989717449+989897329
1142+988420560+984672320+980337033+978033819+977359200+975577804+973745800
1128+973840891+973407829+970551122+967569529+966060599+965121520+962769020
1115+957009591+949658324+945104592+943664926+942152654+940229944+938794456
1101+936159118+932893574+932015337+933237949+933482708+930935013+927149043
1088+924507649+923243965+922948388+923835048+924651260+924488714+925140500
1074+925324348+922910310+921615439+923712529+927424710+931628010+934451999
1061+935266262+936604432+937558617+935162469+932650416+933328028+935068700
1047+937801218+942409805+945606432+945662470+943968926+941226872+940299070
1034+943448291+945109047+940897602+936145265+935418366+937545738+940054032
1020+939686824+935809243+934227915+938019803+941957877+942670992+942632357
1007+942729815+941926830+941099062+941004667+939644708+935587456+931539254
993+930564115+932342726+936086303+941585726+947486817+953196890+958253018
980+960172944+959355896+960033857+962408425+963270163+963315273+964615434
966+965774768+964236113+959996266+956598179+956549728+957333779+956383841
953+954556988+953044159+952623279+953277989+953480214+952491084+951658722
939+951416121+950295004+948976674+948659030+948046575+947071924+946411366
926+945432539+944067080+941692443+938326030+936594547+936453302+935079142
912+932540775+930826904+930235960+928680737+925700328+923591055+923300282
899+924208452+924610606+923893314+923616046+923539193+922790506+923084272
885+925848673+928736775+929645781+930696032+933858479+937276684+937672782
872+935919649+935379383+936244185+938145106+942579173+949169850+955068643
858+959588195+963907748+969607031+978460059+987134809+991395748+995018476
845+1002286348+1010804746+1018514521+1026835219+1034482202+1038748224
833+1039031618+1035566076+1030844299+1030639428+1038525880+1048423798
822+1047355031+1034268351+1026530801+1032916050+1042278018+1046452081
810+1047300802+1045705691+1044342739+1043769754+1039732481+1032755314
799+1028189469+1028233534+1029478353+1025814484+1017890649+1012971658
787+1012918892+1012935529+1009143294+1003132772+997195761+991247890+986386817
773+982522254+977310958+971085819+968513551+970950631+972320892+970652966
760+969584059+968813931+969617821+975089887+978480386+973810888+967950243
746+964211539+960006429+956828180+956205214+956796158+955833480+951307594
733+945190564+942319308+943674463+943246204+938365570+933936933+931397243
719+928411265+926263148+927271840+932068243+938337516+940299140+939340639
706+942505174+948106929+950275373+950581252+954201126+960527065+962797074
692+958767110+952271107+946135351+943872860+947751694+955032375+961889112
679+964535448+960333541+950634993+940422146+933749604+932990336+943135798
665+953147952+952129932+948159974+947665305+947127684+943924861+942462084
652+947170148+952029341+950796008+950888594+959247022+967646312+966890455
638+963891598+956758846+941368186+932094904+931362298+933875534+940732063
625+940940693+929599210+925120382+932869070+937673826+938368007+936553614
611+924873534+915983611+918831269+925581846+939077711+963427837+974453973
##END=
