##TITLE=Sample description
##JCAMP-DX=4.24
##DATA TYPE=INFRARED SPECTRUM
##DATE=13/9/2023
##SAMPLING PROCEDURE=Instrument type and / or accessory
##ORIGIN=Default
##XUNITS=1/CM
##YUNITS=ABSORBANCE
##RESOLUTION=4
##FIRSTX=4397.6552
##LASTX=599.8556
##DELTAX=-1.9287962
##MAXY=1.5830816
##MINY=0.22438349
##XFACTOR=1
##YFACTOR=1.4743596e-009
##NPOINTS=1970
##FIRSTY=0.24434288
##XYDATA=(X++(Y..Y))
4398+165728139+165524809+165136836+165428399+166214694+166759686+166528482
4384+165858214+165333557+165314020+166093088+167122897+167581092+167867591
4371+168669208+169516406+169594775+168846007+167581021+166081677+164965919
4357+164040089+162217032+160756943+161520396+163092055+163928146+163986068
4344+162904583+161481909+160838567+160377986+159911453+159731157+158876500
4330+157059982+155577587+155322469+156101689+157193888+157860911+157750301
4317+157387889+157207785+156498212+155197791+154404654+154660247+155337620
4303+155748626+155877084+155450837+154748207+154633302+155040983+155620288
4290+155962851+156031486+156529240+157789385+159159482+159282260+157849237
4276+156000388+154723920+154371352+154748915+155572998+156521174+156570850
4263+155391439+154422473+154475655+154790696+154715997+153945762+152643421
4249+152190472+153309423+154373424+154511908+154660510+154829092+154707001
4236+154405898+154367259+154947555+155324410+155498571+155909072+156035357
4222+156339564+156892754+156656485+156128209+156320644+156701289+156681409
4209+156690950+156748630+156529118+156402136+156526764+156549767+156491430
4195+156493189+156735086+157431692+157929243+157593655+156977520+156620485
4182+156573963+156905579+157400836+157884945+158324473+158234117+157762146
4168+158033112+159057362+159456159+158768609+158059501+157791517+157681292
4155+157890049+157913851+157365037+157569823+159039463+160303337+160427652
4141+159808292+159350138+159443788+159554984+159722404+160134623+160155635
4128+159843333+159626055+159362650+159348571+160110377+161152021+161630187
4114+161855358+162486148+163102445+163129258+163200107+164052228+164899709
4101+164912100+165053040+165878226+166117162+165827105+166419267+167487199
4087+168189465+169044253+170191302+170874405+170686337+170024155+169849427
4074+170571321+171187739+171112746+171061625+171164291+171166009+171203606
4060+171131646+171098636+171678730+172875950+174175431+174958491+174811860
4047+174447851+174930919+175718669+176088237+176173599+175802455+175313161
4033+175219187+175331919+175722368+176232846+176165716+175510305+175168046
4020+175791196+176842735+177598567+178198329+178612266+178525832+178418193
4006+178865503+179484327+179488329+178690392+177596606+176859249+176900081
3993+177647403+178731911+179849225+180782655+181375262+181561693+181529573
3979+181570021+181657708+181483304+181146947+181277973+182170935+183515755
3966+184166941+183595074+183569301+184502853+184672850+184406150+184718250
3952+184873997+184550133+184907107+185406306+184919620+185408368+187477203
3939+188912824+188768922+187169591+185887251+187159181+189038614+188438791
3925+187111416+187697695+187977615+186973760+188183916+192636235+196523499
3912+197656236+196503649+192340468+185899036+182183852+183352044+187546921
3898+193517756+197089079+195118139+192415218+194940238+197227786+196213258
3885+196265329+195890526+195902957+199542037+200057669+196021248+192530376
3871+191188790+194011376+197252406+196923832+198411220+203131532+204767471
3858+199683755+188635350+183452223+194832963+206683996+211060513+208771752
3844+203280144+198428866+195733041+197224309+202393994+206078958+207645321
3831+209495788+210980891+211147816+208399192+201518456+199395770+204664987
3817+208549401+213697517+219898365+220903998+216231410+211998835+211668260
3804+209568759+208994224+214962836+219999777+223760907+228083191+230532470
3790+231469114+231658234+231782871+233587473+234801794+234199970+236543814
3777+242200245+245842094+245134754+243524871+245813208+250619955+255887514
3763+259618566+259765500+261659406+268106518+272061235+271253130+276967089
3750+300821182+329220173+362406000+412596393+454294994+472707690+476327890
3736+476112856+482847953+495069180+505019677+508661505+509159087+512354596
3723+519976187+531157579+542885469+551366387+554798761+557038241+568262001
3709+588601794+607766643+621034052+629928785+639809423+651883413+661662659
3696+668652207+673171150+673824741+675786808+685559100+696394473+701620857
3682+703383333+704314702+702047448+699013204+704921599+712664513+714694457
3669+718901017+726279194+731530158+736420428+741627244+742033460+738712989
3655+739868164+740859041+733648639+727119358+736659758+752979442+762022423
3642+763897773+765080277+768696919+773816736+775805525+771238433+763397119
3628+765751292+778267721+787473705+788162670+782912757+783589432+793410804
3615+799950029+798239138+794894816+795401614+804284340+817310317+823167693
3601+822625399+823774590+826395342+828578103+831681558+832586002+827811678
3588+825691500+833191444+841520556+844560541+844731630+845774416+847091786
3574+848324258+850919622+851740623+847863789+845184984+848652610+854622132
3561+859802509+864262226+868336023+868613598+863732465+860124878+861398990
3547+863645465+864325697+867287738+873349192+876973677+877618900+879749751
3534+883345695+883951703+879641325+875250173+874276679+875580061+877763549
3520+878782079+878891072+878525041+875894425+873386385+874982785+879646742
3507+882605063+880689043+876113219+873466917+874095645+876077885+876672897
3493+875336688+873595234+872459464+872496738+872674053+870166336+866679628
3480+867056897+868524334+865548548+861842965+862512282+865077891+866224172
3466+865204348+862272709+860609604+862389302+864329174+863351719+860094719
3453+856626203+854860654+853586542+851359392+850022536+847778406+841758512
3439+836527600+836317863+838555200+840767796+844225235+847364833+846182330
3426+842829355+842068591+843294352+842966647+839798103+835613859+832721515
3412+830378662+827105249+824895402+824167545+823711119+825493567+827996513
3399+826517514+822448650+820434553+821500140+823692603+824302411+821093844
3385+815870128+811716852+808055901+805731402+807850044+812497183+814119861
3372+812647573+811208031+809442887+807851580+808083877+808003183+805211908
3358+801828209+800807092+801315265+800144971+796320046+793439265+793069272
3345+791294748+787811274+787005231+789099455+790514983+791757562+794242963
3331+793647466+789650159+788105748+788960142+787379024+782835703+780751019
3318+783418262+784600766+780753849+776315801+774519689+775744399+778696252
3304+779318754+778106496+779857814+783648780+786376907+785884986+780980809
3291+776050920+774351106+776084071+781831322+787787341+788903059+786571363
3277+785111285+784585485+783629860+784074239+785082662+782324214+777058292
3264+776087467+780818452+784959601+784300309+781193700+780438434+783589594
3250+785930507+784715338+784444231+785701041+783072527+776851789+771871770
3237+769560207+768873506+767778083+765277159+765381542+769846838+771855033
3223+767932435+762946353+759669786+758199196+759391241+761898311+762829517
3210+762233212+762847629+765052543+766334418+765895618+764927542+764252564
3196+763014594+760713058+759398760+759437732+759993368+761255109+761186464
3183+758811996+757395902+758782807+759864404+757153337+752972004+752032307
3169+753742794+753644151+750243230+746601118+746124074+747301645+745681555
3156+741452759+738438082+737043577+734177430+729713104+726814131+725921249
3142+724948564+722612179+719622567+717400673+715907605+715128244+714961198
3129+713781766+711231116+708934592+707436431+705560272+702511717+698534542
3115+694808907+692470339+690471362+687663189+684576065+681457813+678671874
3102+676723351+674794798+671868010+668719316+666986109+666218028+664828616
3088+662822240+660634831+658422680+656782052+655950377+655421546+653806104
3075+650135410+646121931+643750415+642150902+639200666+634925783+630994656
3061+627233445+623237310+620459942+618935987+616597056+612906956+609721918
3047+608017576+607002644+606040996+604642690+602424879+599350288+595864833
3034+592968487+590689590+588676746+587315513+585804414+583127509+580469200
3020+579091189+578762877+578914157+579291143+579939317+580711199+581921638
3007+584696176+588899866+593418041+599051529+607338839+617718797+629138630
2993+640860497+650710976+656883242+659566899+659005361+655533328+651068719
2980+646863897+642151104+637678571+635656672+635263191+634892714+636575508
2966+641251350+646552363+651664094+656121143+658474588+659592044+661117535
2953+663064927+664536123+664028071+661173810+657678814+654414820+650899085
2939+646773542+641974517+637350139+633335811+628955736+624598139+621747233
2926+619586385+616512279+612504582+607511626+601559529+595085917+588572241
2912+583469768+580146912+576963571+573246588+570475648+570178748+571143348
2899+571465676+572291367+575063156+578923455+582805989+586084819+588848684
2885+592596797+597994472+603870727+608815372+611789137+612533528+611071225
2872+606657960+599349884+590716272+580971794+569367288+557493939+546744030
2858+535733646+523708209+511562056+499621193+487819482+476832101+467638569
2845+460218186+453778169+448033505+443085181+438771650+434820551+431196551
2831+428235319+426117728+424328933+422558209+421287816+420849501+421101203
2818+421560783+421483647+420761491+419999190+419332016+418052567+415716626
2804+412983688+410533823+408075752+405048259+401466384+397905734+394874482
2791+392222924+389364863+386231693+383281417+380522524+377724093+375209545
2777+373369003+371814000+369863819+367670628+365902532+364481345+363013665
2764+361918566+361459391+360953441+359965353+358832938+357800016+356708717
2750+355541576+354325921+353043845+351845372+350549833+348962408+347493192
2737+346497099+345896711+345436970+344865729+344115274+343249600+342452936
2723+341908580+341366610+340667982+340003193+339235111+338474367+338124973
2710+337833147+337035796+335891577+334785804+333773904+332832611+331743151
2696+330265122+328670238+327248727+325988825+324592662+322852320+321168475
2683+319837339+318646851+317285698+315715717+314316057+313218956+312008295
2669+310608534+309446325+308459308+307345591+306232239+305225494+304477282
2656+304088349+303647023+302936813+302284293+301854691+301495513+301175893
2642+300966418+300790336+300628242+300623310+300780088+300936138+301084264
2629+301419186+301935162+302322962+302562151+302999112+303753003+304746165
2615+305791539+306602009+307369828+308388721+309235980+309587659+309857836
2602+310384000+311002277+311495270+311886871+312179647+312226866+311968090
2588+311421510+310678837+309867235+308965783+307965183+306903092+305658452
2575+304280905+303072811+301913048+300596931+299462354+298575011+297521309
2561+296174812+294776385+293660647+292901924+292298504+291776504+291325333
2548+290856698+290404031+290121403+289996159+289847143+289645551+289466579
2534+289325831+289246775+289279339+289440220+289578664+289649776+290010531
2521+290834847+291721583+292322356+292834188+293537606+294372979+295237137
2507+296145441+297005798+297619245+298054710+298610406+299254597+299733825
2494+300012087+300086777+299968648+299891229+299938327+299919953+299727477
2480+299308528+298641252+297776447+296825290+296018580+295432806+294863971
2467+294230189+293658565+293113077+292463710+291767792+291145997+290615609
2453+290005861+289288334+288755682+288441924+288103849+287645988+287131750
2440+286717490+286452730+286085467+285468099+284865244+284467296+284222831
2426+284043253+283822074+283568129+283376199+283367649+283512278+283512500
2413+283262780+283059288+283216207+283538192+283566390+283397888+283486364
2399+283935513+284464204+284812406+284989235+285069686+285028713+284801793
2386+284083943+282292642+279166000+275002900+270214669+265140838+259894564
2372+254125866+247857909+242005566+237083925+232989187+230228132+229572883
2359+231064233+234509341+239936508+247456787+255366222+259507107+257625794
2345+252313866+248953635+248775269+249644116+251018509+252876819+254373707
2332+255469150+257372233+260434979+263716861+266429404+268923395+272088948
2318+275663788+278500625+280360693+282038191+284027627+286219019+288534220
2305+290904928+293089265+294890552+296347316+297620316+298783273+299929130
2291+301140499+302274409+303211882+304037249+304697632+305090122+305412349
2278+305790306+306110512+306408866+306781790+307165366+307484197+307782532
2264+308142781+308532805+308823519+308942881+308963762+309011790+308998186
2251+308850201+308815494+308924527+309014397+309153549+309273275+309221406
2237+309136751+309200970+309326093+309367592+309392415+309392010+309271759
2224+309233999+309495121+309873299+310103574+310206240+310310017+310468149
2210+310772366+311262792+311786429+312236023+312649818+313092722+313637340
2197+314320019+315013310+315495974+315831501+316267168+316878897+317623106
2183+318295374+318722612+319085004+319663562+320491557+321276133+321784347
2170+322299918+323105638+323978568+324774545+325550914+326199715+326817790
2156+327676773+328658999+329560350+330487029+331503194+332573592+333726483
2143+334943087+336119022+337105371+337973471+338904435+339852600+340873758
2129+342149488+343529278+344646127+345582670+346836609+348477763+350113095
2116+351481686+352711733+354079435+355547438+356993448+358631771+360657350
2102+362913446+365164286+367344702+369596634+372103501+374840765+377716331
2089+380735375+383967350+387435017+391041431+394829607+398905182+403153059
2075+407597333+412444426+417509383+422446589+427327884+432443941+438023338
2062+444067650+450305044+456499141+462694935+469012578+475301759+481551201
2048+488035769+494565858+500845297+507234739+513930378+520607219+527223904
2035+533744857+539971982+545982174+551825804+557563919+563351517+569004532
2021+574095484+578648467+583227284+588042763+592832489+597452299+601781112
2008+605734515+609371412+612631807+615435614+617884024+620279918+622657741
1994+624393535+625737870+627861000+630453736+632586164+634228450+635437878
1981+636228680+636870588+637440373+637705658+637716573+637549284+637049358
1967+636729738+637065084+637443486+637538490+637505704+637165789+636706978
1954+636346082+635746057+634920528+634067589+632928747+631629488+631622858
1940+633596973+635982679+637752918+639187851+640808790+643065210+645895618
1927+648625565+650887685+653798665+657787887+661940679+667407283+674721099
1913+681774926+688175728+695150115+702834005+710628665+718227496+725655722
1900+733011502+739829111+746058824+752266868+757662562+762113708+767348905
1886+773223341+778542870+783371771+787392203+789948028+791242516+791904233
1873+791568523+788806033+785156402+784694477+786225142+786063675+783551916
1859+780119704+776820498+773363221+769285381+764197179+757726356+749946573
1846+741070801+733933652+731399820+729595784+725453261+720660421+715935257
1832+709023533+700833087+695962789+693820779+692241520+691729951+690972501
1819+688836313+685994261+683054294+679845889+676923022+675791053+675875101
1805+674989012+671941508+668314839+667301363+668186118+667086450+663281335
1792+661861562+665892910+669911037+670650577+669772775+668868817+668945670
1778+670152106+669568778+665170269+660827468+662654224+668465068+673644151
1765+675807951+675025194+674945269+676476622+678154807+679818398+678668883
1751+674371603+673308199+677937145+683365262+686510359+687456523+688867604
1738+691234876+690405385+689758949+697131304+706858884+714762052+720187258
1724+723383455+725459810+724353957+720107778+721601573+732018118+743122253
1711+750969065+754438794+754946725+756781243+758456234+757378842+760365301
1697+769788542+783768203+799630086+810521735+817143271+821055761+821724998
1684+829122014+848659645+866435689+876897754+882608136+888519685+894098677
1670+899119446+909052802+919792847+924313205+925959816+930542110+934885719
1657+933105454+923796785+919593054+930383391+936577852+938309441+948247405
1643+961304835+968806558+970282403+966224374+964134435+972836531+981618431
1630+983805881+983658644+984549180+986044593+989960318+994150949+994441219
1616+995661563+1002269515+1006910590+1006515856+1005094345+1005993209
1605+1008072961+1010271164+1013385455+1015715695+1015291449+1013998255
1593+1013642735+1013353436+1012467266+1011582632+1010476940+1008119291
1582+1005141160+1001329091+993882511+987797286+990129709+991776563+989473247
1568+991609840+999386793+1007494767+1009657314+1001521041+999301653+1014866152
1555+1026144853+1029824966+1030498812+1029805642+1026067636+1017777820
1543+1007423695+1001412857+1011901443+1029081505+1037051863+1041183148
1531+1049682459+1056460692+1056813058+1054561490+1051311687+1048025580
1520+1048697080+1050147133+1052311863+1056925770+1058338145+1052814134
1508+1041798777+1037782711+1049346669+1059267491+1060590440+1056196701
1497+1054347467+1058436626+1059621717+1054553405+1052584182+1059922740
1485+1068852443+1073157565+1073741823+1073727269+1073391074+1070149275
1474+1063451978+1060718029+1064300389+1065318030+1061004984+1058184439
1462+1057571235+1050006122+1035146435+1029993711+1036384244+1039968383
1450+1038210677+1032204123+1024586212+1019125106+1016415090+1012742415
1439+1001293353+982404017+971033950+968718102+964574043+959669139+958183671
1425+957581706+956322309+953818555+952879424+961352539+975055595+984731912
1412+989244104+991558012+993372316+995666171+1001659141+1009595379+1013204744
1398+1012427647+1012479475+1017773049+1027476857+1034900394+1036410118
1387+1033927709+1032008454+1033164357+1037400753+1043328634+1047411567
1375+1048013290+1049041603+1053082006+1057575844+1060417896+1060099085
1364+1056419780+1055192078+1058698596+1060343428+1059462109+1060347633
1352+1060998434+1058644342+1055686102+1053329018+1049618261+1042963897
1341+1034415587+1028319689+1027039513+1027308032+1026006429+1023546983
1329+1021707128+1021828653+1023595819+1026004974+1028690005+1030781561
1317+1032814983+1036807277+1041820851+1044464646+1044792271+1046195751
1306+1048905767+1051274898+1053189220+1053976585+1053670549+1053751000
1294+1054579440+1056025288+1058216296+1060485248+1062612623+1065060507
1283+1067511544+1069786964+1071366709+1071556960+1070912789+1068830369
1271+1063853342+1057475018+1052575531+1048801706+1043354831+1036649287
1260+1031783678+1028508162+1024226326+1018593404+1014011111+1011771347
1248+1009885486+1008444166+1009658203+1011637047+1011728899+1010519955
1236+1009099657+1008250842+1008368243+1008746887+1008931964+1009389360
1225+1009820236+1009797435+1010108727+1010773274+1010694278+1009687311
1213+1008487827+1008043529+1009341332+1011373541+1011626698+1010666464
1202+1010854614+1011789621+1011877591+1011135342+1010442820+1010098458
1190+1009580178+1008358055+1006298113+1004028596+1002920236+1002842696
1178+1002251404+1000175372+996596812+993452120+992437875+992305435+991753357
1165+990927343+989173841+986039256+982897313+980153096+977184910+974091804
1151+970746753+967994693+966793916+965959736+964311103+961941487+958993596
1138+955116843+950512961+946144772+942389464+939061473+935935055+932463709
1124+928219551+924295741+921840984+919768348+916943033+913518825+909817285
1111+905979020+902049792+898736841+896357522+894243731+892291245+891145288
1097+891269481+891184907+889301956+887260369+887483933+890461012+894073450
1084+895559160+894877229+893757307+894141773+896436598+899302098+902460373
1070+905834936+908583277+910035270+910086694+909927086+910438656+911320622
1057+912519943+914652655+917467863+918908051+919150859+920770949+922735402
1043+922680178+922375193+923962295+924609377+921378413+918353952+919174226
1030+920439848+919884860+919608174+920454402+921085556+919565725+915631566
1016+912698390+912933597+913323561+911464382+909251382+909045767+910267324
1003+909982796+907987376+907237204+907862859+907685383+907434571+909030001
989+911479097+913882511+918144861+924114625+927899527+928805022+930056090
976+932084822+934257233+937630583+941058267+942531202+943078429+943754295
962+943658644+943265608+943766504+944541580+944849961+944827402+945233375
949+946414019+947709639+948700840+949157347+949361425+949793110+949777828
935+948999437+948502341+948171968+946764849+945410286+945356760+945253831
922+944722695+944703856+944758837+943681283+941183674+937826899+934736137
908+933412380+933983378+935214637+936115685+936339734+935919450+935174452
895+935443699+937164859+938329655+937963220+936960538+935740032+935027619
881+936084475+937805796+937889400+936896258+936569200+937037027+936828017
868+935659986+935994483+937841453+939451679+941880158+945759256+950535843
854+956086294+961700054+967418682+974687543+983144325+991075307+999285563
841+1008651559+1018185895+1025824263+1029044312+1029993549+1032310124
829+1034681843+1035256479+1035647009+1038760571+1044342798+1048538443
818+1048236045+1043878367+1039631218+1038327755+1037555994+1036756581
806+1038497631+1039239960+1035230848+1030758275+1027659266+1023108911
795+1018219045+1015080013+1012878413+1010563213+1006115139+998298000+989712740
781+982838047+978068089+973753426+967164313+960266738+956533826+953196942
768+947330106+941349669+937093302+934141611+932300786+930810144+928227879
754+925266243+924389694+924965300+924403116+922544503+920318647+918390256
741+917482659+917478859+916695293+912903843+907200010+903991847+904059765
727+903727128+901363980+898108193+894917333+892388433+891339744+891499918
714+891744585+893586784+897705455+900847640+901979529+903717102+907613341
700+911519121+913365929+914873469+916612983+916756743+915238934+914352198
687+916485394+920431116+922388938+921678708+921816485+924077190+925744419
673+925138734+919764386+910426689+911735408+923443368+928673390+927684453
660+925918742+923399140+920747421+921468485+924834801+927591631+928987916
646+928767343+926616925+925024891+926460875+928483219+929947421+933459761
633+937355515+939399043+940232011+938713474+934365256+929260235+924920749
619+922290618+921226729+919832547+921776381+931579802+944351733+956734346
606+965207946+960293662+950815844+954033305
##END=
