##TITLE=Sample description
##JCAMP-DX=4.24
##DATA TYPE=INFRARED SPECTRUM
##DATE=13/9/2023
##SAMPLING PROCEDURE=Instrument type and / or accessory
##ORIGIN=Default
##XUNITS=1/CM
##YUNITS=ABSORBANCE
##RESOLUTION=4
##FIRSTX=4397.6552
##LASTX=599.8556
##DELTAX=-1.9287962
##MAXY=1.6253047
##MINY=0.23491229
##XFACTOR=1
##YFACTOR=1.513683e-009
##NPOINTS=1970
##FIRSTY=0.25404128
##XYDATA=(X++(Y..Y))
4398+167829916+169212451+169781846+168378382+167684949+168515218+168387675
4384+167457053+167699558+168212092+168056788+168037119+168322880+168964079
4371+170055714+171362645+172257256+171902822+170502508+169010977+168326700
4357+168446780+168736026+169176539+169563873+169635559+169914901+170106885
4344+168837147+166517847+165082478+164685054+164165235+163453117+163194074
4330+162991508+162335296+161969649+162142062+162174598+161900788+161647041
4317+161681654+161944330+161878658+160811712+159381472+159266540+160696800
4303+162092447+161793082+159904805+158422834+158568037+159623347+160571167
4290+160749565+159599130+157857977+157657547+159184862+160290338+160463263
4276+160473679+159877310+158581022+157505462+156805492+156117582+155559656
4263+155192532+155203577+156084200+157368725+157766622+156800088+155627897
4249+155782295+156682793+156635442+156299574+156817581+157081724+156522045
4236+156192881+156745423+157510256+157629934+157610481+157704091+157274269
4222+156626198+156764530+157756482+158375719+158018675+157620345+158060327
4209+158660150+158290054+157379288+156808987+156975750+157887894+158518589
4195+157930559+156811675+156465273+156944386+157642702+158168309+157991623
4182+157319720+157047633+157316698+157539750+157448227+157169791+156680844
4168+156285743+156592875+157252995+157488166+157467857+157390540+157266659
4155+157627217+158104567+157588085+156411317+155995966+156769758+157643745
4141+157813392+157997589+158444422+158141336+157162004+156629476+156739221
4128+156951720+157224683+157761552+158290054+158851051+159604761+159875696
4114+159494810+159423350+159887667+160158218+160016558+159679607+159397656
4101+159669763+160781825+162208541+163119238+163097226+162306088+161690189
4087+161958495+162789906+163516436+163664268+163539590+163806676+164669756
4074+165546529+165403216+164533146+164172333+164639455+165285734+165409339
4060+165428338+166079146+167054106+167860887+168164328+167751831+166951194
4047+166475773+166984920+167964173+168316146+168127845+167950352+167911427
4033+168008335+168081340+167988587+168015541+168151845+167913455+167726157
4020+168158323+168715451+169051142+169312824+169465528+169658300+170440548
4006+171575223+171783390+170985175+170579491+170901301+171230574+171373434
3993+171469455+171708357+172418388+173458439+174054531+174014859+173831066
3979+173566647+173286124+173328750+173877393+174628907+174661197+174023423
3966+173933427+174694234+175702587+176360108+176375091+176178303+176209982
3952+176117800+175723535+175662875+175840190+175885140+176783511+178625125
3939+180004904+179777894+177764280+176253238+177672551+179807781+179493649
3925+178459269+179527750+180645355+179842925+179422770+181265822+183367660
3912+184202654+184155953+182363167+178801713+176805582+177887846+180630628
3898+184154594+186080358+184716960+182953294+184360636+185955276+185737500
3885+185602141+184656674+184165679+186878711+188087927+185949153+183450234
3871+181747582+182992100+185344693+185435851+186630477+190486138+192703372
3858+190234222+182941874+178213436+184853501+193131087+196825518+195616578
3844+191719886+188274555+186104496+186356156+189771678+192841409+194231681
3831+195614570+196798663+196964244+195414514+191604668+190507363+193632930
3817+195896609+199292620+203738191+204905470+201960467+198547819+197742949
3804+196430407+196166580+200043504+203244617+205662163+208979813+211284444
3790+212301814+212719035+212551544+212737936+213071462+213157422+215233783
3777+219109999+221603307+221499449+220879415+222746999+226381753+230204928
3763+232546023+232224094+233125636+237235201+239709745+238877468+242311911
3750+257450271+274437944+292902007+320057353+341556140+350445275+352733407
3736+355707175+365454497+379597893+391968329+400923893+409219573+418825767
3723+430290527+444107564+458893085+472551157+483125007+491908925+505022764
3709+524064924+544497533+563707558+581533789+598483954+613641511+624653551
3696+631524956+634689074+633651681+632275014+636235182+643427276+648427476
3682+649662149+647916359+643274020+639339919+644271799+651590176+652746961
3669+653857281+658374952+660573895+658668076+655268876+651755915+648628654
3655+648541512+648028112+642958766+639528103+643256694+648030947+649016677
3642+646725946+644504322+643385142+641267041+636970434+631575399+625935358
3628+624637209+628761383+631704674+629747232+624706356+622069853+622430824
3615+623034910+623538860+623438054+621971134+621189063+622341595+623479361
3601+624264346+624137945+621260730+618490778+618979567+619962580+619640160
3588+620945751+624442331+625937603+624402363+622808767+622605383+622151876
3574+621471358+621509121+619649177+614566600+612631761+615802888+618638915
3561+621007731+624994557+628524766+628422109+625635501+623108309+621247381
3547+620436525+621628789+624184450+626188554+626092434+625415815+625892831
3534+626711247+627809911+629041041+628811826+627333604+626756531+627884571
3520+628746381+627590620+626294006+626827686+627896069+628771425+629519474
3507+628355877+625975917+625506776+626039117+625120446+623895500+624531639
3493+626651670+627702372+627033707+625908818+623819462+621450882+621185598
3480+622036422+621570589+620104496+619370426+619142510+618353469+617860191
3466+617465631+616213159+615390372+614794909+613144806+611912417+611694189
3453+611104239+610231994+609587940+609250674+609589239+609994470+609637516
3439+609067924+608496954+606787904+604538401+603488446+602566861+601256978
3426+600840052+600301489+599732252+600866671+601945252+601046467+599498272
3412+597901171+595299911+593500096+594801159+596925994+597247706+596482882
3399+595862769+595972868+597013727+598450326+598630674+596975609+595581025
3385+595596304+595863124+595897736+596543641+598384251+600169969+599505045
3372+596480362+593953525+593626340+593955218+593025207+592064009+591885748
3358+590608862+588557702+587622493+587187296+586681062+586652632+587413006
3345+589232628+590280417+588968052+587354413+586624516+585753177+584477197
3331+583024177+581372814+580057576+579904910+580389329+580053402+578483038
3318+576439989+574232817+571961735+570680793+570391922+569067784+566243058
3304+564335783+563839118+562544945+560574509+559445642+558894046+558907749
3291+559878398+560876060+561841865+562853190+562261429+560521113+558675778
3277+556178435+554713365+555163841+555042756+553636004+552473155+552186568
3264+552001810+550538946+548235377+547146518+547563169+547612115+545595488
3250+542486341+540413366+539557502+539235632+538222889+536029893+534776161
3237+534500993+532776349+530245141+528999836+529226452+529909883+530020848
3223+529409871+528379290+527161786+525920340+524693069+523586175+522330317
3210+520625086+519153441+518626810+518514506+518436382+518884061+519076616
3196+517589732+515043324+513144082+512545745+512616072+512129409+510686431
3183+509422303+508985019+508461302+507168193+505286631+503378253+502488682
3169+503231021+504553269+504576699+502993143+501244558+499773228+498358797
3156+498050710+498874482+499309876+498799232+497801767+497270411+497558928
3142+497619726+496867345+495461499+493288782+491119687+490016180+488961145
3129+487110691+485993402+485988322+485860740+485687756+485342575+483789615
3115+481243444+478824737+477292687+476521799+475763945+474470127+472468583
3102+470377573+469065011+468116887+466744944+465095590+463812049+463579172
3088+463991728+463775232+462963903+462247277+461859687+462122057+462583755
3075+462258696+461106007+459351672+457161747+455347008+454366239+453562156
3061+452340635+451080839+450405165+450156065+449595490+448312108+446915949
3047+446273863+446277092+446405817+446377386+446397350+446826090+446796911
3034+445481318+443827317+442569411+441392977+440522071+440431897+440820747
3020+441186719+441858376+443174836+444574067+446108637+448321165+450979010
3007+454087842+457924405+462678576+468913921+476559208+484900014+494391817
2993+505791683+518175704+530579099+542435426+551621977+556853085+559666627
2980+561545354+562589284+562789242+562562901+562587827+563524769+565632357
2966+568931932+573726465+580223511+587495305+593991209+599615420+605524564
2953+611275097+614992426+616943016+619272967+622021852+622643855+619688633
2939+614266467+607630065+600546416+594331901+589448967+584505746+578559862
2926+572399098+567142040+563171398+559339324+554452491+549108056+543600638
2912+537759459+532321109+527564221+523311874+519788005+517069440+514988984
2899+513807942+514241013+516321155+519300397+523142040+528429339+535192457
2885+542881531+550731815+558411714+565943712+572938014+578859681+582891122
2872+584248967+583640352+582200012+579567762+575163616+569240177+561683726
2858+552448308+542360098+531551126+518921076+504194188+489052619+475373913
2845+463079790+451149946+440002252+430464417+422129753+414490925+407572542
2831+401329164+395654786+390712707+386693552+383272734+380054827+377365165
2818+375640363+374358792+372951371+371957135+371822032+372141184+372551101
2804+372890336+372907426+372494949+371656293+370236429+368203658+366028499
2791+364081492+361782531+358461180+354653716+351351266+348670976+346145675
2777+343694757+341441710+339209533+336964873+334919029+333037270+331236195
2764+329664767+328446180+327587520+326863038+325911586+324841549+324083360
2750+323695612+323323635+322683480+321780717+320726155+319677953+318756880
2737+317942225+317175944+316369518+315441121+314416151+313387696+312435909
2723+311571520+310824908+310197924+309390986+308239241+307274184+306893840
2710+306668051+306213184+305611855+304904266+304113965+303189210+302109506
2696+301211331+300421561+299252826+297835029+296631719+295794776+295098784
2683+294108938+292747018+291355958+290137626+289086963+288070243+286858192
2669+285557917+284423951+283322648+282202839+281346797+280679117+279838019
2656+278951776+278366098+277865318+277064819+276170345+275483153+274878673
2642+274321545+273914955+273545380+273158262+272955332+272967755+272945881
2629+272882661+272868525+272780143+272648701+272639290+272822178+273184370
2615+273630120+274065415+274464012+274864301+275292764+275682284+276038786
2602+276532753+277093072+277505785+277919127+278389154+278657647+278708542
2588+278695036+278565505+278324437+278205479+278162892+277956575+277595702
2575+277098171+276536022+276107991+275772832+275357363+274829491+274229166
2561+273567924+272781068+271854581+271046619+270695295+270687164+270503646
2548+270060141+269811946+269828681+269675307+269278719+269065354+269163698
2534+269336663+269513211+269673299+269765658+269861601+269991683+270124581
2521+270300795+270559582+270874422+271156048+271382349+271709180+272134612
2507+272494973+272888017+273403130+273861678+274218455+274621166+275060970
2494+275395362+275544031+275618828+275854520+276172885+276290367+276200449
2480+276075308+276034553+276022858+275921402+275792973+275667990+275468978
2467+275245886+275048567+274872472+274697873+274437294+274146749+273910958
2453+273589108+273143831+272806486+272693572+272610151+272434765+272261781
2440+272052688+271769132+271543264+271350257+271022697+270592009+270261516
2426+270108122+270080420+270113005+270093414+270047028+270095757+270164766
2413+270193669+270285497+270451196+270615261+270750443+270821106+270890252
2399+271095959+271351734+271528124+271636667+271629067+271428047+270973830
2386+270156556+268733620+266292389+262649602+258174438+253376460+248484509
2372+243514393+238505176+233773844+229572589+225888554+223214958+222406898
2359+223711406+226940890+231988205+238827558+245878996+249594198+248044527
2345+243375136+240264964+240050260+241024413+242260465+243517406+244536095
2332+245495226+247319376+249961450+252312291+254266543+256691945+259935053
2318+263436811+266434482+268648939+270483407+272459868+274649025+276831095
2305+278794562+280533027+282169250+283741819+285217225+286471409+287478777
2291+288400618+289299738+290215081+291173858+291986407+292499000+292768931
2278+292979166+293305170+293685692+294008920+294278142+294482274+294709146
2264+295048912+295413329+295713324+295908517+295966441+295993769+296108770
2251+296245153+296299730+296233754+296172955+296249563+296363305+296476435
2237+296614827+296661627+296572634+296495966+296511324+296538770+296590137
2224+296676019+296722917+296807854+296989580+297079557+296999739+297028859
2210+297364018+297902108+298481426+298938182+299186849+299409488+299802748
2197+300288762+300775248+301253209+301737765+302262073+302733793+303150935
2183+303698338+304415240+305131964+305785430+306459568+307040461+307496547
2170+308079547+308785443+309496379+310313949+311225985+312120439+313010718
2156+313895938+314807068+315823926+316792232+317619764+318582794+319744343
2143+320902585+322077779+323303986+324507216+325703890+326957681+328218973
2129+329418384+330652270+331857134+332911696+334098014+335556034+337025671
2116+338479439+340054962+341625444+343068580+344508133+346150518+348092131
2102+350207633+352352668+354581932+357031195+359709595+362512782+365368261
2089+368297061+371474252+375019975+378814798+382735628+386843304+391254971
2075+395943106+400896329+406085303+411205997+416136460+421349808+427285847
2062+433680592+440101837+446426017+452659394+459025707+465676522+472384236
2048+479117704+486210094+493594389+500774512+507572361+514255425+521101472
2035+528000599+534683743+541069194+547319345+553676523+559963571+565908745
2021+571497753+576651484+581546035+586660744+591881180+596555533+600609143
2008+604474767+608274867+611887570+615174191+618130476+620935080+623288736
1994+624793497+626283335+628538075+630819356+632499188+633793046+634916124
1981+635803332+636482510+637085494+637546956+637792355+637495293+636547089
1967+636017505+636637460+637342903+637019104+636014473+635286270+635056897
1954+634844930+634505655+634196623+633731656+632857403+631680969+631304089
1940+632721197+634859893+636511925+638032595+639949912+642145075+644741491
1927+647748494+650818658+654418446+658691860+663323174+669348599+676804363
1913+683936603+690321070+696852020+703746186+710830465+718530289+726551904
1900+733846536+740321885+746717929+753064594+758557718+763788983+769956639
1886+776157686+781460776+786067124+789761102+792035374+793159200+794216321
1873+794896051+793444134+790878865+790437525+791301225+790613856+787929825
1859+784709004+781666325+777994477+773769772+769740379+765037399+758753974
1846+751389486+745269556+742336739+739645778+735013283+729987646+725367515
1832+719417379+712230798+707085296+704068055+701921839+700893778+699329163
1819+696561968+693890380+691406543+688250458+685284801+684235555+684063713
1805+682871370+680414310+677499450+675881203+676055644+675665337+673254584
1792+671898590+674225312+677058503+678203515+678229425+677784620+677683105
1778+678311093+678033877+675532399+672832224+674082530+678486952+682614867
1765+684326674+683852730+684170425+685762053+687173254+688725662+688930660
1751+686661744+685492004+688241401+692080839+694249421+694968450+696311843
1738+698200297+697497807+696465887+701357563+708653219+714773071+719032979
1724+721708819+723455987+722849735+719888016+720857720+728554945+737036407
1711+742849431+745309169+745897308+747236370+748060693+747095320+749746432
1697+757451060+767626058+778008416+784691363+788765725+791391477+791277126
1684+794423209+805952233+817036293+823396346+827232870+833051565+839739788
1670+846019984+855919498+866071658+871152817+874856403+882239870+889945522
1657+893037973+891094313+894876811+909540499+919293845+925117187+935004810
1643+946089894+953523213+955975627+952821589+950691675+958679346+968773936
1630+974669495+977844954+979339714+979657094+981683919+983600881+981578703
1616+980868023+987520491+994368034+997147043+998624398+1000918988+1003511979
1603+1005970614+1009125361+1013724306+1018486116+1022101025+1024466336
1591+1025519756+1025464077+1024755680+1023453790+1021734108+1020051519
1580+1017101140+1010692732+1005582906+1007986256+1010363538+1008609125
1568+1008897366+1013111675+1017721489+1019841953+1016764937+1017707550
1557+1031157001+1042234761+1046412134+1046583582+1045745950+1042998522
1545+1036010559+1025732314+1017350792+1022182693+1033971449+1039043630
1533+1041668280+1049043872+1055018343+1055626327+1054244108+1051385085
1522+1048701211+1050631089+1053423486+1055387071+1058616634+1060599751
1510+1057348451+1047898546+1044291591+1055784466+1065501822+1067032415
1499+1063694486+1062157435+1065983957+1068656569+1065380777+1062105457
1487+1065296588+1070797666+1073741823+1073373882+1070807274+1066602022
1476+1061830447+1058432585+1059332749+1063268897+1063322607+1057240952
1464+1051644738+1050010189+1045198055+1033633435+1026510093+1029093555
1452+1030715582+1027430261+1021315370+1016601443+1013742184+1008696464
1441+999477781+986790595+973026441+964806050+960410448+952288343+943105572
1427+940491161+942775434+944836911+945688089+948040642+955926957+966201894
1414+974008588+979430754+983502832+985718589+986766338+990964424+997842839
1400+1002159292+1004631946+1008651810+1014808361+1020756686+1022277041
1389+1019935198+1019200262+1022480621+1026536712+1029392113+1032136785
1377+1034832156+1037405459+1042160417+1047741037+1050291343+1050049015
1366+1047609674+1043725662+1042673660+1044288677+1044676228+1045339971
1354+1047339153+1047114545+1043476483+1039337148+1037896020+1038237027
1342+1034661417+1026310057+1019982293+1017997839+1016031103+1013060957
1331+1011727487+1011973201+1012262230+1013257450+1015304987+1017818593
1319+1020982160+1024242437+1026399522+1027879082+1030312123+1034062017
1308+1037203060+1039274381+1042156558+1045340522+1046756842+1046000091
1296+1044761992+1044877052+1045447156+1045684837+1047156679+1050922638
1285+1056015296+1060354667+1062802434+1063960519+1064810122+1065478905
1273+1065444961+1063464444+1059004894+1053750160+1047674647+1040364421
1261+1034742455+1031205198+1027896487+1025338306+1022976696+1019121113
1250+1014727559+1012208913+1011334108+1009974964+1007946249+1005755930
1238+1003681458+1002591418+1001913342+1000813378+1000541675+1002255609
1227+1004696840+1005819406+1005731595+1005710803+1006155136+1006499293
1215+1005889340+1005151883+1005589443+1006377145+1006749653+1006676806
1204+1005614408+1004311888+1003863145+1003480949+1002717582+1002189376
1192+1001034206+998852235+997709665+997225955+995010434+992105418+989837684
1178+987864727+986853047+986644190+985835854+984325186+982969349+981812210
1165+980150648+978445457+977660038+976634577+974306673+972402233+971132554
1151+967837546+963294043+960863208+959904293+957773276+954045985+949592184
1138+945820790+943767425+942617925+940600157+936897279+932589331+929408439
1124+927636857+925816211+922606179+918526226+914468402+910118714+905509924
1111+901680646+899089703+896715413+893630365+890585323+888193393+886511670
1097+885833436+885030928+884305915+885716880+887337568+887181004+887467277
1084+887865302+886582706+885890927+887707163+891092659+894290012+895610882
1070+896708404+900482869+905382342+908218290+908544176+908098111+908818163
1057+910762926+911835089+911583153+911978501+913224475+915251536+918152536
1043+919645563+919282662+918548986+916619501+913144776+910671728+910449089
1030+910892083+911163865+910923506+909618387+907946508+906359291+904601413
1016+902276345+899082930+896782669+896498445+896740851+897052797+896777629
1003+895046921+893632412+893549484+893894743+894276624+895260739+897024997
989+899104194+902734144+908819423+915053469+919864421+924260102+927746877
976+929012776+929308420+929739759+929670770+929016163+928773678+929719834
962+931120561+931598522+930852717+930132901+930887684+932315108+932473562
949+931599545+931251923+932135469+934043375+935077815+933272211+929754407
935+927009893+926033889+925888429+925217284+923509808+919995154+914954396
922+910862944+908863132+908012268+907686698+907665513+907460515+906504987
908+905172225+904674654+905611675+907365064+907445394+904273164+901106998
895+901305932+903718811+906398905+908028098+907632121+907280876+908095512
881+907601013+905581591+905231370+908910699+914654892+917167869+914951482
868+912652639+913956577+917295530+920039335+922521440+926634313+932682813
854+939484127+946493668+953759555+961996169+971206031+980166714+988686136
841+996327603+1002877690+1010058050+1018404763+1024919332+1027392616+1027464913
827+1026486782+1027086891+1031588339+1036510099+1039541673+1040450342
816+1037754262+1033564603+1030780318+1029130491+1028055020+1027416951
804+1025867536+1023458437+1022271765+1021480833+1019650107+1014851598
793+1003783524+993027318+991677073+994036242+990985530+985772221+982669531
779+978231481+970292480+961957107+955720699+951571992+948642641+944453534
766+937889271+932838904+930798849+928140649+925195941+925282807+926812455
752+925874490+922539159+919596656+918131429+917196772+915746193+913774654
739+912443467+912542068+912511353+909972782+905554735+901518884+898128347
725+895435889+894395307+893992320+892625694+891267967+891042414+891381137
712+891707496+892232473+893713608+896980579+901942819+906482227+907479337
698+906071916+906700298+909045606+911049592+913200534+915072370+915415739
685+913364107+911290974+911952039+913828601+915786594+917393185+917525493
671+914223948+908781936+911357207+919013164+921509208+921281529+920334901
658+917936827+915932132+916293930+917510136+918768789+921532126+925318326
644+928130805+927621579+921601902+914193943+912150658+914470449+920597783
631+929343939+930192597+924013600+921343194+921514249+919515775+914390750
617+908410057+908263731+918366590+931039365+935435833+935189646+940592833
604+946359786+943905009+945407172
##END=
