##TITLE=Sample description
##JCAMP-DX=4.24
##DATA TYPE=INFRARED SPECTRUM
##DATE=13/9/2023
##SAMPLING PROCEDURE=Instrument type and / or accessory
##ORIGIN=Default
##XUNITS=1/CM
##YUNITS=ABSORBANCE
##RESOLUTION=4
##FIRSTX=4397.6552
##LASTX=599.8556
##DELTAX=-1.9287962
##MAXY=1.8321625
##MINY=0.4604131
##XFACTOR=1
##YFACTOR=1.7063343e-009
##NPOINTS=1970
##FIRSTY=0.47220919
##XYDATA=(X++(Y..Y))
4398+276738964+277398993+277934264+277853502+276899037+276181127+276366525
4384+275739769+273796465+272496021+272384276+272543406+273097191+274364502
4371+275337848+275306217+275567854+277154927+278316675+277155573+274932102
4357+273902953+273989164+273829685+273709905+274745062+276245331+277017594
4344+277228405+277280243+277123558+276443776+275584953+275480298+275640022
4330+274899756+273285174+272027329+272508073+273993251+274468580+274305904
4317+274827518+275116942+274169742+272926429+272600711+273295985+274638853
4303+275682795+274409546+271607524+270747443+271748891+272303584+272190389
4290+272027190+272104510+272913120+274620025+276295387+276799797+276242152
4276+275616408+275072788+274123196+273335353+273211609+273243326+273568538
4263+274103914+273940801+273505958+273532925+273516525+272818718+271723251
4249+271565431+272674433+273536226+272873927+271295726+270598460+270940317
4236+271239277+271346621+271191526+271087290+271674714+271903463+271379631
4222+271855345+273259482+273810734+273619048+273449334+272635433+271749310
4209+272500335+273769323+274248757+274519615+274124279+273375402+273895391
4195+275132853+275390210+275073277+275256999+274927509+273050365+270817201
4182+269825848+270141837+271059013+272062662+272915076+273699443+273926130
4168+273653089+274246102+275249157+274855899+273547055+273020761+273509311
4155+274121537+273795662+272607138+271934639+272282643+273068285+273560364
4141+273488580+273623607+273946967+272917556+270894609+270271398+271130343
4128+271692931+271280706+270668707+271179527+272271465+272544331+272543458
4114+273046138+273754180+274103460+273716839+272706064+271537748+270507674
4101+269973503+270834789+272550287+272821826+271719234+271364576+271702031
4087+271696739+271870802+272757343+273766616+274113363+273922410+273838994
4074+273576013+272966617+273050330+274037037+274692805+274293993+273408884
4060+273020883+273259115+273566826+273939841+274620584+274956903+274220951
4047+273481122+273865140+274240740+273912647+273977549+274815501+275813352
4033+276478096+276471040+275854082+275191887+275209964+275909046+276024302
4020+275397371+275349113+275811710+276242624+277102757+278318597+278592651
4006+277257590+275659601+275032513+275362370+276498461+277658079+277670200
3993+276970140+276855495+277603044+278907330+280145282+280439928+279802482
3979+278976250+278474303+278485394+278732394+279002414+279720062+280620331
3966+280807948+280661533+280952529+281226164+281508969+282418250+282731620
3952+281572788+280528933+280383898+279865359+278894161+279370224+281359881
3939+282865582+283220171+282582166+281724373+282464500+284170986+284125540
3925+282495274+281632032+281698786+281799476+282776105+285554601+288110130
3912+288792078+288402645+286200430+281181277+276915856+276884802+279946557
3898+284227330+286853612+285978109+284346918+285525538+286289156+284535704
3885+283928544+283988137+283760332+285622298+286082903+283508267+280865427
3871+279333546+280894630+283556542+283829968+285031818+288625368+290116642
3858+286654276+278390014+273155666+280032017+288414382+291978590+291101113
3844+288047236+284664828+281467470+280678160+283029043+285481821+287755332
3831+290712798+292805853+293009293+291030325+286591103+285123303+288401283
3817+289989753+291891017+296162760+298173132+295485056+291916150+291637450
3804+290736761+289889727+293075244+296070192+298404413+301299807+302440527
3790+302092959+302014748+302575013+304063614+305016298+304743624+305916655
3777+308437584+309584068+308591772+307223963+307823944+309565869+311662137
3763+313192761+312785391+313360432+316464960+317708622+315379292+316305742
3750+326808566+337797915+349753116+372710975+396933281+412863710+421031615
3736+423425848+426527756+432965752+437942499+438051694+436362587+437958742
3723+443285710+451089210+460844887+470551205+476986791+481655512+492610872
3709+509726734+524983442+536210044+547412719+563785555+582216060+595635970
3696+602212434+602370743+597062708+591167056+591080356+593546932+592871569
3682+588185591+580061456+570232564+561005784+556236285+553244411+547243686
3669+543499599+542996866+540715601+536816104+532229087+525226460+515459082
3655+506939732+498086509+484234742+472112044+470687123+472805747+471527572
3642+466971400+461512740+455942509+450138483+444161196+436744771+426691619
3628+421510804+423155374+422678071+417555556+410967180+407247824+405095142
3615+401531301+398189973+395616332+393262619+392869816+392903350+390222120
3601+385915568+382188038+378905430+376556258+375771245+374197935+369763638
3588+366282445+367543154+369109897+367795498+365143017+363141483+361654279
3574+359945609+357819405+354127470+349429512+348116755+349803103+350262695
3561+349280145+348048918+346714538+345154502+343917651+343517687+342277447
3547+339724765+338603817+339275513+339634049+338957567+337475742+336141572
3534+335516929+334484217+332436119+330426027+329195953+328466271+327842955
3520+327190925+327096366+327741549+327649540+326015763+324002352+322912562
3507+322337557+321268551+320723866+321153836+320803474+319670614+319039229
3493+318678702+317962853+317272678+317001366+316581805+315693081+314958613
3480+314567207+314170700+313791555+313438783+312923370+312142618+311314779
3466+310829232+310570181+310322937+310221671+310267431+310339983+310159563
3453+309134640+307273006+305723310+305438339+305952355+306428086+306705197
3439+306648712+306202010+305722122+305258443+304784878+304632158+304672014
3426+304268487+303471597+303028772+302975955+302872733+302861031+303194521
3412+303826954+304342961+304143922+303324047+302852019+303167065+303318807
3399+302918318+302869869+303358349+303933774+304251685+304123557+304084329
3385+304348864+304266705+303646813+303021576+302872663+303015218+302919017
3372+302462743+301672525+300854816+301045087+302163591+302522755+301979817
3358+301824651+301963329+301762089+301338616+300905327+300647219+300410349
3345+299771908+299032480+298827607+298920350+298660705+298210858+297655484
3331+296674086+295702295+295025219+294407248+293885128+293336740+292524201
3318+291727398+291252611+290582435+289183589+287383679+285931196+285135651
3304+284271658+282897282+281840730+281650144+281704480+281387390+281053585
3291+281583390+282903640+283795857+284172435+285069247+286351439+287076021
3277+287261192+287707476+288478464+289282917+290159363+290709131+290775465
3264+291180932+292058042+292169001+291448751+291149249+291380390+291666670
3250+291657396+291164741+290961528+291705060+292746976+293314419+293551184
3237+293883941+294575827+295104828+294468203+293285741+292895225+293419842
3223+294685442+296368541+297617409+298182808+298601112+299035449+299241544
3210+299467900+300174806+301131717+301815884+302323751+303063074+303874670
3196+304387952+304705199+304971796+305281323+305752093+306208751+306549402
3183+306893791+307453672+308403142+309337033+309562725+308994635+308600260
3169+309486435+311146165+312197600+312599311+313148258+313838782+314407186
3156+314950509+315442343+316236788+317539519+318270843+317887750+317357422
3142+317286930+317538541+317939065+318018569+317484363+316907366+316669972
3129+316501358+316431286+316810222+317497602+317911294+317975603+317792877
3115+317025713+315856979+314846448+313986961+313286971+312902341+312469052
3102+311739999+311085489+310701768+310511007+310491900+310564557+310686503
3088+311075534+311930200+312904227+313492891+313782997+314118583+314292960
3075+314211500+314458186+314968813+315307613+315562297+315576654+315381283
3061+315421349+315659057+315811952+315911926+315910459+315442168+314729149
3047+314390524+314392794+314521796+314673608+314557950+314148449+313726093
3034+313196079+312217336+311128595+310596764+310365658+309695604+308647697
3020+307868342+307730224+308198968+308570708+307915954+306751620+306247630
3007+306328916+306426479+306381487+306610952+307671783+309151163+310522954
2993+312326078+315010975+318029397+320802182+323135634+324663778+325391679
2980+325772152+325975138+326148293+326143123+325421999+324337798+323702606
2966+323244131+322507987+321989465+321884217+321602530+321093370+320915534
2953+321094942+321125961+320941977+321036397+321507691+321718502+321222791
2939+320349820+319479330+318634584+317903330+317342506+316900589+316623269
2926+316509288+316443023+316243599+315651233+314644789+313774438+313393651
2912+313202646+313189862+313544799+313966072+314213456+314561373+315044579
2899+315155277+314908486+314920677+315318336+315713271+315975571+316355345
2885+316895035+317303243+317411286+317479402+317837903+318096116+317702195
2872+316969474+316416510+316241958+316402013+316427164+316142159+315886705
2858+315676279+315428161+315188287+314812146+314217753+313436687+312734251
2845+312666589+313156432+313602227+313997965+314535943+314855635+314778087
2831+314789755+315159399+315556045+315770523+315969667+316197874+316308292
2818+316482460+316958960+317356514+317446287+317773245+318459543+318984771
2804+319276867+319549786+320063662+321017674+321894452+322263258+322573274
2791+323010335+323082294+322806092+322751703+322924719+323031993+323160016
2777+323327023+323251642+322858034+322504040+322463519+322566742+322586932
2764+322499254+322305070+322152385+322331828+322785866+323133469+323192083
2750+323136333+323025181+322836412+322982041+323484599+323688878+323548838
2737+323443205+323284512+323051240+322997900+323087150+323230962+323532804
2723+323862627+323936367+323851134+323907758+323954706+323812884+323794231
2710+324012482+324231048+324395785+324609879+324820481+324877489+324843186
2696+324830366+324845736+324983540+325198823+325224322+325087880+325032514
2683+325052250+324995766+324730323+324306954+323888371+323439258+323060706
2669+322966601+322941940+322684286+322258053+321823227+321439226+321178638
2656+321119638+321256360+321420398+321385397+321182585+320975756+320769381
2642+320554099+320477285+320662491+320931987+320998042+320854684+320688026
2629+320530276+320350519+320304025+320364422+320354711+320460099+320833376
2615+321278297+321595823+321747775+321921035+322325750+322795892+323035521
2602+323175421+323491271+323985306+324640374+325334915+325768344+326002280
2588+326267653+326481923+326618504+326768605+326965757+327317691+327747068
2575+328064001+328273135+328410031+328517480+328605577+328640054+328653713
2561+328677710+328725182+328757389+328753966+328779990+328776846+328791831
2548+329151206+329653799+329662741+329267737+329040962+329221173+329684294
2534+330177944+330541440+330648400+330506928+330423896+330616403+330970573
2521+331325336+331615616+331803686+331911031+331984666+332171968+332650214
2507+333233883+333608557+333829638+334141226+334554464+334944788+335232378
2494+335267414+335216868+335523217+336118762+336703130+337256233+337758966
2480+338057175+338082466+338040828+338099862+338170388+338207136+338177444
2467+338075270+338039605+338107372+338251534+338380326+338284474+338142303
2453+338291251+338529378+338644337+338704349+338675496+338762615+339186158
2440+339619133+339785686+339846956+340006627+340231131+340372848+340505936
2426+340751225+340992251+341219690+341519750+341699927+341644770+341560900
2413+341632090+341912449+342259562+342473797+342699349+343120866+343632960
2399+344087837+344339867+344394954+344473724+344615161+344728549+344746399
2386+344601853+344188509+342974399+340525393+337448566+334482331+331353246
2372+327655338+323865212+320560981+317629118+315016285+313335176+313234155
2359+314675110+317321582+321114224+326167470+331493600+334442020+333340563
2345+329611357+326957549+326790297+327865765+329411410+331091226+332329893
2332+333297318+335050385+337657840+340046204+341848525+343819529+346303291
2318+348785726+350960869+352908993+354828055+356853202+358856169+360754830
2305+362643746+364413580+365879371+367009856+367879334+368868032+370214044
2291+371721892+373309664+374794249+375861438+376564956+377165252+377823989
2278+378547034+379341653+380230168+381208911+382301670+383433832+384429097
2264+385124057+385647679+386280950+386923059+387484442+388121136+388789269
2251+389504070+390388359+391216303+391749181+392131017+392610101+393197577
2237+393754768+394309583+394941772+395553246+395963270+396219981+396703048
2224+397485930+398086331+398270035+398437706+399006704+399784416+400253929
2210+400396170+400641877+401139580+401729082+402278902+402767313+403281923
2197+403837926+404415901+405113551+405873239+406580530+407346540+408122262
2183+408716270+409273356+410115762+411238213+412213881+412861789+413506588
2170+414400377+415515248+416606191+417535366+418471527+419492607+420583759
2156+421768388+422928564+423984121+425043835+426115600+427219852+428498830
2143+429828703+431082636+432335730+433585016+434914470+436373415+437825793
2129+439196571+440512402+441911859+443452787+445038917+446726174+448608941
2116+450569326+452414333+454168658+456022048+457872888+459596403+461503099
2102+463713977+465986090+468261940+470619600+473179443+476023104+478940085
2089+481717900+484482650+487480009+490835973+494498880+498249289+501891132
2075+505464160+509259876+513447697+517731159+521800423+525958203+530686133
2062+535894160+541349222+547006606+552720894+558425681+564152963+570000235
2048+576036800+582029561+587763969+593470502+599563726+605944854+612359098
2035+619022891+625872729+632247989+638063438+644166442+650777210+657209477
2021+663043161+668183666+673128415+678805396+685075303+690982063+696246155
2008+701064382+705471607+709762860+714070879+717758866+720818717+724355242
1994+728308987+731458682+733934829+736702025+739809242+742698418+744981046
1981+746978144+749319595+751882722+753712009+754536809+755194707+755766884
1967+756138624+757494730+759700578+761098184+761522670+761455881+761205842
1954+761715701+763124415+764154402+763996302+763174227+762357042+762486986
1940+764354349+766805625+768639524+769919410+770897769+771807871+772915616
1927+774296245+775940535+778262495+780886961+783037967+786198560+790979062
1913+795561223+799566108+803484712+807320250+811267079+815654323+820511324
1900+825414784+830174677+834922972+839572481+843947429+848484109+854048681
1886+860010703+865126336+869728758+874404884+878612930+882418008+886452514
1873+889214610+888874867+887271795+888154791+891781369+896103501+899489192
1859+900999556+900835518+900153378+899431625+897480846+894038008+890676419
1846+887831536+885609690+884904844+884699377+883910976+883023299+881481846
1832+876952222+870570115+867237311+866330212+864610609+862747368+861219399
1819+859375859+857678193+855780650+852095317+847858488+845849863+845292986
1805+844143673+841426290+837588447+835510658+835850051+835074993+831534486
1792+828833660+830291138+832780070+833105002+831808278+830980963+831502978
1778+832489511+831937455+828654113+824771977+824890674+827961493+830715205
1765+832119168+831982377+832267487+834099150+836213338+837773723+836900857
1751+833312425+831621326+834232308+837477575+838366020+836897155+836106937
1738+837347560+836754495+835427800+839877921+846454246+850939158+853202014
1724+854517461+855879715+855320254+851937567+851312575+856830897+864021037
1711+869864571+872351407+871512075+871164997+871085144+868172634+867950610
1697+873152035+879965195+887888265+893983165+897228153+897896809+895322226
1684+895855768+905070391+914383033+918932288+919854897+921535865+923767632
1670+925998911+933773313+943697673+948179581+949562794+953450310+957139415
1657+955972846+949123427+945047003+952877505+959199110+960571075+964660704
1643+972720705+979315194+980528781+975299900+971186308+976795453+983741492
1630+987301490+990143719+990951193+988516684+989233406+993301797+994615916
1616+995216037+999633043+1004190193+1007069519+1009860887+1012729872+1014846086
1603+1016827465+1019062795+1021058706+1022435003+1023510401+1025792958
1591+1028417215+1028653141+1027236463+1026792485+1028296701+1030285975
1580+1030112505+1026904126+1024561347+1027038961+1029498202+1029739647
1568+1031876681+1036208593+1039119147+1036009764+1023478893+1018220390
1557+1033267369+1045546455+1051210651+1055386630+1059468853+1060409835
1545+1055522513+1046107034+1035745263+1037691990+1050327725+1057090095
1533+1058775255+1062769102+1065373238+1063172210+1059217836+1053938304
1522+1048388963+1047939116+1051265913+1056261173+1061449394+1063237322
1510+1059633450+1049538695+1042881259+1051425549+1060800229+1062965556
1499+1061539936+1064975369+1071747170+1071435652+1063609202+1059513216
1487+1065316300+1072194851+1073741823+1071193857+1066769586+1060143728
1476+1052861579+1049616103+1052695026+1056564936+1054572379+1047143169
1464+1041593338+1039810719+1034460836+1022123205+1014877595+1019495456
1452+1022810725+1019409874+1012621375+1006667738+1001872774+996513529+989459482
1439+978008131+963109959+955844019+955143015+950971088+945493216+944013452
1425+944334751+943945127+941020460+938038926+943258305+953894916+962824430
1412+968821243+972499869+974967632+977080842+980281607+983578083+985744458
1398+988928106+993352168+999331655+1007886494+1015068180+1016466275+1013175946
1385+1011310540+1012115848+1013295831+1016002036+1020197158+1023632731
1373+1027543720+1032501673+1036245970+1037623594+1035805485+1032311507
1362+1031574803+1033484573+1034886160+1035221642+1032860628+1027123425
1350+1021953858+1019463878+1017206401+1013453441+1008958050+1005220041
1339+1003284352+1002420429+1001307025+999723445+998809710+999823629+1001628394
1325+1004001913+1008261029+1010897301+1009128934+1007563309+1009325947
1314+1012709403+1016407031+1019483649+1021625922+1024878943+1029075811
1302+1031287597+1031812756+1032160393+1032540796+1033868329+1036166326
1290+1038651835+1041371734+1044792076+1049835891+1056056405+1060838024
1279+1063018023+1063712040+1063793919+1064171388+1065488302+1066555736
1267+1066510814+1065680634+1063683676+1060452661+1057557756+1056290375
1256+1056367993+1055932748+1053293191+1051142535+1052938358+1054996866
1244+1051852970+1045857903+1042555000+1042238661+1041720698+1039255100
1233+1035241832+1032163817+1031530371+1031494391+1030759365+1029391661
1221+1026757344+1023806130+1023404279+1025926396+1028302011+1028206508
1209+1026100704+1024068185+1024665303+1027121819+1026891201+1023998742
1198+1022715222+1022955551+1022404822+1021684467+1021609085+1019905201
1186+1015941605+1013215070+1012152945+1010800471+1010092691+1010493704
1175+1011378446+1012683973+1012816852+1010621762+1008119836+1006916938
1163+1005598138+1003582457+1002197287+1000871920+999004208+997111764+995261448
1150+994556532+994278269+992937322+991367715+988815976+985003703+982060593
1136+981511751+981500782+977575192+971053429+967564831+967861258+968012791
1123+965255446+961490330+959047158+957014989+953908889+950940908+949980713
1109+949615680+946769540+940562230+934623194+932297112+931585978+930850812
1096+930150647+927692944+924412326+924070697+925516019+924202459+920337718
1082+917776059+918452680+920510908+921235595+921470544+923480217+927133343
1069+930442324+931908535+931660871+931060051+931696292+933592927+935016661
1055+935003457+933959218+932651246+933221047+936350761+938581061+938223363
1042+938303007+940572011+941637349+939292055+936945084+937134202+939593582
1028+942392845+942110879+939383575+937601934+935797937+933618078+933984508
1015+934864360+933747394+933300411+934093354+934389363+934223718+935221988
1001+937941327+939636478+938576310+936774828+936188190+937411138+940099179
988+943251389+946772474+949854681+951227834+952420951+955221401+958314088
974+958600875+955761860+952866466+951667551+951259063+951078118+952363244
961+954073765+953935227+953043219+951937570+949665073+948237776+950802999
947+954923576+955430151+954517813+956058008+956376583+952020288+946634774
934+943217995+941297816+941010819+941625332+942355399+943354087+943042429
920+939718148+935081913+932759534+932602692+932429432+932022062+930515261
907+927793127+926183698+925945396+924287272+922284725+923376051+923891569
893+920352599+917182295+917798206+921605169+926424794+929025018+928487703
880+927731787+929670480+932915118+933924077+933285670+934139464+936353416
866+938448182+942145112+949359214+957037345+961753643+966005982+971633570
853+975920142+978722129+982548864+987976644+995512046+1005566490+1016100543
839+1024662369+1029427221+1029652529+1027612744+1027866835+1032685762
827+1037564001+1037869791+1038177816+1045407218+1053796064+1049744301
816+1038315935+1032473868+1032355311+1035034759+1037270787+1036232067
804+1033955308+1032443547+1032415113+1032942857+1032528990+1031066412
793+1028377602+1024982200+1023861950+1023767636+1016973548+1005349496+997956126
779+994566802+990344923+985734538+984509354+986761241+988520317+986199614
766+980304312+973704653+966643201+959565400+954625192+953129849+954544221
752+956025033+955187378+951645404+948221708+949413288+953787677+954990225
739+952344451+949176383+945516131+942573790+942145880+942233837+940332521
725+936204957+931721722+926678256+920927011+918401750+920430147+924242280
712+928089834+932261132+935957713+937438525+937603261+938650155+940529744
698+942231951+944375970+945945927+945385767+946557786+951423171+951989339
685+946676063+946097390+949353415+948588068+945907223+943049555+941068875
671+939575558+931756164+924063012+929713795+937455012+938215539+935070944
658+935462875+939770824+940309047+934860657+931832524+934876516+938422263
644+937084181+931807793+929521323+933029763+937072583+937714832+931898544
631+924421618+930927102+945316463+943944847+936945643+938137921+929944692
617+914265034+916844788+929847582+932748775+935062142+940881573+942513568
604+946107310+949714886+939279479
##END=
