##TITLE=Sample description
##JCAMP-DX=4.24
##DATA TYPE=INFRARED SPECTRUM
##DATE=13/9/2023
##SAMPLING PROCEDURE=Instrument type and / or accessory
##ORIGIN=Default
##XUNITS=1/CM
##YUNITS=ABSORBANCE
##RESOLUTION=4
##FIRSTX=4397.6552
##LASTX=599.8556
##DELTAX=-1.9287962
##MAXY=1.6942582
##MINY=0.30276844
##XFACTOR=1
##YFACTOR=1.5779009e-009
##NPOINTS=1970
##FIRSTY=0.34076196
##XYDATA=(X++(Y..Y))
4398+215959034+215615852+214682403+212999523+211791452+211711276+212202799
4384+212903613+213634213+213668758+213552922+214756233+217035215+218615649
4371+218558818+217380759+216257473+216876675+218744102+218857974+217120321
4357+215409697+213897011+213061379+213131376+213111261+213066554+213248477
4344+212840530+211962194+211653311+211667079+211512827+211546182+211246289
4330+210194586+209434579+209147133+208668188+208434023+208597021+208994146
4317+210253420+211650799+211384393+209711826+208731706+209180885+209651878
4303+209835954+210744132+211832060+212044712+211726253+211371077+211012728
4290+211154817+212076311+213019600+213448173+213552714+213205811+212543262
4276+212438381+212450601+211483778+210204653+209784750+210539978+211780498
4263+212149896+211704420+211681377+211953694+211824864+211408644+210326835
4249+209060799+209456526+210412886+209863038+209144696+209300838+209817784
4236+210794070+211820596+212051531+211349376+210394319+209789283+209657053
4222+210107837+210718010+211359443+212069379+211767768+210337639+209615010
4209+210607444+211876823+211746538+210413245+209276719+209292112+209776119
4195+209530149+208735030+208381006+208626428+208870906+208815566+208628997
4182+208624181+208506135+208183804+208857685+210369520+210858778+210267963
4168+209827303+209835708+209981216+209805507+209302746+208986118+208988593
4155+208996771+208681768+208197082+208028871+208279449+208753880+209297230
4141+209630478+209500269+209053622+208426109+207761540+207369005+206988916
4128+206168338+205530645+206388243+208472421+209836803+209581012+208443410
4114+207716173+208048401+208446262+208252176+208230796+208189527+207415638
4101+206730821+206895235+207245916+207439247+208038107+208679747+208358096
4087+207364245+206679089+206722756+207450768+208391886+208832716+208625427
4074+208515465+208769859+208600099+208162688+208200198+208141062+207766621
4060+208042149+209056323+209643775+209051034+208189262+208209963+208528328
4047+208500544+208804630+209504047+209931863+209679680+208555960+207715719
4033+208183880+208596870+208052329+207419113+207085431+207056042+207225423
4020+207334252+207643041+207898643+207753475+207841925+208235310+208652304
4006+209168646+209168155+208532162+208522643+209313266+209545013+209117310
3993+209054415+209056379+208655137+208906565+210080148+210850750+210790443
3979+210541376+210514292+210389069+209701514+209345979+210028585+210865936
3966+211257961+211289446+211072034+210865879+211021870+211434104+211418352
3952+210632205+209547412+209111851+208896290+208200708+208867166+211240264
3939+212492550+211187304+208398553+206968783+208644031+210475157+209564505
3925+208187827+208887734+209554457+208754598+208737656+211252144+214128494
3912+214772080+213368903+210160022+204880090+200402624+199871645+202820088
3898+207656262+210959900+209884815+207401189+208804536+210606858+209404794
3885+208483111+208019805+208448245+211565107+212038631+208645505+205268697
3871+202990697+204000961+206371282+206472650+208012175+211835875+212712493
3858+208199556+198405630+191880513+200176864+210873812+215598513+214589477
3844+210387407+205789477+202381524+202265292+205932756+209475829+211382240
3831+212845648+213508801+213152133+210769743+204590812+201725870+205718895
3817+208640084+212213017+217526229+219080920+215541171+211658089+211189759
3804+209757703+208383027+211622468+215071840+217946831+221544658+224050080
3790+225049635+224594035+223291867+223047918+222641425+221191994+222551541
3777+226331102+227628075+225417673+222966061+223735625+226474626+229300358
3763+230800144+229480751+229104270+232765804+235696323+234420881+236604010
3750+253820408+276331811+300838111+332221719+354279013+360669765+355938982
3736+346389325+343878823+351346227+360249295+363823003+363046999+363560658
3723+367723802+373531691+379311778+384772027+389357756+395612670+411014337
3709+435823702+464279644+493882838+523709281+550792454+568170641+571899829
3696+565783548+554153604+536536266+516905501+506144903+503279319+498383989
3682+488053833+475076959+460668085+445915198+439972378+438462375+432527600
3669+429899581+431689457+429845223+424099284+417696973+410562287+402567435
3655+396743341+389599325+375751367+363921066+365986433+373236180+376534813
3642+375707095+373916577+372090551+369303424+365339164+358784432+349341565
3628+346169364+349549590+348877352+341251521+330345679+323271848+319613185
3615+314848084+311637258+311852214+313400824+316005706+318214050+317648261
3601+315350637+313135778+310373772+307427652+305712248+303267190+297419354
3588+291952324+291798619+292893857+291619511+288812099+285777455+283438298
3574+282137868+280262697+275415190+268546966+265598146+267484347+268960807
3561+268758089+268235949+267183661+265053435+263083846+262085368+260374838
3547+258054323+257452157+258210313+258448596+257789749+256782602+255766841
3534+254493553+252527515+250127012+248436634+247747700+247344475+247288474
3520+247644764+247752101+247153883+245720883+243941395+242843210+242605495
3507+242024237+240705279+240363796+241385959+241895463+241418804+240843043
3493+240310987+239471238+238618626+238191339+237671578+236727817+236278431
3480+236633890+236758962+236264076+235825192+235938440+236252291+236126463
3466+235524373+234901186+234678108+234845563+235002535+234882355+234591302
3453+234268574+233497367+232087069+231145574+231394471+232034638+232477130
3439+232657485+232696356+233016194+233402364+233326229+232994738+232792077
3426+232533434+231913703+231398381+231620439+232318704+232815648+232865567
3412+232649383+232267783+231952120+232219753+233081185+233860835+233914002
3399+233478914+233287397+233353106+233590991+234065705+234267800+234136174
3385+234257506+234764064+235341827+235795368+236172454+236466454+236722623
3372+237083937+237415277+237474791+237411915+237586359+237807378+237891899
3358+238173131+238345478+238161950+238458537+239268936+239439035+238758072
3345+238107233+237894184+237907915+237820769+237398430+236829298+236306762
3331+235945900+235826533+235581621+235205876+234919582+234383749+233521203
3318+232607151+231672889+230745182+229824085+228575425+227008798+225668157
3304+224511610+223057664+221848592+221962313+222521359+221882514+220855251
3291+220850341+221574386+222291802+222568520+222462336+222452647+222391414
3277+222105403+222071217+222519092+223423852+224293084+224531442+224587688
3264+224688169+224270797+223573987+223459964+224041675+224913910+225967294
3250+226790876+226573841+225562614+225017621+225480265+226353691+226846140
3237+227068935+227775774+228535309+228515534+228589138+229515882+230195051
3223+230038437+230278061+231577603+232812928+233110592+233121717+233602834
3210+234505402+235595522+236660767+237489183+238006904+238466206+239541555
3196+241306481+242879984+244127133+245518864+246512073+246787809+247165725
3183+247969796+248883584+249694549+250243225+250660427+251130778+251716380
3169+252544645+253340066+253884002+254740221+256111082+257379932+258211824
3156+258594255+258855410+259656893+260617804+260791492+260600730+261111387
3142+262029197+262189551+261477329+260788546+260825565+261240047+261257329
3129+261129500+261273043+261360001+261128876+260794269+260595253+260440736
3115+260043422+259152148+258183115+257673951+257315470+256600396+255300816
3102+253815913+252881595+252535164+252234912+251779520+251682118+252416382
3088+253800766+254809500+254717726+254294499+254380909+255001470+255466269
3075+255156743+254790669+255123558+255753582+256025333+255908081+255858860
3061+256043560+256316311+256520937+256522731+256439948+256399699+256148913
3047+255554548+254781546+253969259+253217884+252350370+251252167+250110485
3034+248946686+247836074+246839220+245774693+244670578+243799249+243521209
3020+244165738+245289477+245514274+244146473+242062673+240261483+238923449
3007+238041505+237621999+237400980+237269260+237407364+237855012+238840515
2993+240963903+244076250+247054932+249283050+250907209+252009945+252734652
2980+253389456+254099280+254582814+254402308+253568905+252311104+250710630
2966+249059632+247805118+247201044+247121529+246988751+246454334+245937143
2953+245809049+245898877+246043308+246193406+246219055+246013107+245760829
2939+245608201+244976552+243689495+242635204+242166005+241975583+241980060
2926+242044938+241839500+241264155+240690018+240416378+240164497+239606452
2912+238929342+238752783+239571851+240860363+241578308+241764272+242059160
2899+242390009+242416111+242318464+242434526+242823265+243535185+244499610
2885+245260523+245483809+245416872+245436591+245583950+245841592+246077494
2872+246040664+245868242+245811938+245784703+245532954+244954567+244292359
2858+243934652+243981001+244032545+243543458+242541032+241665737+241469781
2845+241968973+242743240+243415421+243899031+244316969+244813706+245341266
2831+245914270+246581786+247178720+247611655+247792746+247647031+247508209
2818+247703674+247962902+248063099+248273958+248661110+249129062+249731530
2804+250378742+250985799+251649991+252360645+252906319+253206533+253433672
2791+253755530+254029925+253913636+253544597+253463211+253693807+253768279
2777+253590720+253376273+253105051+252795129+252541775+252319735+252168032
2764+252188298+252365235+252403954+252263489+252363705+252651227+252827030
2750+253010105+253193614+253179071+252958259+252667337+252525343+252517731
2737+252351201+252026056+251862095+251986185+252175984+252187958+251986242
2723+251663930+251433164+251424419+251526845+251605454+251599675+251547565
2710+251495228+251372177+251223647+251221834+251390857+251601394+251533928
2696+250986630+250408508+250229929+250215461+250191021+250287913+250308745
2683+249975649+249504070+249066111+248490765+247879987+247476214+247126194
2669+246677941+246281307+245954066+245596869+245228188+244910296+244791891
2656+244882531+244881606+244654750+244454488+244412029+244328377+244133592
2642+244016944+244059308+244128058+244229993+244465518+244609099+244486483
2629+244367153+244427932+244487408+244541993+244804659+245219594+245626918
2615+245957881+246147868+246300723+246645323+247198155+247696572+248067859
2602+248577892+249247278+249827478+250321872+250851076+251330719+251711771
2588+252124705+252591524+253003437+253428931+253960307+254445541+254790423
2575+255036601+255103594+255001716+254991895+255089939+255039698+254920859
2561+254956160+255099401+255154023+255014729+254911529+255022908+255183903
2548+255335436+255474692+255502985+255509993+255575928+255576835+255575532
2534+255828452+256309455+256688618+256777936+256689997+256599640+256645650
2521+256912867+257279848+257475766+257395476+257213535+257190398+257473821
2507+257922735+258243215+258415958+258648801+258998009+259316940+259526136
2494+259714953+259983039+260394877+260911710+261436929+262021038+262613779
2480+262952806+262982648+262833967+262615630+262491899+262484268+262318306
2467+261895003+261621533+261763793+262024136+262161616+262190684+262143107
2453+262184772+262453123+262745839+262830341+262818064+262841012+262947669
2440+263310230+263813766+264047100+263998711+263973534+264010666+264036920
2426+264102024+264153832+264182409+264337719+264587806+264765328+264836061
2413+264884224+265010693+265148930+265177393+265226972+265469032+265848044
2399+266226886+266799360+268275480+271751163+279028316+292658899+314644214
2386+344879964+381183701+420916997+462502233+505654324+550777004+598628412
2372+648612235+696954033+740349241+778259647+807289158+823379797+828162066
2359+823749837+804852618+769163362+723989194+681170956+658079921+665402989
2345+695903143+717633988+713424156+700505907+690914321+686274386+687026781
2332+691192720+692500478+688144760+680842241+672036972+660717347+646085792
2318+626877574+606246009+594447401+594228006+593082490+578879828+552444339
2305+523739048+502639681+489045644+476690540+463321490+448697603+431805123
2291+414018781+397841903+383808698+371638426+361849014+354761773+349720671
2278+345722301+342212621+339167305+336718639+334793756+332987713+331140268
2264+329509953+328266109+327293223+326305454+325195220+324006376+322726911
2251+321543696+320678203+319965245+319273515+318716264+318204984+317684865
2237+317299412+317030533+316821790+316676811+316568246+316546564+316616371
2224+316655411+316690466+316834482+317007868+317119303+317273650+317557602
2210+317872038+318165925+318601844+319235967+319789630+320192950+320796060
2197+321606628+322349731+323098349+323947976+324800739+325645758+326489417
2183+327318797+328212016+329149016+329979491+330782580+331734577+332714149
2170+333628144+334521817+335366987+336361102+337578881+338648621+339507881
2156+340389465+341297266+342225842+343244737+344389838+345663448+346945897
2143+348206626+349562849+350963570+352321078+353765693+355408626+357056318
2129+358561260+360070432+361617040+363200024+364965497+366886262+368839589
2116+370830049+372850236+374870160+376912484+379015058+381387910+384179381
2102+387106954+389946700+392852930+396027398+399526576+403350579+407558297
2089+412201745+417223581+422510898+428032758+433850053+440054765+446643758
2075+453539859+460746581+468109992+475437404+482850905+490505030+498369711
2062+506386925+514574202+522848246+531020828+538916408+546372745+553510982
2048+560633278+567800752+574892941+581927751+588986774+595908524+602527133
2035+608831418+614886316+621035272+627408950+633435026+638682037+643389513
2021+647883865+652220847+656670020+661485683+665944602+669636393+673249462
2008+677055786+680714185+683740161+686037312+688346476+691010344+693173471
1994+694297796+695379208+697444424+700148635+702533726+704043503+705044002
1981+706116877+707266209+708230444+708920436+709482069+709718236+709317674
1967+709044261+709639967+710357837+710680583+710998192+711553555+712457880
1954+713568681+714369504+714639744+714996563+715678773+716011567+716888544
1940+719511917+722576045+724903341+726809298+728927776+731533017+734721500
1927+738274734+741256060+744132750+747933408+751967211+756926870+763200257
1913+768625375+773089205+778418300+785141129+792399376+799248750+805426793
1900+811165743+816468321+821434402+826978209+832701672+837348104+842002998
1886+847431819+852650083+857446481+861559989+863982628+864816616+865564252
1873+865980377+863821103+860313652+860465657+863875499+865973729+865253669
1859+863270273+861675655+860303453+858088121+855108155+851244413+845287050
1846+837657554+832678025+832234551+830624142+825496536+820367118+816476480
1832+811216135+804901348+801212956+799279121+796817272+794796102+793078791
1819+790641948+787666515+784518074+780835575+777124368+774956934+773959608
1805+772518808+769848896+766911464+765679557+765282999+762731398+757727919
1792+755461063+759191687+763018560+763247248+761707176+760183649+759613781
1778+760093594+758981962+754158971+749041187+750552777+756777963+761642657
1765+762502257+760683332+760788874+762877132+763884658+764167136+762924577
1751+759680415+758354072+761028139+764820562+767534141+768901281+770267590
1738+771461042+769212015+766430895+770672836+777901468+783923879+787547752
1724+789300571+790580754+788413093+781597868+780170893+789456429+800036125
1711+806704709+808573194+806843342+806007238+806123659+803985312+804699782
1697+811320997+821323043+832021804+838396426+841149669+841618225+838174991
1684+838559386+850437018+862282240+867377284+868002378+870007608+872335583
1670+874045339+881992822+892642929+898398652+902230134+908464914+913856036
1657+913098579+903566676+897329629+908080217+916195495+917781124+924060705
1643+933790471+939663068+939794675+933950258+930647243+939442162+948663935
1630+950849424+950064996+950162455+951524608+956410078+961070790+959663609
1616+957579884+962361700+968179977+970424093+970849889+971675794+972516884
1603+973433297+975426212+977852326+979374191+980336613+981535580+983150673
1589+985565379+988339398+990261145+991763292+993750465+993702038+989310886
1576+987051283+991564144+993531296+990990196+992806023+999388557+1003655127
1562+1000392154+986574113+978790044+993107918+1008004424+1017539877+1024260893
1549+1029550174+1032238596+1030043587+1021768447+1012570850+1020271740
1537+1037996056+1047206949+1049919093+1052652391+1053232080+1050427162
1526+1047446591+1042806203+1037229835+1038309661+1044053975+1050871241
1514+1057876095+1060755052+1056336325+1046599004+1046323778+1061131740
1503+1071681292+1072872326+1068158126+1064428107+1066257533+1067524721
1491+1062491174+1057875793+1063103048+1071190901+1073741823+1072159594
1479+1069306702+1064780620+1059250337+1054630347+1054067202+1056678714
1468+1055890735+1050442876+1046171017+1044579496+1039585537+1029424460
1456+1024798351+1027487225+1026884795+1022367552+1015734023+1007275600
1445+998903153+992215605+985974932+976397927+965155211+959859432+955756502
1431+947119405+939629449+936954702+936389669+938093305+940153912+939284188
1418+942538549+953394302+963916127+969450641+971865045+973573743+974928946
1404+978121206+982885344+985660420+987323260+990717841+996403982+1003585849
1391+1009111448+1010802468+1010842886+1012200658+1014152021+1015497402
1379+1016523739+1017689541+1019816555+1024802053+1030544176+1032467132
1368+1031609346+1030287913+1029090381+1030432212+1033653332+1035921397
1356+1036538105+1035222944+1032977165+1030194534+1026388134+1022887029
1344+1019597689+1014488291+1007753449+1001602378+998402110+998081856+997205334
1331+995128559+995150242+997432359+999809744+1001877981+1003880717+1006692133
1317+1011255990+1016457407+1020369878+1021375590+1019880092+1019132305
1306+1020447769+1022221440+1023844994+1025687792+1027954196+1030889512
1294+1033403112+1033200187+1031066599+1031397505+1036240668+1043468619
1283+1050257780+1054724632+1056836235+1058086726+1058992940+1058493937
1271+1055590200+1051585106+1047895354+1043350158+1038360052+1034675211
1260+1031159978+1027000990+1023316754+1020306870+1017281952+1014167659
1248+1011672191+1009770087+1007702303+1006073838+1005635350+1005470426
1236+1005014561+1004817377+1005012219+1004646636+1003470636+1003125905
1225+1003460210+1002455933+1000980985+1000924172+1001994781+1003034565
1213+1003151516+1003332532+1004624651+1005351209+1005733564+1007549542
1202+1008952190+1007970049+1005722458+1004102681+1003741631+1003517023
1190+1002056580+999573124+998036829+997905524+996506654+993412608+991833099
1177+992109459+991341425+988516561+985090628+983071573+982570228+982125243
1163+981359324+979263738+975730600+973539368+973344904+973522823+972774356
1150+969888071+965553506+961647684+958881749+957067735+955221764+952980972
1136+951158799+949348336+947125373+945830005+945257115+942692443+937764363
1123+933876824+931788944+928038224+922431182+918394962+917110548+917116290
1109+916022185+911989062+905815099+900807465+898696618+897901538+897675645
1096+899160264+901800712+903020908+901744654+899862948+899207331+899094990
1082+899167668+900910741+903250654+904536956+906019233+907089237+906745186
1069+906653771+908358843+912252578+916016066+917131626+916675158+916060338
1055+916062075+916644409+916706057+917248577+918646843+920052286+922888407
1042+926024004+926535095+926103029+926775871+926968899+925984492+925261712
1028+923964077+921243547+919502665+919193593+917585375+914845429+913617451
1015+912276225+908546130+905602503+905097985+904086078+901775025+900090805
1001+899408217+898743232+897508379+896446232+898101743+903442247+909908661
988+915874637+922104356+928304913+933562765+937345669+937866733+934797618
974+931421245+929108833+926763934+925906978+926831626+925843819+922435186
961+919832740+918949644+918814034+919291278+919842939+919570433+918919047
947+917483837+914792696+912847755+912178917+911022862+909336224+908349853
934+907516922+904992820+901306695+898050445+894574271+891195934+889060836
920+886470024+882382959+878643193+875983330+873193143+870109599+867236989
907+864071549+861329412+859915658+858324968+856114698+854377744+852891841
893+851629941+851090822+850861832+850775177+851470910+852598408+853287644
880+854911198+858204014+860754935+862930906+867460237+872567369+875728351
866+878738310+883466713+890441272+900001430+910393159+920273041+931000813
853+942293316+952708617+964289869+978443273+991696204+1001475984+1008637527
839+1014951408+1021275261+1025402141+1027419080+1030851511+1035582936
827+1038497778+1037645960+1035635669+1036049679+1036825646+1036438456
816+1035798780+1033326959+1031212183+1032910758+1034527512+1032390525
804+1028745650+1027049568+1027470982+1025809880+1020171561+1013946829
793+1009670210+1006767456+1003874900+998644925+989680549+980908597+976437212
779+973909182+969708264+964669882+959285484+952589324+946860498+943042161
766+938800824+935849340+936961652+938664080+936098426+930928739+928143842
752+927833183+926974716+925723922+925475441+925902521+925754747+924803505
739+924551095+924375670+921752976+917506351+913403949+907998322+901793610
725+899604192+902835510+906286149+904636605+898920849+893555036+891697279
712+895342532+902915895+909871113+913435982+914845429+917792985+922612803
698+927100279+930973238+933838974+936098350+939380891+942844977+944303532
685+943094970+940825545+940017999+940764577+941067378+941250736+943305828
671+946090121+945690315+939371448+931707879+928295469+931967693+937735806
658+936477079+931348945+931515984+939777827+949173439+949214236+943322524
644+943771967+948444917+947296266+942854799+937438217+928027798+921602104
631+924984370+933297738+936233433+932446676+928046912+918687715+903825433
617+900737356+917679661+935196065+935361594+931525654+934169275+934051343
604+928741059+922480667+914527216
##END=
