##TITLE=Sample description
##JCAMP-DX=4.24
##DATA TYPE=INFRARED SPECTRUM
##DATE=13/9/2023
##SAMPLING PROCEDURE=Instrument type and / or accessory
##ORIGIN=Default
##XUNITS=1/CM
##YUNITS=ABSORBANCE
##RESOLUTION=4
##FIRSTX=4397.6552
##LASTX=599.8556
##DELTAX=-1.9287962
##MAXY=1.5984895
##MINY=0.23310198
##XFACTOR=1
##YFACTOR=1.4887094e-009
##NPOINTS=1970
##FIRSTY=0.25019458
##XYDATA=(X++(Y..Y))
4398+168061398+167849778+168308071+168765182+168623368+168785882+169414055
4384+169421862+168951979+168937445+169719964+171108755+172354731+172771725
4371+172482071+172210855+172500208+173056654+173189239+172810862+172333851
4357+171358971+169383826+168051469+168648532+169074374+167682470+165835967
4344+164759591+164286554+163799555+162785828+161685269+161306581+161282378
4330+160763789+159957387+159535899+159349113+159198521+159541395+160031718
4317+159683269+158820614+158441586+158590567+158708548+158579366+158596643
4303+158807161+158534784+157991171+158001481+158765812+159912565+160404740
4290+160202679+160402568+161024975+161607075+161804721+161098094+159846663
4276+159199752+159483840+159833580+159439088+158552691+157900305+157415818
4263+156853747+156579909+156828944+157455545+157842501+157461311+156975522
4249+157075667+157132190+157050523+157709155+158396874+158034422+157158825
4236+156742102+157498386+158713373+159118375+158952519+158464188+157644674
4222+157099029+157176022+157816696+158684796+159211123+159360644+159978507
4209+161190441+161347059+159863709+158784510+159294201+160213459+160552639
4195+160203670+159665452+160052477+161157851+161612730+161110416+160366143
4182+160071385+160256159+160603898+160896634+160787961+160233148+159670256
4168+159442962+159466444+159457465+159373316+159288326+159234925+159137333
4155+158966612+159039511+159422232+159837454+160073367+160113074+160279622
4141+160462514+160400946+160255679+160130471+160432105+161021652+161100356
4128+160649591+160405550+161463019+163422228+164466104+164454223+164212024
4114+163889600+163641345+163598815+163730910+164147313+164843200+165405010
4101+165567894+165656217+165988001+166596535+167509977+168466460+168915604
4087+168648112+168055733+167984365+168864356+169965816+170373661+170287519
4074+170239434+170087130+170136877+170855035+171498663+171383714+170652064
4060+170063868+170483224+171494219+172312051+172853061+172795587+171998955
4047+171533696+172210635+173413330+174485523+175023110+174766788+174239330
4033+174177532+174640729+174829127+174441341+174213626+174545579+175055901
4020+175214050+175042849+174860497+174899994+175193451+175582838+176357970
4006+177238562+177241624+176879963+177074086+177152100+176624742+176205406
3993+176488754+177147255+177466237+177836987+178818293+179490027+179228340
3979+178704365+178266272+177706824+177438470+177968230+178948516+180003151
3966+180796080+181135100+181650787+182288249+182512320+182696394+182697295
3952+181861586+180735963+180676647+180853134+180026814+180837559+184240171
3939+186711464+186299556+183806162+182177464+183797994+186070860+185926984
3925+185096800+185863204+186329484+185453857+185999272+189100600+191663139
3912+191890273+190629123+187304604+181519383+177330809+178463658+183386726
3898+189193748+192187634+190253388+187763598+189973844+191683999+189784646
3885+188764042+188312516+189087267+193381701+194677245+191919841+189516633
3871+187808700+188877609+190835257+190505066+192377133+196820468+198326550
3858+194345611+184838196+179903397+190606001+201575977+204639249+201775746
3844+197365622+193500814+189788209+189597189+194179274+197823395+199892328
3831+202843554+205071978+205140502+202153482+195740408+194097057+198747087
3817+201518863+205816440+211517282+212629252+208655521+204786588+204586319
3804+202716754+201198281+205490232+209779121+213595384+218375917+221265185
3790+222303385+222606011+222587593+223294260+223209200+222419334+225335107
3777+230687800+233394075+232250696+230472477+232440315+236798109+241248830
3763+243924056+243097055+244005012+249851832+253889404+252966172+256769723
3750+276131281+299690342+327826524+369764515+402591065+415180950+415339020
3736+412860480+418959397+433003215+445459094+451278228+454442735+461036760
3723+471373999+484619744+499340521+510884139+516377044+520140677+532018290
3709+552447537+572463433+588336257+601980538+616936257+632467479+643018119
3696+647408544+648716779+647031789+645645880+652922510+664656387+672524335
3682+675249067+673469307+666808459+659868747+664033479+673265835+678800740
3669+684982816+691663923+695780610+699346456+702582231+702224853+699335246
3655+699270625+697218848+686043658+675145129+679364873+691088981+700247226
3642+704942619+706808300+707602810+707149182+705865090+704169569+699543602
3628+697856009+704101185+710238339+710928910+706991674+705101009+707223172
3615+708811952+709675888+710527411+710226087+711938023+717206357+721823676
3601+722898851+721528197+720495542+721959564+725457106+726783238+724310183
3588+723696003+728022087+732191864+734354946+735871738+736063999+734591089
3574+733650040+733392837+730948850+726239765+726963648+735322659+742394616
3561+744407316+744912593+747094012+750362778+751334575+748146446+742620429
3547+738913009+741502253+749116802+755702058+757483981+754706158+751274839
3534+750598601+751806060+753881620+756170661+756590337+755348284+754560581
3520+755304483+757549242+760345642+761557907+758632985+753637630+752183537
3507+752536430+750022937+749080928+753649160+758131472+758539377+756777794
3493+754017268+751346026+751267632+752546920+752636845+752834071+753275768
3480+752822780+752533467+752495111+751741039+750490819+750703900+752835672
3466+753524883+751745764+749828674+748950244+748906683+747767528+745031105
3453+743188245+742360664+740634714+738082705+736014432+735766759+737226216
3439+738429913+738729796+738543300+738068532+737759440+737767848+738393799
3426+738032257+734063791+729045453+726403679+724689982+723348956+723779042
3412+724417564+723075738+721379016+721985588+723566841+722767046+720327303
3399+719825389+720730884+719271266+716370688+715801671+717090167+717330794
3385+715401933+713545621+714153074+715045997+714337248+713506304+712700263
3372+712088805+712744625+713548183+713310279+712925996+712559089+710269888
3358+706261064+703988198+705346681+708673822+710503068+709670923+708345912
3345+707345047+705810799+704069155+702347369+700608528+700154018+700937959
3331+702168000+704183903+704579396+702972759+703678946+705935797+705429719
3318+702202833+699400667+699055221+700395526+701348746+700840747+700477284
3304+701820231+703215068+703396279+702598646+699759486+696029645+695715268
3291+698165902+698637707+696971574+696906312+700529973+703915009+702780658
3277+700799107+701160729+701760815+702051089+703324852+705188371+706336415
3264+706484795+706253136+705191334+702238947+700152577+701403278+702576305
3250+701614918+699344214+696454206+695751542+697294759+696715733+692405343
3237+687846640+686621083+687556606+687930719+688245096+689849170+691668328
3223+690789498+686279560+681183870+678990920+680762512+684248763+685693007
3210+684846367+683243975+681037572+679402508+678573325+677503836+678193046
3196+681473503+683072373+680958537+678847504+679256690+680525969+680829695
3183+679409555+676634535+674488029+672815410+670838023+670065213+670014485
3169+670313568+671748242+671620081+669333643+668076616+667253519+665400089
3156+665061009+666766859+666605707+663586657+660933913+659540037+657677519
3142+655145729+653405686+653562073+654428051+652980124+648954564+645433079
3129+643340424+641125212+639314743+638844179+637669870+634596489+631071081
3115+627845996+625090115+623185356+621886730+620932069+619410593+615748856
3102+611029961+608425422+607844634+606035646+603041700+601634812+601590530
3088+601206527+600129471+598395874+595586942+592431764+591096223+591129094
3075+590375502+589364108+588956683+587572816+584280548+580202459+576384774
3061+574202154+573471504+571496199+568209737+565366613+562997456+561305259
3047+560587461+559600129+557747740+556214693+555233607+553993036+551972768
3034+548726584+545194529+543276919+543119691+543013230+541644538+539936365
3020+539556847+540229242+540885261+541612908+542972912+545132791+547687923
3007+550445286+553962447+558749726+565051435+573320802+584478535+598247774
2993+611757768+622760395+631401433+637656978+641090820+641613193+639263095
2980+634880998+630090435+626667724+625490813+625702172+626481028+628388428
2966+632092846+637089643+641760933+645535456+649065228+651958359+654280592
2953+657318420+660681234+662181491+661013428+658791370+656171137+652375393
2939+647445859+641340936+634707994+629461962+626227508+623964772+621155961
2926+617175443+612570856+607522290+601838524+595927664+590391037+585043068
2912+579334639+573514985+568525395+565354722+563730188+562156662+560848748
2899+561147149+562846754+565372498+568613878+572450100+576489513+580327737
2885+584892967+590716985+596449797+601396026+605693523+608912402+610457220
2872+609239191+604492389+597336874+589307894+581027998+572366381+563097711
2858+553418453+542986685+531216373+518294855+504868740+492141044+481279270
2845+472002312+463269348+455065323+447900920+441684811+436136293+431192226
2831+427231487+424542388+422370418+419915340+417403969+415490883+414659738
2818+414800711+415225753+415401238+414918463+413633329+412266759+411452791
2804+410832365+409809760+408328682+406447986+403941500+400934621+397890788
2791+394827296+391552524+388143025+384790901+381795713+379229491+376761761
2777+374395967+372224237+370095508+368061708+366014375+364132759+363058104
2764+362390914+361286752+359990008+359105052+358596532+357874611+356658222
2750+355340178+354051441+352657726+351461596+350511740+349415865+348270063
2737+347380464+346640205+345892058+345040935+343919116+342652120+341610977
2723+340776309+339950449+339375787+339200181+338973367+338438502+337881616
2710+337350154+336621787+335767741+334920521+334077185+333366494+332871907
2696+332221192+331030829+329597596+328249403+326890660+325657816+324642658
2683+323500300+321943069+320012587+318185442+316822696+315586709+314184705
2669+312817314+311683464+310719013+309703575+308516794+307260428+306199066
2656+305495362+304906126+304155637+303335243+302619027+302102439+301732390
2642+301370388+301120732+301007485+300806796+300551375+300411342+300406858
2629+300633332+301114366+301537826+301738015+302048708+302838514+303887084
2615+304592790+304975972+305590752+306499950+307332997+307946436+308451953
2602+308990522+309655670+310314071+310803753+311233619+311557345+311566934
2588+311413309+311318880+311102095+310566369+309836080+309050078+308236430
2575+307358061+306332272+305156022+304007237+303043768+302079597+300971712
2561+299861123+298744549+297607996+296626790+295884349+295337292+294941018
2548+294632727+294246983+293681289+293179716+292919650+292685809+292431890
2534+292393593+292616444+292852046+292838273+292677682+292767646+293251343
2521+293817377+294221899+294619054+295195919+295892797+296501431+296998160
2507+297585034+298325493+299040208+299520481+299845348+300249029+300749622
2494+301204111+301456529+301538527+301590796+301537826+301279342+300976736
2480+300781072+300479026+299865627+299116660+298462002+297922893+297340904
2467+296651113+296008066+295461049+294891151+294224222+293531948+292924675
2453+292314299+291626169+291072546+290765677+290492639+290060991+289470734
2440+288901256+288573107+288378603+288054017+287574784+287001383+286436790
2426+286062597+285995013+286081014+285968167+285715469+285551534+285327463
2413+285008401+284807572+284824628+284983958+285127093+285111078+284952288
2399+284966462+285317673+285651468+285754946+285864750+286004982+285850817
2386+285066576+283322330+280407058+276381858+271523611+266231475+260934054
2372+255725437+250338812+244882801+239713020+235318031+232463897+231505352
2359+232635559+236062094+241639919+249141421+256710887+260521064+258582114
2345+253279928+249662854+249103305+250011523+251662361+253334260+254504344
2332+255719371+257766464+260465151+263052954+265471217+268423605+272027327
2318+275457845+278019624+279819283+281535923+283548703+285645843+287719201
2305+289794480+291651092+293230103+294744893+296193421+297389270+298352979
2291+299295449+300309266+301371028+302390431+303166744+303656106+303980452
2278+304162203+304318351+304669562+305132359+305479307+305704419+305935397
2264+306188376+306345525+306459392+306651033+306817030+306892361+306945011
2251+306974178+306918045+306774450+306611556+306447461+306293215+306252837
2237+306323063+306307809+306215602+306250215+306412067+306647970+306899868
2224+307018640+307009131+306970034+306919086+306895464+306983307+307191924
2210+307505099+307915587+308358745+308834314+309329622+309788855+310267327
2197+310747821+311184113+311618663+312019301+312441159+313001348+313598492
2183+314138542+314686159+315300338+315980160+316604550+317095513+317654060
2170+318463084+319335027+320051924+320737651+321467761+322134790+322841618
2156+323701409+324559179+325335452+326219747+327333338+328555192+329788576
2143+330973194+331972778+332854490+333857477+335019174+336224372+337400202
2129+338531270+339676471+340914920+342219511+343504725+344746057+345992954
2116+347333539+348748075+350185792+351806282+353656749+355434747+357047910
2102+358862463+361059938+363337368+365528116+367905961+370687186+373778424
2089+376989216+380232037+383589006+387189645+391069748+395113085+399175120
2075+403438705+408257054+413477743+418599938+423562863+428744195+434382678
2062+440312356+446310018+452442047+458815544+465328412+471788911+478211935
2048+484811365+491554771+498172899+504723403+511529868+518474384+525144041
2035+531567665+538031847+544460156+550690878+556841325+562716471+568043780
2021+573093147+577981202+582774967+587908573+593064641+597334472+600967702
2008+604982092+609259009+612927833+615824527+618309313+620704895+622846276
1994+624260612+625627422+628023204+630812957+632980644+634573908+635879060
1981+636894699+637616860+638242331+638755055+638933303+638672217+637873303
1967+637091605+637065940+637248152+637153343+637055611+636745278+636114482
1954+635636631+635593630+635691483+635321854+634105345+632271574+631579961
1940+633325689+635659132+637082236+638366168+640186086+642405061+644954187
1927+647499270+649700148+652758675+657281705+662155506+667895965+674936452
1913+681707004+687771449+694376004+702137811+710210793+718043387+725739532
1900+732985493+739355346+745144732+750812482+755714150+760234898+766533404
1886+773806350+779357670+783185124+786569839+789681176+792306375+794136182
1873+793647641+789911634+786095231+786304148+788461625+788409896+785479129
1859+781548459+777760883+773701611+769239398+764493078+758942397+752032434
1846+743612405+736547416+733919415+731931938+727791950+723211866+718592946
1832+711963167+704222179+699207205+696160328+693877773+693626416+693087748
1819+690498743+687637482+685210791+681981983+678842139+677949697+678065085
1805+676930895+674106148+670808195+669381888+669645297+668565958+665227806
1792+663929341+667294558+670446813+670915776+670421229+670021772+670547428
1778+672161272+671807018+667479332+663153728+665035585+670879902+675816162
1765+677539229+676533399+676829999+679044330+680845390+682160792+681279480
1751+677792668+676817588+680849874+685541904+687803959+688511587+690351564
1738+692643568+691391746+690090518+696120851+704592368+711925131+717662387
1724+721632856+723898594+722326390+717621148+718658608+728419342+738519117
1711+745100770+747730453+747791310+749391861+751854907+752073113+755143211
1697+763780245+776098594+789480907+799023356+805573299+809214016+808615051
1684+813613610+830597163+846861637+856896791+863083992+869924210+875974241
1670+880610057+889649631+899533602+903543147+906158657+913651891+921120541
1657+921650321+914143875+910614944+920311538+925937489+928210755+938718675
1643+952307503+960300969+961584581+957087936+955002047+964619847+975090532
1630+978274097+977899904+978847518+981396725+986588907+991043592+989796815
1616+989543856+997791963+1005358066+1007203087+1007567031+1008934802+1009761182
1603+1010787031+1014525840+1019745007+1022408962+1021825692+1020204561
1591+1018928797+1018846159+1019277766+1018185695+1015570426+1012605628
1580+1008638522+1002398071+997456366+997160807+995251324+991826972+995520699
1566+1003873144+1009276244+1009641309+1004626655+1005695584+1020248042
1555+1031057607+1034223316+1032561427+1029012637+1024072052+1017083135
1543+1009094633+1003523934+1013023462+1030924602+1040256531+1044881057
1531+1053207558+1058831187+1056702777+1052988631+1050494436+1047817509
1520+1048329993+1050904343+1055034402+1060715926+1062122294+1056115663
1508+1045102226+1041821449+1053301566+1061723597+1061389922+1058616744
1497+1061641600+1068333998+1069547864+1063670555+1059080622+1062902951
1485+1069217952+1072202610+1072619323+1071582184+1067740397+1061273893
1474+1056331867+1059409653+1066163309+1066619980+1061721115+1058231901
1462+1054973785+1046669305+1034315803+1029683670+1035016865+1037365882
1450+1032318477+1023095050+1015980574+1013693775+1011774523+1004622091
1439+990964317+975757161+968424078+965491790+959106242+952770100+950514210
1425+949094070+947776986+947638455+949598946+958047562+969896188+978784579
1412+985169647+990135775+991602840+991090356+994313079+1000791514+1006693646
1398+1011871254+1015034320+1016971990+1022235278+1028071668+1029364008
1387+1028761680+1030657469+1033508641+1035679651+1037607791+1038731412
1375+1039109448+1041952933+1046900884+1049645155+1050168288+1049688796
1364+1048338561+1048605533+1050205283+1050743391+1051516922+1052316877
1352+1051021894+1049327335+1048468924+1045949826+1041067137+1035362711
1341+1029824363+1025661233+1022648148+1019386269+1016931071+1016516119
1329+1016873336+1017242245+1018935363+1022054308+1024192406+1025098622
1317+1027942106+1032674333+1036195417+1038313417+1040317068+1042766901
1306+1045906745+1048506400+1050053780+1051523968+1052200527+1051619258
1294+1051336591+1051871096+1053364506+1057045901+1061992571+1066301199
1283+1070241479+1073085684+1073741823+1073163517+1071786937+1069229003
1271+1065098143+1059356322+1053057656+1047530598+1043241589+1039104724
1260+1034313561+1029777759+1025926443+1022174661+1018614340+1015422847
1248+1011836101+1008593680+1007710606+1008742220+1009617847+1009415496
1236+1008925834+1009254144+1009932144+1010125126+1009741724+1009008312
1225+1008546596+1007895501+1006349321+1005377684+1006136000+1007932256
1213+1009766868+1010566262+1010202078+1009182076+1008061418+1008288352
1202+1009450489+1009580051+1008766083+1007772024+1006965583+1006248987
1190+1005210967+1004135391+1002811101+1001712544+1001798385+1001444611
1178+999567799+997690347+996401290+995099581+993880750+992733507+990692941
1165+987790361+985351739+983338878+980867505+978364022+976299353+973959784
1151+971204783+968583268+965638889+962638216+960914749+959266553+955707433
1138+951702372+949183194+947059829+943590394+939364805+936236732+933818449
1124+930438698+926880459+924500772+922448595+919316758+914546015+908226128
1111+902757446+901065448+900625193+897089615+891708055+888589991+889185673
1097+891028773+891658648+890896488+889438152+889015192+890518612+892896617
1084+894851582+895860855+896088029+896336104+898122350+900560812+900730172
1070+899441836+900280708+904352552+909103757+911666977+912488953+913452342
1057+914613198+915462960+917109074+919754452+920607177+919210818+918516563
1043+919020959+920331556+922661916+923687845+922250968+921227442+921413538
1030+919793128+916583058+915210962+915787186+916158977+915683969+914541290
1016+911900958+907932331+905477614+905367590+905191423+904416132+904569156
1003+905498433+905935086+905637284+905302008+905780299+906896153+907826311
989+908704020+910342606+913588471+918016731+921703492+924605591+928600803
976+933413987+936626299+937714367+939236203+942344257+944426944+944016636
962+942909591+941994888+940556089+939290094+940352057+944012873+947589770
949+948510719+946655367+944593421+944878730+945728973+944321324+942276914
935+941783888+941613247+940126324+937455402+934881692+934130663+935210323
922+935963033+934565314+931172191+928327745+927769698+927715007+926956050
908+926483925+925809848+924324366+923462672+923585588+923560365+922870113
895+921741047+921229204+921994967+923115545+923509677+923254956+922670725
881+921898235+921730797+921935871+921372299+920954304+921947962+923378753
868+923748062+923371947+923906611+926212869+930591162+937084252+943725802
854+949044823+954256063+960296806+968107539+978480852+989726268+999704568
841+1007493602+1013320382+1018321824+1022609792+1025758845+1028371311
829+1030661233+1032852021+1036178121+1040168128+1042346504+1042227592
818+1042382538+1043228137+1041923945+1038836791+1036416666+1035009738
806+1035494436+1037263786+1036012204+1031361174+1027391026+1024356881
795+1016581301+1001562482+989734917+989591581+993745823+993198186+988958664
781+984351915+979666531+973568054+966748656+960818898+954977704+948908294
768+943546272+937975093+932632609+930306253+930909062+931084508+927478624
754+922080327+920678444+923022737+924415412+923176002+920256766+917096663
741+915131768+914762779+914069885+912078805+910552565+909301784+906515393
727+902696028+898988287+895213444+891495694+888712587+887447232+888143089
714+891341468+895234904+896457899+897917917+903652371+909092546+911017724
700+911998089+911362049+908963625+907649984+907142625+907413281+910684609
687+914188477+913860407+913836225+918501349+923609131+924529199+922327521
673+918189935+911387193+905123279+910335079+920645453+923035629+920213285
660+915324670+912286602+914282886+917854658+922402231+929572761+934708489
646+933128597+929428865+929637462+931659931+930191825+940252202+992685542
633+1047901829+1010827149+949028808+931412177+931385432+923484213+919202971
619+925380483+926700769+917827272+915555127+925717441+937285242+943755029
606+949427024+953712430+950753476+944554824
##END=
