##TITLE=Sample description
##JCAMP-DX=4.24
##DATA TYPE=INFRARED SPECTRUM
##DATE=13/9/2023
##SAMPLING PROCEDURE=Instrument type and / or accessory
##ORIGIN=Default
##XUNITS=1/CM
##YUNITS=ABSORBANCE
##RESOLUTION=4
##FIRSTX=4397.6552
##LASTX=599.8556
##DELTAX=-1.9287962
##MAXY=1.7919114
##MINY=0.40275672
##XFACTOR=1
##YFACTOR=1.6688475e-009
##NPOINTS=1970
##FIRSTY=0.42487144
##XYDATA=(X++(Y..Y))
4398+254589735+254051209+253221721+252148293+251418275+251403149+251465366
4384+250281076+248574741+248030107+248319872+248846183+249532985+250098281
4371+250225930+249944738+249636258+249092553+247999909+246792100+246544498
4357+247963586+249634365+249378763+247804650+247510171+248679300+249001155
4344+248057769+247747986+248391125+248328283+247570263+247860885+248902007
4330+249073677+248804074+248624851+247374521+245602291+245445390+246621663
4317+247142224+246567571+245512286+244263010+243647408+244532470+246145621
4303+246751044+245700563+244311923+243615139+242752025+241821050+242488369
4290+244486039+245368386+244246759+243193993+243628175+244154165+243751378
4276+243368841+243389288+243429790+243694196+244140343+244199757+243915904
4263+243973621+244449823+245177538+245870161+245367225+243905689+243077112
4249+243349286+244248224+244594848+243991800+243763235+244351086+244351550
4236+243549225+243521813+244187524+244457288+244330763+244333621+245029173
4222+245615095+245271810+244871808+244666619+244111253+243311999+243036199
4209+243870848+244632921+244171220+244060643+245099444+245676616+245432032
4195+244925168+244676156+245498178+246356542+245618166+244110074+243290730
4182+243220869+243489097+243706911+243799666+244068643+244402196+244431411
4168+244228794+244082340+243458363+242145405+241546358+242218802+243152437
4155+243856240+244463341+244537524+243511705+242151941+241897965+242981447
4141+243926118+243243174+241684436+241338240+242449028+243168331+242616679
4128+241792620+241898197+242999341+243966585+244055196+243706161+243515687
4114+243569476+243604424+243304534+243223244+244087555+245141089+245564753
4101+245238469+244309905+243679731+243794362+244221330+244554310+244284279
4087+243292444+242724523+243287783+243866294+243819774+243848561+244457966
4074+245251309+245143697+244315495+244438608+245516965+245815212+245136107
4060+244824216+245278025+245508357+245072961+245231487+246447243+247367771
4047+247611801+248009303+248705391+249046854+248646048+247711252+246576892
4033+246076421+246724918+247666268+248298353+248495148+248102057+247639963
4020+247431595+247518707+248235885+249361941+249977561+249765193+249820285
4006+250744724+251614231+251970802+251926068+251392452+250821906+250828621
3993+251769256+253648385+255361256+256138580+256508187+256578637+256532385
3979+256997069+257184060+256184350+255240375+255596946+256462364+257062554
3966+257452341+257321120+257199614+258002493+258922485+259063510+259037527
3952+259564249+260199334+260395237+260261123+260079667+260413095+261125380
3939+261622976+261820754+261600011+261414698+262354869+264018666+264574068
3925+263996379+263809977+263521248+262372852+261993887+263859640+266294493
3912+267376064+266964579+264529673+260425863+257914042+258435086+260682340
3898+264051096+266294903+265735519+265373358+268146424+270008212+268962732
3885+268015578+267016778+266481359+268764883+270104092+268551372+266039784
3871+264085437+265168848+267236432+267469997+268942392+272125031+273149850
3858+270258599+263683453+259979323+266739586+274623280+278132971+277259571
3844+273893226+270553043+268338826+268764865+272164122+275256615+276918215
3831+278536062+279877986+279867450+277499976+272378704+270240688+273679572
3817+277150690+281131584+285254895+286299839+283889899+281386382+281356702
3804+280509553+279909595+282666713+285307969+288035550+291763449+294193087
3790+294973608+294552837+293454729+293610058+294652252+295272819+297259167
3777+300568688+302421708+302052333+301510235+303200640+306299400+309648708
3763+311863568+311508158+311938000+315566180+318758945+319744029+322461699
3750+331927239+343646712+359801439+388279491+416540674+435304174+445669293
3736+450077047+454914286+462104678+467650273+469122275+469667409+473203441
3723+479858234+489443244+501505591+513672371+522611313+528632433+538088150
3709+554358705+573439899+591674944+609963670+631559595+654151427+671603718
3696+680767815+681278697+675631132+670559310+671352920+673701322+671873089
3682+666991919+662762281+658654649+651238283+643538473+637692255+630097165
3669+625559370+625555155+624719614+621189296+615493872+608029503+599800810
3655+594408865+588699654+576586804+564307983+562260524+564193049+562842803
3642+558070317+552265566+546520460+540850930+535649565+529864601+520762186
3628+513949671+513760768+513348427+508496544+499325554+491551313+489009794
3615+488217826+486599854+484042334+481293984+479683976+478038109+474249136
3601+470169469+467619165+464720379+461277315+459203070+457042677+451699877
3588+446138674+445621720+447719002+449288758+449367476+447667285+445240844
3574+443106095+440796588+437063225+431907791+428587984+429176906+430895920
3561+431179041+430065522+428111532+425183637+422496862+421216048+419659293
3547+417332320+416602856+417190349+416622392+415044171+413675890+412542798
3534+411276592+409558400+407747382+406351813+404814701+403020470+401851590
3520+401340672+400673604+399764630+398810333+397510947+396085877+394954714
3507+393502927+391706481+390983017+391271710+390932693+389647665+388258382
3493+386925888+385176658+383554221+382870437+382567994+381826779+380591860
3480+379195184+377640429+375791444+374507381+374378946+374014321+372433278
3466+370547792+369121722+368342933+367927912+367002617+365535508+364061328
3453+362477107+360463472+358160751+356754360+356809113+356828578+356050932
3439+354974129+353846609+353045426+352583975+352060913+351054435+349375995
3426+347513974+345769888+344427643+343900010+343735252+343253442+342457653
3412+341602218+340423409+338877297+337871926+337693096+337408367+336490893
3399+335333050+334441935+334100275+334174886+333955339+333005864+331906095
3385+331225776+330776146+330432272+330197618+329917961+329620232+329177067
3372+328291845+326991066+325736611+325193942+325190799+324708989+323545824
3358+322484951+321850205+321304142+320849334+320599107+319928574+318577900
3345+317351268+316446152+315648220+315385385+315417708+314845430+313454790
3331+311843924+310692582+309657495+308035736+306246862+304980263+303971678
3318+302932233+302007902+300697694+298568446+296320764+294694058+293434424
3304+291937029+290270036+288924505+288459500+288927809+289211823+288602043
3291+287900115+287852077+287954046+287660103+287583510+287967815+288204719
3277+288311546+288442785+288477822+288432338+288281187+288027764+287776877
3264+287934956+288320207+288001227+287185758+286570781+286139171+286066542
3250+286590425+287247386+287244511+286378861+285276574+284653454+284499375
3237+284460248+284633775+285037473+285404920+285568250+285317862+285107084
3223+285649521+286158368+285855567+285597233+285824709+286029951+286129956
3210+286394701+286879279+287308479+287611547+288104857+288455285+288207041
3196+288243525+289139373+290133618+290927515+291652908+292265849+292807376
3183+292973991+292770142+292912756+293552770+293998899+293967879+294055741
3169+294575963+295313160+296031428+296373445+296570615+297167359+298126389
3156+299256855+300298175+300899169+300697016+299768077+299169351+299673929
3142+300534972+300809378+300808843+300858774+300836523+300809378+300317997
3129+299210710+298534266+298810226+299118116+298880765+298627342+298479388
3115+298172462+297709297+297288901+297150715+297028549+296499076+295599764
3102+294816100+294602036+294761044+294658163+294084742+293601308+293509035
3088+293642578+294096582+294674575+294865567+294911962+295396646+296022035
3075+296261761+296344068+296620153+296895792+296847272+296801305+297045960
3061+297146787+297036103+297086051+297257542+297500125+297853554+297912646
3047+297564164+297291490+297271632+297476892+297698689+297462195+296898006
3034+296537935+296283976+295913422+295816131+296011855+295908297+295559654
3020+295560262+296000337+296476093+296604260+296452324+296543078+297057229
3007+297873090+299071132+300326783+301264687+302382171+304226690+306796139
2993+310369566+315166303+320468136+325684609+330602566+334700269+337921250
2980+340526450+342639840+344689835+346745508+348227938+348948009+349324028
2966+349527788+349222380+348575991+348463057+349010334+349612185+350070672
2953+350262932+350037170+349683439+349604078+349828517+349731870+348684282
2939+346953125+344987742+342851672+340838715+339496399+338927335+338676644
2926+338371951+337723847+336475821+334842062+333243626+331873951+330485561
2912+328859587+327272437+326076878+325399809+324743277+323746513+323137019
2899+323300205+323430747+322882792+322233724+322379374+323199700+323982882
2885+324511872+325129224+325944407+326514293+326469183+325994731+325634821
2872+325554352+325308376+324742062+324117424+323421033+322609350+321699769
2858+320420706+318648082+316643983+314576881+312482956+310481964+308673232
2845+307334773+306692955+306310508+305755445+305249562+305123449+305348674
2831+305540434+305415606+305251955+305224740+304972799+304543777+304361697
2818+304340875+304274586+304302730+304447201+304550885+304760717+305144414
2804+305445465+305741622+306209896+306668525+306938789+307144370+307486423
2791+307715756+307486423+307095225+306917359+306756565+306483016+306361832
2777+306427978+306520447+306582271+306371261+305690513+304847792+304301158
2764+304108756+304030431+304062825+304260156+304288765+303951212+303545907
2750+303393256+303462081+303516119+303491118+303412329+303259964+303184674
2737+303243606+303142708+302873909+302838300+302972628+302901482+302817585
2723+303073240+303345325+303266143+303100063+302967414+302825764+303004344
2710+303488011+303852243+304022573+304099184+304093648+304078362+304012037
2696+303855315+303814313+303962570+304118364+304048717+303711593+303406185
2683+303429472+303691164+303604052+302855372+302032153+301548701+301140859
2669+300690551+300298675+299954515+299658036+299476902+299386594+299203335
2656+298904713+298709257+298614913+298483174+298347900+298202339+297979078
2642+297783890+297768174+297838035+297718261+297378030+297172484+297288383
2629+297534002+297731208+297824874+297907324+298129014+298545534+299075846
2615+299501796+299736968+299879904+300143846+300661835+301125966+301266437
2602+301375799+301749746+302222805+302643898+303176781+303855243+304419271
2588+304708893+304857543+304983121+304998157+304855364+304660569+304553957
2575+304611995+304725786+304738216+304662640+304579422+304554135+304533420
2561+304455630+304375162+304181117+303882673+303767453+303916425+304127757
2548+304126971+303962356+303997179+304253013+304427593+304499525+304616424
2534+304787575+305082375+305439036+305602508+305579936+305572650+305680977
2521+305887737+306239468+306745743+307151156+307327415+307469029+307750686
2507+308189029+308660445+308979247+309207437+309594277+310008083+310161484
2494+310157698+310185878+310311491+310528681+310774978+311102923+311511836
2480+311834638+312020897+312107473+312046470+311859139+311708489+311652379
2467+311663380+311782600+311910177+311873533+311763849+311773421+311835067
2453+311695345+311366972+311254788+311544267+311865818+312041505+312377593
2440+312888012+313242601+313315783+313275959+313386465+313689587+313988780
2426+314083106+314008031+314101643+314454089+314718531+314768569+314785963
2413+314842823+315018260+315412351+315899553+316368898+316842457+317276121
2399+317682570+318179309+318689549+318956883+318943061+318841163+318765767
2386+318557578+317713072+315772940+312843438+309350265+305557935+301655849
2372+297843375+294273769+291058753+288054123+285183373+283009748+282253193
2359+283136933+285824405+290486296+296765911+302927697+305967276+304413307
2345+300337141+297790068+297647758+298508675+299799650+301261901+302752510
2332+304320945+306178823+308358323+310488429+312441740+314845430+317962155
2318+321099561+323693582+325671608+327534700+329825635+332187145+334162028
2305+335908222+337674416+339456433+341133837+342709308+344228026+345553592
2291+346580392+347605800+348872006+350124568+351163405+352075128+352912384
2278+353707102+354498855+355201926+355870280+356662070+357430429+358116391
2264+358910466+359794474+360586942+361151256+361498202+361866934+362473714
2251+363252288+363950073+364353200+364626964+365101558+365657514+366052141
2237+366391908+366873539+367385993+367682472+367920591+368375363+368908640
2224+369316695+369670177+369995229+370237348+370540256+370961777+371327652
2210+371564735+371766424+372104512+372687505+373371717+373957068+374480451
2197+375103089+375833196+376519837+377069579+377491350+377963766+378685516
2183+379492985+380192912+380850766+381608339+382602960+383705121+384658097
2170+385532283+386514296+387560205+388575934+389593163+390583176+391477077
2156+392332048+393266559+394394722+395664784+396870630+398028473+399322822
2143+400735285+402065780+403273161+404569975+406026297+407508799+408991265
2129+410538056+412159957+413700534+415071709+416470313+418008961+419691366
2116+421599103+423639597+425638517+427626294+429579640+431354157+433144352
2102+435391964+437983199+440281491+442283626+444684030+447635426+450634753
2089+453551076+456695339+460047076+463396420+466814268+470422982+474203633
2075+478073575+482118168+486604104+491489810+496393909+501243935+506233289
2062+511322184+516629589+522436769+528519463+534383038+540124465+546366024
2048+552982816+559345237+565558973+572034972+578829094+585686576+592467840
2035+599205137+605924256+612720163+619355634+625704020+632119337+638443507
2021+644259652+649815569+655349772+660712965+666051587+671474641+676792189
2008+682008947+687073626+691644995+695520044+698879282+702151301+705440606
1994+708122239+710286917+713122343+716650804+719868034+722059357+723214343
1981+724357399+726201562+728242020+729945533+731276527+732054994+732241718
1967+732548447+733662216+735077144+735757820+735567596+735095502+735050642
1954+735797251+736766584+737321826+737470119+736965451+735745962+735607098
1940+737648056+739955456+741364526+742467295+743534562+744641474+746174978
1927+748135718+750200749+752766947+755741737+758458586+762134268+767464817
1913+772497637+776294825+780266950+785510067+791329283+796855414+802003311
1900+807122064+812577763+818096964+823017422+827237273+831940720+838339323
1886+844893432+850059688+854674416+858817693+862048138+865413519+869015983
1873+871277023+871672543+871591182+873142258+876036544+877840776+878127791
1859+878588885+879280562+878869970+877185030+874816127+872159781+869216350
1846+865339729+861468681+859631019+858188233+855601891+852883971+850334844
1832+846475439+841647058+838444899+836071282+833526727+831900361+830093915
1819+827655866+825460900+823014850+819624183+815997717+813570740+812386253
1805+811162193+808507633+804790306+802487264+801749941+800091716+796661333
1792+794733023+797416156+800839253+801706725+801501143+801223772+800536881
1778+800323085+799784416+796803911+792895003+793178589+797181358+801059121
1765+802623770+801846946+801693439+803339449+805339333+807168495+807359933
1751+805243971+803691537+805242257+808073968+810033280+810795817+811338344
1738+811963232+810647096+809467323+813529095+819028367+823515018+827263275
1724+829597104+830130059+827903664+823165786+822392820+829372450+837906087
1711+843780449+845793906+845252593+846121636+847720144+846442152+845936698
1697+849800818+857045605+865847969+871999202+875755459+877953710+876349417
1684+875225718+882447576+891375374+895701445+896535987+899847079+905178414
1670+909529129+915894444+922396194+925849508+929691198+935903362+940668455
1657+940884395+935623920+931975954+938310267+943974405+947314784+954367847
1643+962929842+967501640+967060761+963273573+962062442+968883637+976739311
1630+980330417+980376776+979071783+978159453+980833085+985832118+988510965
1616+989755169+993018045+996945096+999957602+1001363172+1001484178+1002035562
1603+1004180454+1007311037+1009211631+1009058624+1009152628+1010410048
1591+1011018935+1012057415+1015780599+1019757724+1021152722+1021475738
1580+1020642339+1015961251+1012413147+1015443940+1017006517+1015617734
1568+1018456374+1023964575+1027017941+1024723827+1014018012+1008728965
1557+1021968548+1033230391+1037725399+1041152425+1047003786+1051417862
1545+1048735443+1039398910+1030567473+1036426763+1050449171+1057166003
1533+1058752796+1061298493+1062913716+1061866378+1059092313+1054349364
1522+1051480365+1054833959+1058172339+1059387613+1060688034+1059810062
1510+1056468612+1052801287+1053456677+1061343281+1068803722+1072206390
1499+1071468639+1069004232+1068587997+1068034112+1064546154+1062673133
1487+1066477821+1071647934+1073741823+1072239320+1069206170+1065027678
1476+1058505069+1050159514+1046982071+1051479150+1053985203+1049496410
1464+1043415894+1040600469+1036602057+1026961295+1018231149+1017198955
1452+1017699122+1015833102+1012030199+1008097219+1003899797+999123347+993367276
1439+984195465+971905072+963155353+957862591+951275837+945713062+943552669
1425+941862300+940209647+939892631+940914396+945982361+955324752+965409108
1412+973471006+977866867+979494161+980537642+983268634+988636328+994291679
1398+996309922+995872400+1000287047+1009667797+1016072328+1017460968+1017640548
1385+1018209791+1017746411+1017151381+1018057140+1019790369+1021343731
1373+1023616058+1027503679+1031025139+1033277536+1034920760+1034271085
1362+1031699601+1030560116+1031189718+1032476711+1033830349+1033787275
1350+1030935563+1027070943+1023956075+1019773511+1013091466+1005737817
1339+1001339528+1001309883+1002878389+1002004846+999280783+998949981+1000098681
1325+1000530845+1001660972+1002827458+1004568473+1009551219+1014234665
1314+1015058135+1016834865+1022179344+1026750499+1029418845+1031889539
1302+1032596502+1030976422+1029790935+1030362463+1031685743+1033941997
1290+1037688897+1042271266+1047552385+1053538038+1059185817+1062460408
1279+1063861120+1065961081+1067453941+1066722262+1065602920+1064561869
1267+1062296043+1059865851+1058835014+1056434181+1051149848+1046778275
1256+1045211198+1045013616+1044206434+1041765099+1038195922+1034452451
1244+1031916326+1031177575+1030620547+1028475013+1025549439+1023538340
1233+1022405998+1021757895+1020870851+1019027188+1017794341+1018430159
1221+1019270129+1018690886+1017463111+1016750790+1017097450+1018182289
1209+1018826678+1019709079+1021523740+1022413999+1021016644+1017663264
1198+1014709760+1015209928+1018259722+1019452352+1017022160+1013439912
1186+1010955575+1009904380+1009692512+1009000978+1006699436+1003415130
1175+1001766549+1003175761+1004393464+1001674687+997652345+996823447+998417955
1161+998683396+995801468+991406893+988505250+988088158+988013797+986358287
1148+984076388+981359468+977938442+975661186+974779642+972859690+968994571
1134+965908704+965357962+965161810+963789527+961627063+958792923+956328016
1121+955902423+955924567+952233956+945204751+939601545+936833337+934283139
1107+930973404+928329345+927054210+925779505+922832930+919371616+917304443
1094+917765251+920444884+922659207+923880839+924758240+925218977+925684786
1080+924708594+922455269+921059628+920727826+921383930+922565417+922720925
1067+921671873+922516200+926354390+929285321+930500738+931902307+932754064
1053+934391002+938600067+942361396+943187866+941492853+937780027+934458934
1040+934541152+936933699+938142259+937925248+938365199+939895203+941241841
1026+940887109+939294244+937419223+934035699+929978141+928684505+929020665
1013+927494732+925705572+925699929+926217526+926793626+927847750+928119120
999+926349318+924776384+925277765+926372820+928289629+932021956+935784499
986+938529278+941395063+944731156+947287140+948932007+951156474+953628096
972+954578358+953914253+952672835+951100114+949177019+948243187+948570203
959+948025391+946153869+944741014+945036028+946164727+946079509+944811160
945+943867899+943777966+944382068+944460571+941997021+938809363+938508920
932+939068162+936727689+932575555+929987070+929786631+929988427+929381183
918+927793461+925130758+921722661+918757086+917500381+916979855+916228889
905+915523569+915149765+915871586+916420113+915360632+914567736+915371418
891+916495474+916200817+916046452+919811067+925147902+926113021+924041347
878+924249357+927653597+931285848+934277568+938632569+943272870+946035006
864+948397123+951977086+956405948+961084537+965822342+970992598+977444846
851+984771565+990167404+992897039+996590221+1001823123+1007397756+1015845817
837+1025670660+1032347704+1035619509+1037390739+1039609206+1040787836
826+1040027298+1040232308+1040978274+1041340220+1042022397+1040377887
814+1035938310+1035756373+1041358078+1043905276+1041172212+1038928244
802+1038324500+1037625894+1035650582+1032388920+1030257172+1029750290
791+1028155783+1024379239+1019523427+1016177190+1015954250+1015160354
779+1009411713+999869669+989925892+982726178+979644740+977705144+975084229
766+973622157+973083844+972143012+970510860+965464539+953842678+942493974
752+943696677+955015379+960512580+956716392+954413492+955933425+955365111
739+953657955+953478732+949944414+942914424+940090712+941583143+941093691
725+938581924+935223757+928465137+922264474+922106180+925055612+927610167
712+928656290+927847321+929249105+935769070+941948447+942444329+941622574
698+942565406+943580814+947689374+954450351+956565527+953905253+952106521
685+954401777+959805188+961372908+954535070+946431526+946218444+951536493
671+951558065+942968855+941525498+952755196+956353160+949348527+943925259
658+943335730+943216081+943067717+946053436+950761812+947479935+936157161
644+924208855+916555120+921027055+936634970+948410481+949345527+947988174
631+949979559+952507327+955072525+957290920+955743772+950385793+942179030
617+935971509+939365534+945691847+946074008+950435867+973904528+1012155777
604+1031588452+1020479260+1005444445
##END=
