##TITLE=Sample description
##JCAMP-DX=4.24
##DATA TYPE=INFRARED SPECTRUM
##DATE=13/9/2023
##SAMPLING PROCEDURE=Instrument type and / or accessory
##ORIGIN=Default
##XUNITS=1/CM
##YUNITS=ABSORBANCE
##RESOLUTION=4
##FIRSTX=4397.6552
##LASTX=599.8556
##DELTAX=-1.9287962
##MAXY=1.8305174
##MINY=0.46065709
##XFACTOR=1
##YFACTOR=1.7048022e-009
##NPOINTS=1970
##FIRSTY=0.47277993
##XYDATA=(X++(Y..Y))
4398+277322456+276894651+275989517+276141447+277468810+278447925+278778236
4384+278436807+276785077+275387702+275934206+276935452+277857142+279824183
4371+281433625+281268863+281069401+281814737+281627966+280027177+278870241
4357+278259668+276882396+275568058+275890852+276739171+276736252+276866716
4344+277243440+277134968+277366316+277831566+277409058+276761530+276713946
4330+276276753+275225859+274864606+275174447+275835401+276986428+277870200
4317+278380220+278387370+277633030+277382574+277387696+276481670+276150643
4303+276889354+276496337+274741747+273423388+273358881+274494840+275681075
4290+275574596+274991836+275071079+275506488+276079266+276310947+275564317
4276+274434179+273425345+272720006+273031140+274178129+275320486+276576629
4263+277661193+277442640+276535356+276464469+276809482+276397742+275495440
4249+275018040+275153084+275244582+274668360+274190768+274430071+274042649
4236+272778062+272798690+274414530+275226349+274950405+275062478+274779000
4222+274320882+276265268+279612921+280777933+279281613+276593814+274653099
4209+275129659+276553869+276613865+275598108+274631894+274542844+275830628
4195+277298821+277671874+277542004+277045236+275900362+275084050+275120831
4182+275261784+274805379+274591757+275933908+277572510+277500941+276616067
4168+276518801+277052875+277526761+277450542+276921293+276230096+275317392
4155+274859135+275247833+275595399+275295488+274286689+273050282+272639312
4141+273168526+274019695+274792181+275078963+275035609+274869921+274412695
4128+274263631+274867805+275636550+276135818+276008694+274951349+274072297
4114+274241202+274325567+273880998+273989016+274574345+274436172+273682811
4101+273320912+273540828+274080338+274697467+275415340+276044181+275690183
4087+274324571+273463612+274020867+274855149+275150952+275393925+275582025
4074+275810857+276031839+275662335+275055031+274656770+274542442+275232188
4060+276113320+275636567+274345042+273774169+274094061+274813281+275141302
4047+274939794+275279859+276217771+276535024+275984534+275361760+274777269
4033+273854199+273212440+273735972+274867648+275472906+275637354+275779443
4020+275578861+275292586+275967962+277558017+278680323+278438118+277435892
4006+276883183+277175192+277907383+278202172+277336860+276135888+275726439
3993+276125662+277190751+278634417+279892413+280470593+280239122+279529447
3979+278789652+278588983+278639749+278367249+278652598+279841822+280812651
3966+281100238+281265944+281528340+281223237+280391752+279973684+280002109
3952+280170979+280513038+280458793+279411080+278089434+278037742+279265373
3939+280346632+280629009+279872275+278605975+278617880+279472178+279348305
3925+279622186+281531906+282435414+281327478+280868050+282176532+283179370
3912+282824183+281892600+280064011+276821614+274380651+274698079+277227811
3898+280649393+282223820+280863190+279618812+281084172+281884488+280413411
3885+279234448+278096287+278012394+281011782+282025283+279092080+276151901
3871+275251487+276916188+278798760+278867374+280058819+282924317+283988724
3858+281601534+275213378+270211461+275889750+283548193+286244226+284455023
3844+281182348+278279894+275930744+275711912+278334419+281074383+282908443
3831+284369032+284860154+284628962+283407415+279303412+276774571+279122690
3817+280909673+283207008+287328999+289302089+287467592+284776663+283906107
3804+282057187+280989283+283936454+286385144+288349580+291519010+293646933
3790+294130294+293877722+293297025+293085221+292755941+292140981+293430618
3777+296003810+296857077+295873433+295332909+296551397+298046091+299154307
3763+299738675+298740313+297875823+299503830+300927690+299236644+298621509
3750+305400235+313511218+323122455+342152038+362110478+374617473+379296229
3736+377930722+377585709+381213064+385276370+387077059+387885259+390254897
3723+394665103+401423936+409997931+417751000+422330636+425594728+433986532
3709+447871795+461507144+472962039+484944417+500249799+514864106+524065090
3696+528401769+528270309+522908276+516548439+515657132+517472925+516383554
3682+511304335+503788978+494292314+484602936+481352794+479666644+473534695
3669+470066106+469724414+466681777+461704649+456264788+448953334+440234663
3655+433662847+426963136+416207498+406799220+405244110+406136605+404708480
3642+401388623+397862416+393747959+388509135+383290378+377786151+370551405
3628+367215431+368847284+367744103+362358854+356063803+353175003+352566720
3615+350088907+347050360+345383964+343992165+343525027+343276966+341118154
3601+338252498+336279863+334151048+331608764+330059702+328753667+325758125
3588+323092666+323535365+324737281+324720289+323919152+322816076+321113912
3574+319196728+317382893+314214949+310080075+309162336+311321394+312613304
3561+312130328+310596825+308941721+307824555+306953282+305754548+304174544
3547+303053882+303342919+304332821+304424249+303500741+302810786+302721211
3534+302279596+300815669+298894149+297811666+297879773+298126785+297984836
3520+297518083+296742748+296053492+295587857+294770847+293860835+293703503
3507+293760737+293213691+292689127+292748109+292815867+292632540+292822773
3493+293165600+292520537+291408335+291140905+291443525+291545547+291525670
3480+291648442+291660067+291419191+291343497+291601627+291510374+290880869
3466+290425129+290037060+289471152+289244733+289358135+289118045+288489641
3453+288429645+288812068+288719277+288677496+289233038+290026746+290875432
3439+291186094+290538129+289823157+289762462+290067704+290413959+290552971
3426+290328597+290139081+290258042+290248078+290021484+289992500+290358158
3412+291207596+292130614+292644497+292879517+292969616+293028441+292978339
3399+292582735+292209945+292511254+293385201+293910972+293809964+293661233
3385+293741088+294073549+294573167+295039186+295327594+295284800+295131243
3372+295360774+295817773+295960771+295854938+295983566+296467277+296835959
3358+296716806+296295434+295949338+295953743+295969266+295608346+295350670
3345+295458250+295670894+295868818+295873573+295798124+295711940+294976673
3331+293695356+292938954+292567107+291504273+290136232+289580393+289472288
3318+288885106+287868090+286781429+285505602+283951366+282510986+281464655
3304+280610112+279499606+278415183+278257535+278482102+278219583+278370640
3291+279548169+280813700+281464725+281729778+282138563+283017790+283928116
3277+284491436+285063183+285787629+286541392+286989947+286826182+286569590
3264+286965019+287968766+288699698+288609599+288220847+288035265+288021664
3250+288108285+288171428+288413160+289251918+290140357+290643314+291358234
3237+292333608+293172435+293691580+293744130+293471699+293194060+293436702
3223+294480761+295865007+296792710+296924415+297079580+297715483+298219402
3210+298761010+299666442+300471495+301240292+302301448+303363862+304317158
3196+305399501+306341189+306686097+306795006+307299938+307829205+307975315
3183+308323054+309102305+309808029+310244854+310749437+311542044+312485445
3169+313447691+314150233+314329907+314354171+315133387+316698776+317574314
3156+317407122+317457329+317970513+318565964+319361402+320316586+321073565
3142+321400957+321677058+322312856+322669337+322134127+321322256+320893297
3129+320832497+321006716+321158770+321060174+320996787+321220059+320986228
3115+319501393+317789056+317272096+317282899+316618012+315569618+314952839
3102+314982837+314917946+314055344+313159492+312941360+312920906+312953701
3088+313213545+313520413+313938463+314598841+315381518+316033819+316120072
3075+315637306+315218696+315168420+315334318+315783974+316636437+317643331
3061+318365732+318539427+318388842+318365627+318326609+317729934+316804853
3047+316286879+316031126+315394943+314608630+314203621+313865601+313105405
3034+311952472+310785589+310101122+309723105+309029093+308037304+307269241
3020+307073205+307070198+306794656+306375522+305751926+305059942+304784750
3007+304675072+304340722+304024099+304054307+304427815+304984073+305820208
2993+307430419+310038644+312924717+315214256+316776708+317909258+318963176
2980+319892207+320056882+319315182+318469606+317870694+316965927+315604336
2966+314412839+313768614+313340810+312783188+312304512+312213225+312463978
2953+312909404+313194770+312907341+312370592+312188401+312320455+312338251
2939+312061346+311562707+310895407+310262301+309900576+309743208+309575002
2926+309325508+309058881+308551956+307516952+306481914+306183821+306262592
2912+306237804+306515688+307129250+307535378+307635966+307753336+308036569
2899+308428642+308986718+309558919+309851803+310075844+310479455+310775974
2885+310904987+311174130+311444672+311669798+312077779+312425554+312493521
2872+312421183+312326574+312222560+311923942+311282200+310799574+310994177
2858+311336253+311199024+310759472+310290306+309723594+309018989+308580276
2845+308777885+309312501+309668143+309910400+310531374+311415234+311848143
2831+311812411+311969953+312468942+313110894+313725750+313966189+313910109
2818+313998425+314255471+314565381+314999305+315452842+315752788+316082557
2804+316681924+317638156+318806857+319635825+319973321+320329837+320803687
2791+321054336+321058916+320986053+321066153+321546682+322097730+322025742
2777+321305089+320575206+320205544+320139884+320274281+320382980+320407944
2764+320633314+321075278+321443821+321600420+321668982+321930713+322493824
2750+322987359+322987009+322680595+322482636+322443303+322520396+322719718
2737+322919251+322980611+323014105+323228112+323357789+323068472+322729473
2723+322837613+323257201+323463307+323285067+322995785+322872995+323127210
2710+323586656+323794195+323833143+324067464+324381535+324408771+324044284
2696+323625080+323679587+324060402+324015474+323624136+323575538+323776224
2683+323856289+323839157+323698362+323432924+323076549+322582594+322064481
2669+321708210+321595245+321515810+321203697+320737538+320288021+320009752
2656+319960385+319923289+319772285+319683130+319698618+319670264+319666558
2642+319673760+319426818+318991985+318770251+318924542+319182952+319200539
2629+318996915+318912165+319059534+319148654+319118131+319293924+319653621
2615+319893501+320220823+320795681+321067097+320826868+320675759+321006052
2602+321631327+322293557+322805132+323064801+323351076+323954325+324608304
2588+324933178+325023522+325193581+325564011+326066007+326530418+326812358
2575+326987871+327280405+327752403+328182550+328326771+328239015+328166642
2561+328170138+328135035+328112065+328246881+328554554+328876456+328975541
2548+328959003+329070989+329206295+329279158+329291779+329253985+329332301
2534+329554525+329843947+330136655+330275213+330335768+330514183+330677250
2521+330748154+330908634+331205293+331588031+331962167+332166980+332277462
2507+332526886+332882318+333195690+333536857+333885331+334118568+334345546
2494+334653393+335007741+335431700+335894852+336282030+336617883+337020200
2480+337402867+337654250+337817561+337910562+338027653+338225297+338172818
2467+337708967+337345528+337476149+337844098+338082334+338116808+338125548
2453+338282217+338494406+338568632+338556360+338647927+338785541+338879241
2440+339114471+339512173+339851137+340082206+340279641+340450749+340555567
2426+340641366+340770798+340898692+341030082+341228321+341470683+341653329
2413+341716472+341733883+341841744+342070016+342357130+342692318+343013242
2399+343255849+343445732+343614497+343879480+344184985+344194215+343801898
2386+343193405+342281960+340638849+338204599+335275871+331840917+327856172
2372+323644554+319566529+315856243+312724835+310313731+308664082+308045834
2359+308953573+311478446+315474694+321384210+327929035+331374828+329988763
2345+325972901+323329854+323189723+324200707+325463913+326782954+328050076
2332+329231434+330737596+332884836+335399499+337799520+340097205+342649908
2318+345510389+348267275+350472239+352349706+354331047+356374762+358371662
2305+360369017+362299452+363944836+365359291+366668053+367767773+368798895
2291+369950605+371204231+372551242+373828258+374803510+375609368+376593885
2278+377729127+378719867+379466848+380053663+380629255+381332147+382224468
2264+383253388+384238080+384950552+385457687+386087402+386787811+387331168
2251+387892985+388667376+389447956+390087110+390771052+391479084+392007721
2237+392363887+392646142+393073352+393860155+394831421+395578681+395931735
2224+396134380+396489392+396895170+397133721+397376853+397827383+398344168
2210+398813683+399333405+399930150+400500289+401024695+401615706+402249722
2197+402700742+403001771+403531493+404397451+405295296+406022347+406658914
2183+407311740+408014387+408864822+409935942+411027166+411846449+412479205
2170+413265658+414251994+415308220+416383116+417370395+418301314+419342052
2156+420487922+421579251+422492759+423394834+424478750+425621964+426867863
2143+428428777+430071504+431516970+432920447+434362627+435721106+437036197
2129+438450372+439934472+441318684+442667584+444265418+446092294+447894241
2116+449688602+451527819+453393084+455478440+457669838+459593876+461382607
2102+463359193+465514300+467725137+470026843+472477699+475085714+477833545
2089+480605954+483529718+486835380+490228519+493458731+496838200+500391084
2075+503861211+507614082+512000444+516663991+521201637+525640688+530315248
2062+535293181+540293559+545354563+550758063+556385429+561961994+567794802
2048+574161946+580650830+586756068+592490176+598508042+605036574+611464763
2035+617601642+623787399+630179786+636676013+643072945+649017948+654532700
2021+660218069+665855819+671086253+676902733+683429098+689228586+694150718
2008+699186618+704191542+708666780+712849798+716655708+719863824+722815522
1994+725565486+728215665+731519859+735485059+739031545+741255878+742272666
1981+743059329+744737263+747779445+751303066+753933177+755293019+755921860
1967+756294004+756554477+757091296+758104727+759209901+759884054+759811751
1954+759512259+759727280+760485903+761601706+762627374+763027838+763589131
1940+765267624+767031008+767965074+768468188+769057172+770109482+771640083
1927+773375216+775089022+777115396+779607194+782099622+785653869+790783121
1913+795562045+799014271+802413563+807427228+813318878+818355618+822779180
1900+827309169+831318283+834699394+839050164+844298569+849105603+853891800
1886+858738692+863625091+869081944+874282869+878276389+881141520+883521158
1873+885166507+884882189+884439490+887367974+891975231+894938188+896043571
1859+896489836+897059800+897519910+897671719+897597248+896231671+893179559
1846+889242050+886059736+886326642+887893115+886822065+883425639+879373452
1832+874493205+869437865+866445260+865230793+864429026+863877802+862639071
1819+860251881+857240676+854060670+850805704+847694645+845925527+845382136
1805+844388004+841801876+837760946+834515001+833117118+831146406+827390493
1792+825796399+829208698+832627569+832716095+831294158+830367435+830295621
1778+830669093+829859915+826486984+822957001+824567247+829319949+832388354
1765+832776161+831513725+831205702+832233329+833092085+834119012+834228166
1751+832472404+831503306+833607576+836904568+838706830+838652987+838904299
1738+839657468+837891637+836219017+840524405+846208237+850451880+853566925
1724+855338700+856491703+855580852+851458599+850688159+857089567+863949196
1711+867886496+868673509+867491976+868369053+870821203+870103277+869153268
1697+872144405+878499732+887490623+894040553+897102524+898164904+895303898
1684+893784695+902231636+911951292+916421914+916952440+918968255+922576555
1670+926049758+933379918+941575965+945202166+947215114+952181579+957296985
1657+957005465+948593907+941776372+949367563+955909661+957672625+964130183
1643+973527342+978347313+977337937+972616282+971801159+979991473+988137454
1630+991717924+991453815+988304926+984912976+986081362+989725744+989893845
1616+990010760+996146591+1002670018+1005407185+1006773671+1009624817+1012564698
1603+1013075924+1012740561+1014626314+1017578992+1019294686+1020786968
1591+1023462741+1026462268+1028472559+1029799047+1031264758+1031162876
1580+1026911121+1020090509+1018794928+1023991378+1024554629+1020737531
1568+1021990947+1027166279+1030949883+1029996098+1019644174+1012234859
1557+1022332184+1032308047+1038524502+1043742419+1047220657+1046249251
1545+1040125728+1032994437+1031087986+1040094751+1050476322+1053584724
1533+1054756677+1058664399+1059865301+1057080234+1054677591+1051554505
1522+1048278282+1049420096+1051419059+1054721435+1059538888+1059157304
1510+1052505353+1043946042+1046215966+1062910280+1073741823+1073315557
1499+1067008059+1062558345+1063292633+1062862171+1057011917+1053942464
1487+1059989349+1066664235+1068173509+1066780731+1065561509+1062548066
1476+1054934708+1046178206+1044453562+1048572319+1049566870+1045358469
1464+1041044899+1038507999+1031457193+1016223275+1007238886+1013727351
1452+1020922204+1019613687+1010259322+1001213818+996031493+990936715+985386651
1439+977388563+964177103+954210260+949972000+944507386+939208635+937272745
1425+936956611+938506931+940237100+939395336+942854624+953098793+962397986
1412+967380044+969947642+971096170+971192807+974671185+982304192+988829787
1398+992524445+995411463+1000232063+1007132180+1011599376+1011031650+1007837239
1385+1005600739+1005734437+1009652927+1016193766+1020101697+1019648719
1373+1019938911+1024239124+1029235937+1031199727+1029948129+1028513675
1362+1029386696+1030798494+1030717100+1029451237+1028129574+1027954410
1350+1028059229+1025789025+1021079886+1016023777+1009726139+1002504924
1339+998930398+998242330+996509924+995019600+995178960+996243997+997195544
1325+996522371+995520687+997292881+1001930625+1007573900+1012705668+1016821838
1312+1019915416+1021725719+1022712509+1023904810+1025541348+1026806162
1300+1027045028+1027092997+1028408088+1030673047+1032381259+1034540841
1288+1039136840+1045080375+1050753717+1056436849+1061917756+1066019311
1277+1068011212+1068106310+1067241261+1066314957+1066196013+1066699617
1265+1065495639+1060909919+1054852685+1051267321+1050928461+1050855948
1254+1049837412+1048679445+1047582033+1046636778+1046365887+1047622659
1242+1048546097+1045398047+1040340119+1038180398+1037643859+1035104581
1231+1030941492+1028002589+1027287111+1026862453+1025178575+1023520010
1219+1023468824+1023809781+1023553434+1024183813+1025002152+1024465334
1207+1023528890+1022573567+1022054579+1022473713+1022761247+1022647548
1196+1022284285+1021244631+1019710813+1018640672+1018106581+1016859178
1184+1015407873+1015305641+1016290124+1016088318+1012384710+1007640259
1173+1006051200+1006896461+1007050926+1005569553+1003622405+1001717632
1161+999662449+998137442+997232465+996119529+994077982+991497728+989322833
1148+987424213+986636711+987686714+987629165+984235816+980002591+977610787
1134+976133399+972775922+967013634+962068287+960527267+961263863+961533776
1121+958960165+954035026+950391973+949064156+947316087+944175379+941465693
1107+939617000+936017231+929644842+924415597+923572575+925443504+926439663
1094+925564335+924018140+922060574+920551650+920638078+921963727+924138692
1080+925383647+924340078+922869403+922195111+921978481+922408454+922973312
1067+922795841+924090164+928174587+930695614+929918951+930696453+934810175
1053+937564754+936427694+935204276+936004504+936116595+934200005+932797577
1040+933813946+935138126+935205115+936107085+938419944+940203326+940096060
1026+937667894+934910519+933997081+933696401+933039869+932385366+931702683
1013+931519198+931306484+930392347+929481916+928653997+928860417+930421716
999+930834906+930933082+933394882+935596069+934661024+932406973+931557377
986+933778354+938173107+941305633+943798410+948928011+954285010+956691709
972+957390755+958188886+959698159+959277068+955607862+952894959+952920902
959+953267663+952260804+950441900+949965567+951378134+952276398+951508964
945+950311838+948606703+945588505+942593592+941894896+942912873+942754351
932+941080333+939441557+938827470+939331564+939299887+937872497+935892833
918+933958762+933227829+933352367+931924067+929761688+927504280+923214835
905+919487172+919668070+921873523+922515160+920900368+919129713+917531494
891+916084593+915518895+914867329+914383584+914437846+913982630+915249822
878+920678005+925452104+924787811+922798289+924016952+927651823+930765610
864+932386974+935262804+941149979+947961500+952406879+955737225+962489099
851+971310771+978087469+983577327+990013348+998799847+1008903884+1017200834
837+1024260242+1029428652+1028821977+1025050261+1023253313+1023110805
826+1021766416+1020601246+1022897742+1025669452+1025681549+1026056490
814+1028364594+1028783588+1025127459+1022693279+1025508413+1028583391
802+1027819104+1026284378+1025698821+1024156332+1021231625+1017430890
791+1011534904+1005093289+1001813919+999500152+995378528+993144615+993602978
777+990450662+981744787+974434207+972812493+973546152+973836763+972695647
764+967759041+961825156+959520199+959578727+960327280+960485871+958449288
750+956009655+953533100+948632086+942921264+941722809+944503470+945196013
737+943031396+940692316+939250240+938339110+936687887+934918630+932492212
723+927339606+920656748+914549237+909981768+906536395+902588117+900423081
710+903943134+911135820+919397877+928224514+934251330+937656147+942830500
696+947989820+947163369+939807477+932121047+930712117+935024218+936901720
683+930978044+923810042+924610340+930629255+934829825+936972974+932142654
669+917824762+917022575+934738362+943695550+941098164+938242683+940310452
656+943575627+941843151+938680417+941564218+947890735+948714948+942928116
642+936997588+930561637+924142328+923682358+929484293+935409997+936947031
629+943361165+953047118+936313925+896136432+873511660+887772214+917173545
615+921951000+906750856+900580623+904311642+899776129+889520563+885955617
602+884763316+884227057
##END=
