##TITLE=Sample description
##JCAMP-DX=4.24
##DATA TYPE=INFRARED SPECTRUM
##DATE=13/9/2023
##SAMPLING PROCEDURE=Instrument type and / or accessory
##ORIGIN=Default
##XUNITS=1/CM
##YUNITS=ABSORBANCE
##RESOLUTION=4
##FIRSTX=4397.6552
##LASTX=599.8556
##DELTAX=-1.9287962
##MAXY=1.7588923
##MINY=0.37724423
##XFACTOR=1
##YFACTOR=1.6380961e-009
##NPOINTS=1970
##FIRSTY=0.38945898
##XYDATA=(X++(Y..Y))
4398+237750998+238447910+238215836+237212223+236548205+236017216+235955432
4384+237177619+238418236+238409085+238426150+238936472+238863226+238590909
4371+238805899+239015412+238982082+238757796+238032757+237157770+236969434
4357+236980004+236018945+234663819+234509867+235563240+236746912+237047246
4344+235709604+233888968+233922807+235816181+237393919+237860176+237703004
4330+236694533+235182727+234138015+234270662+235321233+235434031+234504373
4317+234402982+235061142+235509442+235855987+235983668+235421878+234561700
4303+234041864+233969418+233903886+233178520+232615839+233728976+235325672
4290+235237944+234185336+234058638+235306078+236812171+236933156+235574556
4276+234190412+233640266+233264902+232147089+230674599+230294323+231717819
4263+233674760+234475610+233991650+233400988+233390145+233133328+232320635
4249+232188898+233280985+234296933+234288492+234006150+233811610+233375863
4236+232933257+232628738+232343559+232512865+233276710+233984646+234650010
4222+234822919+233694009+232676259+233246290+234494858+234885249+234651393
4209+235033452+235857552+235561802+233557232+231974726+232492871+233681000
4195+233914420+233429515+233146700+233266776+233511057+233569694+233675142
4182+234642806+235273839+234004295+232581672+232538663+232666689+232287523
4168+232229523+232719104+233100253+232927199+232298421+231651978+231422906
4155+231636132+232149182+232700856+232697127+232411438+232836287+233898264
4141+234753548+234853920+234071119+232771119+231836203+231849539+232328913
4128+232766134+233425913+234018613+233697975+232620951+231518257+230973678
4114+231225091+231802218+232147417+231941269+231351898+231111201+231225255
4101+231238372+231450014+231860473+231792430+231529446+231740688+231986734
4087+231911232+232233507+233156015+233705161+233495520+232790040+231930571
4074+231794759+232174307+232088544+232057397+232479662+232668217+232659248
4060+233004938+233506272+233601077+233301471+232822060+232181766+231835948
4047+232085542+232228322+232085906+232325802+232520288+232392007+233053351
4033+234185227+234313544+233813375+233567220+233375008+233402552+233986192
4020+234345255+233979243+233908380+234717562+235466379+235620621+235691757
4006+235850802+235535822+234543434+233901121+234113473+234238206+234051215
3993+234192595+234678210+235062670+235260249+235462667+235471655+234913558
3979+234171618+234415208+235488447+235844689+235611270+235561657+235375740
3966+235294561+235784579+236644156+237632433+238496104+238849908+238631807
3952+238355761+238271435+238050969+237674605+237289908+237000308+237101626
3939+237522272+237852480+238208341+239048233+239990280+240426246+240339063
3925+239763829+239419266+239677556+239351023+238722009+239542853+240655281
3912+240445112+239988534+240383582+241330560+242511103+243295288+242726002
3898+241306436+240611071+241066339+241939634+242507319+242698221+242671968
3885+242982200+243799914+244626325+244830017+244013685+243118813+243338715
3871+243703672+243588327+243543808+243181016+242911046+243530090+244374149
3858+244600054+243821492+242983455+243955576+245214496+245553582+245378926
3844+245444786+245590969+245272860+245003126+245588222+246538365+247140944
3831+247443517+247645880+247575472+247292749+246998764+246982663+247225434
3817+246914966+246777225+247994009+249332233+249297010+247872569+246886093
3804+247114273+248085630+249293463+249628401+249154048+249149499+249687165
3790+250212096+250573032+250842019+251479402+252434549+252740760+252713961
3777+253717247+255101755+255687487+255795282+256469379+257662039+258884790
3763+260133467+261384072+263261709+265856760+268039825+270161706+275193072
3750+284644530+295661482+312615771+337409230+354646770+361430421+362354166
3736+359837527+355729851+351247576+348867096+349652426+353351263+358619597
3723+363809555+369682742+377185428+385524822+394132566+403439333+412419057
3709+421416538+433766020+450515289+470852088+489788588+501176919+505526493
3696+505742193+504780787+503599753+499010392+490890227+484853955+480317245
3682+474622498+468377076+462994415+456578523+450274883+447080290+442828305
3669+436509456+430655662+424444990+418771637+414910553+410981025+404743317
3655+398443934+394672070+391724796+386441035+379480799+374113021+369880066
3642+365852477+361574912+356882540+352864157+350240396+347948991+343626816
3628+338320785+335903810+335079946+333403800+329582376+325377621+323016753
3615+320936499+318013932+315020157+312049742+309410299+307752747+306549990
3601+305029760+302780799+300098202+297764424+296217596+295145230+293868081
3588+292356475+290942094+289343997+287407142+285438666+283635895+281741594
3574+279878530+278811422+278541489+277844123+276409911+275421034+274559747
3561+272905797+270899243+269514862+268480848+267178155+266419660+266741426
3547+266828044+265611042+263971792+262745074+261835866+261049480+260302046
3534+259844813+259745514+259406664+258381965+257122354+256296871+256038017
3520+255792608+255133611+254514476+253980031+253238637+252647192+252438151
3507+252562193+252714052+252530209+252069337+251505691+250946576+250359352
3493+249753189+249292826+249041359+248819619+248450005+248150653+248090269
3480+248120834+248219259+248077152+247470079+247333265+247903461+247909737
3466+247138525+246529978+246299888+246096487+245940607+245932784+245904566
3453+245798736+245703713+245671583+245517759+245186824+245100242+245514939
3439+246257097+246875832+246918823+246438157+246015654+246075492+246308730
3426+246214634+246023477+246317681+246896845+247083872+246800094+246513058
3412+246595601+247027218+247600743+248103914+248575866+249140585+249427984
3399+249291280+249304379+249661986+250011078+250276936+250508409+250636781
3385+250733260+250950888+251336894+251762635+251899612+251401517+250650571
3372+250658449+251537493+252564158+253421916+254023603+254096431+253640581
3358+253188714+253195373+253612745+254181958+254578152+254516677+254208392
3345+254225403+254587322+254790268+254549698+253938605+253098749+251941620
3331+250775486+250319545+250304881+250038241+249667753+249410737+249158996
3318+248760364+247819062+246306292+244956206+244152009+243418620+242250412
3304+240715482+239209644+238249767+238205976+238509021+238335075+238058774
3291+238371207+238886531+239029949+239104468+239413426+239769651+240319633
3277+241146808+241682054+241938234+242458124+242906079+242900112+242998683
3264+243621438+244271429+244536232+244606731+244658127+244982622+245540810
3250+245950995+246349228+246473088+245989074+245712973+246389835+247469206
3237+247998411+248006234+247827104+247609367+247896420+248977027+250323930
3223+251030356+251079678+251321630+251923154+252793502+253958090+254892114
3210+255348819+256056537+257362341+258307663+258544212+258977867+259731669
3196+260480522+261574683+263148274+264977789+266688283+267476889+267085297
3183+266474549+266772009+268110415+269434030+269864592+269881675+270328647
3169+271302678+272321793+273041136+273686615+274558218+275583173+276627976
3156+277457589+277827148+278196781+279017188+279701092+279861720+280055642
3142+280399404+280566200+280749260+280801530+280219145+279544357+279562914
3129+280003264+280319444+280478108+280701903+280947440+280770255+279950903
3115+278912195+278286892+278124627+277642341+276549017+275683108+275391816
3102+275073488+274411872+273687871+273308923+273334630+273417009+273515053
3088+274017787+274869542+275454619+275424273+275087388+275044433+275528593
3075+276125314+276268222+275948603+275749477+276139486+276840073+277168043
3061+276990258+276814984+276951543+277224133+277378757+277174028+276633670
3047+276153841+275712108+274933091+273971431+273235368+272703560+272105802
3034+271279773+270206043+269107697+268234966+267396911+266346869+265381497
3020+264882238+264706818+264459772+264044874+263608418+263103209+262387904
3007+261573846+260973468+260665220+260502408+260740777+261571499+262775494
2993+264571897+267113624+269813086+272071180+273664783+274765785+275692641
2980+276439493+276911900+277076276+276649553+275408917+273845242+272776279
2966+272220784+271735969+271142651+270166782+269056519+268620190+268953200
2953+269421367+269352069+268913830+268916468+269320413+269422968+269028684
2939+268377419+267646632+266876056+266065946+265363086+264916587+264690171
2926+264663609+264767056+264843759+264647108+263985291+263241678+262965577
2912+263053123+263189500+263548198+264059865+264192167+264152251+264431572
2899+264721919+264765491+264956757+265514490+266129768+266571992+267081167
2885+267880270+268603107+268862943+268818315+268733734+268709355+268765045
2872+268850499+268861506+268829667+268845077+268806744+268749872+268843494
2858+268960841+268740393+267944892+266832119+265984440+265660655+265651449
2845+265743689+265961681+266367481+266819930+267122138+267405389+267888730
2831+268552384+269283644+269954102+270477978+270837113+271102662+271322473
2818+271460050+271577579+271656465+271732149+272097033+272738473+273310069
2804+273752839+274419458+275438809+276347654+276842656+277129255+277398315
2791+277640449+277691136+277609903+277748353+277917169+277698522+277403009
2777+277521229+277910692+278001986+277616634+277092613+276670184+276502260
2764+276667837+276987220+277256098+277419310+277570205+277720063+277824492
2750+278001858+278213810+278285801+278221087+278076142+277917514+277798185
2737+277727031+277771768+277878635+277860570+277769931+277802679+277957285
2723+278122352+278163087+277996710+277849835+277992034+278269063+278367234
2710+278314019+278390103+278660073+278874262+278862018+278724622+278564394
2696+278385282+278186611+277978771+277871795+277853547+277732398+277532836
2683+277389473+277274673+277094433+276867526+276591625+276073627+275397346
2669+275008793+274952521+274796095+274384309+273934080+273574581+273320439
2656+273132903+272911964+272680946+272628495+272786576+272888022+272762179
2642+272499996+272300543+272355978+272582866+272733597+272710910+272561198
2629+272515969+272707363+272943875+273069427+273091113+273152843+273357626
2615+273605874+273827613+273978635+274109227+274394643+274786617+275097085
2602+275405879+276009350+276854427+277568804+278071357+278504702+278937265
2588+279337736+279584236+279713663+279985980+280467283+280997689+281442588
2575+281728422+281919833+282073093+282185983+282331838+282484043+282546064
2561+282559545+282610304+282561856+282262394+282026337+282236797+282678384
2548+282910129+282978736+283138564+283356319+283559665+283710124+283709396
2534+283642718+283744054+284027524+284193301+284033546+283879139+284211367
2521+284839125+285247637+285391855+285401152+285361308+285498140+285853345
2507+286235550+286589081+286914886+287183619+287408561+287594641+287865139
2494+288256367+288488186+288584191+288973527+289650754+290227844+290640140
2480+290920753+290955484+290855130+290798840+290764109+290671068+290488517
2467+290290993+290240925+290481677+290903306+291116731+291004733+290956284
2453+291175568+291336942+291248104+291164688+291360266+291814406+292276188
2440+292574084+292734240+292813180+292845128+292866614+292912425+292975319
2426+293037649+293170023+293325848+293384485+293471322+293647615+293803786
2413+293924625+294022050+294192412+294502516+294817696+295073003+295285391
2399+295460028+295718391+295994765+296000586+295941513+296270265+296751950
2386+296852668+296512509+295780830+294577873+293031590+291234787+289100316
2372+286655068+284125403+282013420+280662497+279815818+279247133+279481299
2359+280837407+282736311+285036504+288233134+291727970+293703450+293387214
2345+291830453+290581230+290165587+290717170+292069640+293529795+294613841
2332+295502127+296673337+298239050+299795138+301222819+303070072+305262998
2318+307108159+308488046+309690875+311147501+312943941+314633404+316112954
2305+317433276+318520178+319667482+321006834+322211556+323202834+324182542
2291+325195215+326193334+327232243+328250775+329068890+329788979+330652286
2278+331652552+332592271+333315417+333923108+334667249+335524152+336217316
2264+336743320+337400315+338197326+338824484+339234633+339627317+340014688
2251+340361306+340795288+341408110+342104221+342651256+343053546+343525588
2237+343961863+344202087+344355674+344554418+344876511+345261990+345654747
2224+346169944+346683976+346922126+347026810+347336678+347850820+348230731
2210+348397782+348730610+349313340+349901638+350479929+351060622+351574836
2197+352073477+352622004+353218416+353899718+354721835+355601152+356364942
2183+357003089+357695525+358573132+359540686+360400536+361207808+362190063
2170+363308912+364362266+365301002+366200368+367165121+368238451+369341036
2156+370430813+371591944+372834144+374049963+375218954+376355815+377429035
2143+378589075+379937414+381271308+382553861+383942116+385395358+386702836
2129+387845264+389192694+390934044+392767234+394386144+395735684+397104291
2116+398875952+400939360+402983592+404958107+406839837+408672954+410623382
2102+412797405+415254333+417924049+420534965+422888992+425308915+428313388
2089+431780734+435199940+438465414+441856384+445509156+449318645+453241841
2075+457316224+461685191+466514304+471629996+476777490+481955185+487321872
2062+493029210+498822565+504473685+510448864+516905946+523287381+529542190
2048+536052942+542819819+549799048+556955079+563938420+570635435+577306724
2035+583989003+590477377+596748306+603269756+610312661+617203798+623558925
2021+629665896+635266003+640367832+645592647+650830562+655894404+661104446
2008+666266532+670752555+674595847+678185524+681539708+684971977+688659171
1994+692039917+694717602+696746224+698769243+701031539+702743089+703969170
1981+705655177+708027797+710551858+712169968+712597218+713205165+714458826
1967+715094426+714858423+714794238+715236989+715688837+716034218+716473040
1954+716658538+716635396+716923141+717271142+717698756+718803961+719952102
1940+720358903+721024559+722653220+724502748+726133883+727688826+729320107
1927+731805962+735392583+738998562+742319852+745999113+750121999+754634221
1913+759565979+764848868+770265513+775601963+781219317+787268578+793424525
1900+799693780+805718226+811045725+816118008+821306510+826386362+831246439
1886+836201048+841221735+845557919+848631926+850759301+852738001+855233536
1873+858217523+860332890+861016084+861834927+863150591+864343560+864970209
1859+864422956+863061881+861783258+860604552+858661657+855825617+852990015
1846+849916880+845707686+842030753+840162741+838216644+834874395+831646618
1832+829033555+825498676+821453512+817835162+814265351+811513001+809615807
1819+807287796+804168233+801321641+799435654+797689537+795391218+793070703
1805+791479301+790537108+789383509+787784903+786536117+785657601+784369154
1792+783035660+782744931+783116511+783350913+783291457+783485106+784241801
1778+784865466+784809140+784355618+783888342+784351106+785758974+786554092
1765+786521126+786518725+787094069+788469916+790272651+792085792+793615773
1751+794205017+793835693+794261489+795969327+797333604+797795786+799053668
1738+801503210+803299395+803949986+805283844+807794078+810416893+812789659
1724+815077935+816815829+817925764+819293170+821634207+825154314+829393564
1711+832839441+834518753+835985785+838887393+841868106+844213509+847705889
1697+852136241+855736034+858709323+861826048+865257081+869346709+874227090
1684+878743751+882531953+886958302+891639212+896159875+900729297+904070018
1670+905602255+908014318+912699813+917592274+921288855+924343286+927784070
1657+931133160+933466410+935275840+938982172+943317919+946440830+948976608
1643+952904753+957247632+959877869+960112853+959303180+960828649+964776006
1630+968247355+969456916+969939183+971936586+974616745+976032909+977148812
1616+980296029+983958406+984855480+983683179+983220851+984139611+985759103
1603+988697025+992454736+995428898+997916137+1000792929+1002074244+1000965256
1589+1000829243+1002394883+1005217095+1010810725+1016180723+1017698915
1578+1016607973+1014145405+1011654383+1009677139+1009250325+1012346601
1566+1015903821+1018335170+1020611075+1019457985+1015462452+1020600668
1555+1029441287+1036049082+1041503206+1045518533+1046415970+1045707088
1543+1045283767+1044934383+1046157480+1050219673+1054260980+1057043241
1531+1059629377+1062146016+1063487951+1062997170+1059881536+1056176659
1520+1057951012+1063329015+1066806695+1067924998+1067088254+1064789061
1508+1062478370+1063376245+1068353777+1071921186+1072995462+1072711938
1497+1071946875+1072666601+1073741823+1071393945+1067616804+1068856567
1485+1072112361+1071625291+1068645234+1066912070+1066325228+1064284816
1474+1059202127+1054884282+1054237475+1053239392+1050586158+1048469626
1462+1045863986+1039968494+1030531864+1022758099+1019516349+1016888586
1450+1014452071+1011890095+1007313033+1001453708+995612287+989764315+983352789
1437+974510860+963963932+954848231+947054744+941472903+940509461+942110614
1423+941555137+939507448+940111538+944358865+950479081+956463429+959980625
1410+962040248+966196391+972574369+979171903+984794351+989102371+992932491
1396+996880212+1001087150+1006571038+1011782536+1013813997+1012272954
1385+1009150334+1006602331+1006208337+1008674835+1013223662+1018919756
1373+1025099791+1029791689+1031702565+1030649320+1027025293+1023597827
1362+1023631085+1025218847+1024807025+1024085261+1024914802+1024891369
1350+1023046571+1020955219+1018711188+1015485012+1010450280+1004337123
1339+999987840+998054333+997291744+996567360+994301935+991831143+992165535
1325+994922980+997115269+997806686+999667057+1003046784+1005376759+1007932914
1312+1013504202+1020186444+1023659539+1024153450+1024420818+1024405754
1300+1024559232+1025839165+1027628291+1029770148+1031391023+1032184613
1288+1034908291+1040213157+1045323792+1049519524+1053286913+1056896748
1277+1060632845+1061580423+1058693079+1056262604+1055074001+1051828759
1265+1046358552+1041081486+1036559076+1032932284+1032226385+1033695091
1254+1033030309+1029213362+1025366431+1023372886+1022239081+1020669730
1242+1018713662+1016633808+1014775475+1013080881+1010463961+1008127218
1231+1007880735+1007675151+1005904728+1004742760+1005729199+1006583846
1219+1004770269+1002442040+1002691069+1004080380+1004282471+1004177314
1207+1005156985+1006789940+1007726456+1007352839+1005835011+1004161595
1196+1004148204+1005129986+1004990771+1004250523+1003932214+1003160528
1184+1001055713+998352848+995567604+993354502+992924268+992702965+991205950
1171+989757038+988396763+985785666+982294159+979787418+979275022+979609560
1157+978952711+977395803+975497809+972920114+970688527+969781120+969494540
1144+968272825+964712694+959867535+956230846+954818903+954276671+952488782
1130+949877902+947653375+944983113+942130044+940614763+939409350+936647394
1117+933101744+929727038+925977551+922914751+921305447+920245871+919965112
1103+918546765+913975525+909499107+907998745+907711218+906963621+906536806
1090+904822637+901216294+899462536+899458897+900026964+903109922+907479363
1076+910179827+911010968+911679971+913857487+916710628+917727850+916934696
1063+916377036+915677105+914001868+913566467+915268848+917231319+919167156
1049+921438112+923925714+927200575+929681337+928680125+925153032+921055180
1036+918383826+920581500+925296468+925893935+922692575+919320852+916853700
1022+915907504+916000290+916224722+917078568+917663737+916360080+914942897
1009+914563677+914111610+914669052+915846811+915212376+914120197+913522731
995+911551162+908991078+908093350+910004516+914816272+920567091+925325723
982+928930901+931752822+934362610+937261235+939643534+940278916+939270135
968+936724169+933213160+930266359+927948683+926439733+927017697+928824143
955+929638910+929428232+929232545+928494844+926580913+924473914+922800206
941+921696529+921631106+921360463+920056006+919197648+918593704+917017148
928+914927178+912924609+910615155+907072198+902389687+898314613+896312408
914+895688160+894176154+890760113+887134195+885475405+885068095+883282753
901+880353637+878321157+876750787+874237860+871536378+870913295+872385567
887+873270197+872693033+872180711+872793024+874348694+876719713+879975799
874+882528023+883736857+886171553+890609691+895416280+900987641+907724754
860+914540899+922075313+931344711+941336090+950265346+958128550+966322652
847+975403349+986240497+997505696+1004919089+1009216994+1013739041+1016838227
833+1016306038+1015163646+1017635602+1022407114+1025098335+1024786430
822+1023256885+1022935956+1025082252+1027408589+1027124119+1024530924
810+1021544899+1019771565+1019968416+1020559842+1019131525+1016807081
799+1015793716+1015125804+1012964444+1010157732+1008493630+1007285160
787+1003902159+997187751+990288208+985867317+981114871+973699586+966234815
773+960633836+954979441+949061316+945585383+944304577+942925454+941389214
760+939567704+937515067+938170825+940735130+939503737+936072705+936157704
746+937093565+934156808+929673696+927750230+927682042+925738419+922627515
733+921105758+919084267+915656437+913265550+911535007+909267107+907048256
719+904655477+901996931+899572350+897294189+898167685+903418116+908357662
706+913248813+921013263+927268254+927725851+926208023+927707585+930035814
692+929071353+927024173+928346970+931373092+931496807+931809294+935653386
679+936789811+933204281+930517572+929090492+926745234+925124796+928141968
665+932551725+933421582+932122873+930439559+931002823+936673883+942420700
652+941490660+938103437+938772367+941553245+943551812+945671619+945904274
638+941474432+932370666+921706208+917166697+922678748+931629763+932195574
625+923088460+916876259+916636399+911495200+900264422+890896417+889091791
611+901423406+922022771+930115428+921285143+910556427+908975141+919279517
##END=
