##TITLE=Sample description
##JCAMP-DX=4.24
##DATA TYPE=INFRARED SPECTRUM
##DATE=13/9/2023
##SAMPLING PROCEDURE=Instrument type and / or accessory
##ORIGIN=Default
##XUNITS=1/CM
##YUNITS=ABSORBANCE
##RESOLUTION=4
##FIRSTX=4397.6552
##LASTX=599.8556
##DELTAX=-1.9287962
##MAXY=1.8236099
##MINY=0.4392122
##XFACTOR=1
##YFACTOR=1.6983691e-009
##NPOINTS=1970
##FIRSTY=0.45954999
##XYDATA=(X++(Y..Y))
4398+270583108+269298991+268282862+269673089+271978073+272719530+271835481
4384+270189445+268802797+268499996+269086928+269466641+268767948+267695771
4371+267943035+269526865+270137223+269132710+268628392+269245489+269640257
4357+269012562+267965934+267721794+268288319+268687036+268365423+267505029
4344+266630947+265877628+265322141+264983542+264675810+264862551+265660898
4330+265781485+264589581+263541462+263790673+264604865+265028938+265125520
4317+265363044+265470559+265137575+264744070+264390380+264471345+265138137
4303+265045801+264425984+264998773+265537345+264524725+263655048+263809133
4290+263917332+263432649+262191506+261167445+262102540+264009369+264164911
4276+262590364+261501026+262331185+264304309+264649401+262858210+261539174
4263+261447347+261868648+263254102+264949833+265338425+264710414+263644343
4249+262255801+261961177+262985589+263663435+263608845+263248522+262690912
4236+262456458+263064956+263724308+263036933+261590220+261026696+261496797
4222+262033473+262201193+262294599+262563621+263391763+263940056+263481186
4209+263482660+263634201+262858316+261974074+261348537+261350081+261919764
4195+262181382+262439261+263176858+263751630+263519036+263004470+262876197
4182+262724901+262138285+261520854+261212824+260917409+260370573+260178076
4168+261155004+262463547+262641936+261841923+260960735+260651423+261012254
4155+261724319+262302232+262029507+261554826+261773803+261577884+260536574
4141+259831511+259533184+259026216+258608214+258677158+259391873+260670725
4128+261602486+261644442+261328445+261293630+261808705+262287246+262034754
4114+261652883+261664797+261326216+260430200+259924583+260264656+261010517
4101+261573743+261299526+260321370+260117993+261092657+262230989+262955652
4087+262838715+262483464+262996556+263701566+263779460+263512736+263355264
4074+263575469+263998121+264339211+264437794+264160542+263635850+263111159
4060+262830836+262914433+262876618+262246308+261860120+262782299+264127482
4047+264527603+264466765+264820770+265290467+265097795+264314171+263817644
4033+263974046+264489858+264638223+264024951+263435843+263930791+265312472
4020+266017254+265734984+265784345+266485232+267510398+268763175+269735014
4006+269725661+268844859+267981675+267580396+267679048+268360896+269341439
3993+270321175+271007901+271223473+271475387+271834112+272075761+272457368
3979+272494762+271964737+271758079+272124508+272828711+273484448+273527369
3966+273269121+273571484+274747806+275972313+276316176+275715732+274601108
3952+273845595+273915347+274792973+275379081+274342175+273944160+276052155
3939+278069042+277770382+275420318+273691176+275145698+277455683+277347695
3925+276161318+276546453+277392161+277113136+277602451+280475188+282941821
3912+282965072+281806473+279080416+273626320+269288217+270419863+275278445
3898+280392609+282214929+279162504+275894911+277894198+280363849+279422489
3885+278417924+277561811+277404444+280541202+281935465+279795604+277561986
3871+276170022+277535542+279490293+279050638+280750844+285081928+286258425
3858+281913706+272202489+265853149+274876886+286634997+291933674+290259912
3844+284794989+279612302+276095304+276140682+280549994+284912804+287492987
3831+289532511+290648364+290739822+288871914+283027962+280036129+284192843
3817+288037630+292284749+297655441+299272032+295564678+290991806+289665890
3804+287498831+286478893+291353795+296221520+299913608+303845396+306426404
3790+307655404+307591425+306685232+306741173+306688741+306144695+308525801
3777+312994932+315054214+313079862+310422978+311852302+315693614+319432835
3763+321606247+320530929+320633443+325526980+329630419+328448131+327792307
3750+337663225+350669339+364580279+389245483+416703460+435729669+444619956
3736+448073291+456154704+466884963+473213404+475110125+475792973+477751673
3723+482963419+492302328+503400877+512763511+517909453+521524753+532788460
3709+552484285+571838775+586403925+600107838+621313846+646293434+662909338
3696+669473127+670356334+667623188+663772119+661657982+661077648+658522996
3682+652190905+644634974+635983790+624691481+620323389+621485602+618033004
3669+615761220+617641833+617055462+612063938+603855516+593608483+583687239
3655+577634822+570217937+554488854+539297290+538203196+542954844+543961621
3642+541179307+536927555+530603010+521999135+513692762+505724532+495790162
3628+490930702+492713890+491698445+485287811+476605428+472083443+471302364
3615+468243429+463926120+460682865+458051214+458120282+459427930+456935502
3601+451271238+446849661+444198147+442184593+441168130+439265653+433944515
3588+429505215+430815741+433147362+432642412+429953837+426421503+423401559
3574+422037864+420796125+416361668+409780822+407624712+410314445+412227415
3561+411968834+410928120+409504622+407124148+404587150+403508989+402464485
3547+400077624+398509078+399116541+399866491+398706910+396596950+395323309
3534+394493518+393130314+391127745+388952894+387141349+386246772+386153067
3520+385649802+384513278+383295018+381863273+380489014+379556674+378259801
3507+376044976+374202687+373723953+373480744+372851030+372122102+370779710
3493+368849823+367124297+365911441+365191076+364380236+363070131+362239427
3480+362151023+361577988+360327861+359201830+358208250+356741445+355128012
3466+354103653+353471412+353009454+352569324+351871456+351120594+350344357
3453+349331544+347971885+346279593+344703888+343615269+343122216+343250244
3439+343553642+343456604+342703776+341387670+340060825+339320035+338872501
3426+337891203+336443736+335218526+334449169+333969312+333604392+333391293
3412+333159103+332386798+331255889+330389564+329792910+329382822+328962873
3399+328141153+327315608+327062782+327392853+327831403+327539867+326429454
3385+325144232+324042838+323322158+323125379+323201255+322989490+322287516
3372+321606001+321272456+321062447+320977341+320818640+320247079+319593396
3358+318959155+318263988+317837195+317621781+317058152+315961356+315030841
3345+314573550+313817494+312591477+311543218+310870442+310160115+309109364
3331+308232089+307964067+307522955+306314170+305014348+304293738+303948085
3318+303317459+302075369+300240134+297978633+296216397+295630903+295249909
3304+294034281+292226771+290606442+289763473+289368388+288640250+288234619
3291+289302778+290650206+290618199+290234696+290619937+290979996+290992630
3277+291307241+291912985+292487371+293113294+293539017+293545124+293498236
3264+293323094+292664321+291840899+291283657+291103426+291332177+291784975
3250+292143245+291941360+291139785+290792745+291268988+291520024+291045659
3237+290732136+291505108+292684659+293124139+293179747+293576253+293910640
3223+293796774+293973935+294834698+295617532+295749139+295229624+294511260
3210+294549724+295597036+296751107+297417180+297617363+297492424+297565211
3196+298157829+299106032+300417576+301829281+302473489+301940042+301217606
3183+301471977+302225962+302627487+303063545+303946014+304786089+305027684
3169+304889093+305091558+306082436+307534290+308452171+308436168+308175621
3156+308367486+309132738+309873457+309966003+309753572+309810847+310464742
3142+311687214+312697535+312855077+311954674+310411257+309582729+309878967
3129+310358087+310534757+310591260+310448949+309739183+308943715+308701698
3115+308240757+307147120+306498946+306603284+306426159+305603632+305064253
3102+305147394+304881583+303936995+303151178+302947380+303042663+303342517
3088+303951805+304679540+305141393+305309253+305748400+306527970+306945779
3075+307170248+307558190+307473681+307098267+307387628+308039627+308186676
3061+307862220+307708187+308059034+308520887+308682852+308670182+308722053
3047+308793647+308687133+308583252+308789366+309137791+309140950+308445784
3034+307375836+306592686+306197303+305921419+305665751+305434017+305302024
3020+305366704+305575837+305896642+306048675+305688633+305253241+305237905
3007+305630725+306419736+307294941+307789854+308255673+309419466+311522722
2993+314721406+318882086+323229963+327205550+330733076+333640013+335727161
2980+337335576+338839195+340114380+341183276+342248380+342949759+342651098
2966+341845838+341595504+341840083+341933471+341631512+341392864+341638987
2953+341909501+341892550+341829449+341812428+341650568+341012397+340072898
2939+339275815+338127324+336232357+334429305+333232417+332448320+332204198
2926+332372093+332125444+331135829+329920341+328823194+327877132+326900607
2912+325739482+324896144+324575689+324227369+323746635+323331423+322902068
2899+322666368+322773444+322779656+322679459+322990613+323602042+324010094
2885+324131945+324268816+324632227+324953173+324990655+325027294+325082113
2872+324822689+324374874+324018166+323690061+323177285+322372306+321578487
2858+321213286+320961407+320065988+318263532+316057166+314413200+313681745
2845+313289451+313007952+313063227+313122608+312785589+312353145+312158648
2831+312279446+312732665+313290679+313597376+313453977+313121029+312949238
2818+312790958+312623273+312842338+313483703+314024696+314236882+314502553
2804+314928819+315325325+315789494+316307535+316716114+317039446+317333754
2791+317638732+317846952+317732822+317377202+317145960+317143819+317130588
2777+317121428+317209588+317084368+316644203+316177016+315806656+315544565
2764+315490097+315644691+315765349+315630197+315282579+314903691+314835992
2750+315292055+315744397+315636725+315246220+314961984+314761380+314579867
2737+314511326+314651567+314954123+315324588+315579134+315601945+315603174
2723+315662695+315595839+315462547+315457388+315550847+315639673+315667503
2710+315673750+315793390+315927419+315862703+315740537+315827643+316031546
2696+316068501+316039864+316334699+316844492+317016388+316732889+316270510
2683+315794408+315501012+315402008+315121071+314712211+314665956+314742955
2669+314393757+313849220+313438676+313085864+312707116+312317875+312086948
2656+312003843+311773302+311455094+311333068+311313344+311283127+311362548
2642+311371637+311055605+310735045+310791864+311083120+311354651+311453304
2629+311338718+311251191+311358336+311569610+311712623+311785235+312072068
2615+312560734+312965452+313240283+313386314+313480439+313653459+313899546
2602+314340167+314952087+315424680+315762260+316130058+316559062+317094300
2588+317561312+317751844+317921284+318272411+318457258+318341444+318284098
2575+318377030+318414512+318351235+318336495+318469682+318685517+318806596
2561+318669584+318387243+318143015+317963573+317901525+317972417+318169512
2548+318464979+318669654+318633436+318387910+318129258+318149403+318468523
2534+318784416+318946134+319114135+319436625+319742831+319840501+319907112
2521+320127299+320446069+320792915+321153519+321477026+321697846+322014054
2507+322625026+323165773+323311103+323361289+323551330+323827740+324215261
2494+324563476+324678378+324813249+325290824+325947140+326324238+326360000
2480+326417627+326536880+326445949+326098752+325729269+325634828+325823921
2467+326084292+326347787+326557727+326614757+326532072+326346980+326198317
2453+326321150+326648308+326858142+326871162+326887166+327039935+327261667
2440+327507544+327884116+328286693+328428337+328407315+328488280+328586266
2426+328537273+328494387+328757390+329221490+329473333+329514745+329583076
2413+329707488+329987829+330392968+330648777+330843240+331159237+331500152
2399+331919295+332477133+332910138+333081157+333197778+333293553+333174054
2386+332697531+331589364+329504357+326280580+322071996+317384292+312601304
2372+307784098+303027397+298463228+294246853+290787973+288680732+288355645
2359+289836699+293185591+298501868+305544777+312652578+316342560+314717335
2345+310043494+306945007+306620902+307553101+308934169+310342014+311561713
2332+312865009+314902498+317802100+320657026+322841037+325157568+328387662
2318+331977868+335048560+337398642+339491580+341850330+344461205+346920502
2305+349046080+350950312+352667696+354256317+355858940+357430469+358833541
2291+360122905+361539488+363112456+364479134+365410035+366114431+366831848
2278+367601697+368382285+369091630+369815644+370672459+371455714+372086726
2264+372759010+373492360+374249434+375037147+375781551+376495178+377294471
2251+378147040+378960652+379689931+380159610+380293534+380384816+380769109
2237+381446728+382072581+382420304+382747813+383229390+383663904+384060620
2224+384594910+385227677+385724555+385882097+385974468+386371746+386864448
2210+387205994+387536872+387954821+388406216+388920993+389560849+390255875
2197+390900504+391518250+392192745+392839269+393272765+393545385+393970037
2183+394816710+395959550+396998509+397824546+398602326+399343923+400011084
2170+400838173+401974907+403097779+404028504+405021172+406085189+407019003
2156+407912984+408922112+410081202+411356843+412628413+413870854+415047808
2143+416077256+417114636+418359183+419813599+421330660+422717237+423916020
2129+425154566+426725849+428537184+430265062+431805707+433262966+434781115
2116+436488814+438435721+440463839+442369896+444299151+446515765+448804500
2102+450819598+452787633+454980628+457283471+459755824+462477775+465247806
2089+468020680+471010863+474376425+477880788+481262037+484767384+488536997
2075+492376976+496330909+500581327+505033437+509471403+514023570+518985297
2062+524315279+529630311+534708379+539949675+545727086+551765430+557830481
2048+564110842+570695583+577364132+583851484+589986796+595947931+602265001
2035+609029254+615708367+621935944+628009664+634319856+640663037+646917076
2021+653153076+658964213+664428540+670134813+675805218+681066554+686088540
2008+690864228+695413060+699744583+703727891+707674700+711766031+715354798
1994+718009892+720372714+723262875+726709999+730113884+732716687+734525635
1981+736234211+737850276+739106193+740361830+741760234+742630385+742576128
1967+742813653+744504260+746451764+747336234+747488688+747503006+747842518
1954+748608366+748908009+748443207+748291456+748282191+747595166+748083973
1940+750825752+753497692+754806393+755443231+756482821+758343430+760401905
1927+762012776+763186079+764846364+766924072+768603168+771962763+778030306
1913+783440656+786574870+789799911+794775150+800289733+805063596+809055327
1900+813144271+818063990+823682314+829590315+834701583+839080344+844441561
1886+850708445+856900927+862083368+865583696+868638314+872112811+875577973
1873+877789674+876872847+875300440+878597426+884567826+887900889+888537376
1859+888987367+889819685+889903984+888639152+885949595+882135937+877668245
1846+872798993+870316567+871872339+872939795+870798986+866965254+863083512
1832+858426516+853365223+850631235+848855978+846470626+845027932+843472862
1819+840653873+837932520+836040185+833592434+830129798+828080448+827730478
1805+826189868+822565023+819049675+817888303+817947895+815783573+810638402
1792+807910591+811366137+815383347+816098587+814948938+813704110+813360458
1778+814111777+813475711+808951866+803598721+804727243+810760112+815544504
1765+816301929+814079910+813430087+814955817+816404477+818507173+819395363
1751+817071076+815266831+817154603+820013460+821410671+821692345+822777419
1738+824453707+822749062+819102037+821397054+827331375+833050774+837832428
1724+841462889+843495744+840741261+833051897+830732664+838945508+848672922
1711+854560918+855492204+852749232+850874024+849877249+846158770+845531688
1697+851465378+860997382+872603723+880439645+883510828+883048904+877411980
1684+874713648+885109555+897481675+903902346+905152649+906567688+908574082
1670+910311927+918100470+928467318+932838920+934478358+939218460+944125474
1657+944357453+937063894+931300907+939314199+945502119+947727648+956462709
1643+968399928+974645263+972798623+963944308+957932918+966288740+978628361
1630+986034506+988890696+988228519+985604800+986513556+990576600+992273524
1616+992959004+997036016+1001354624+1002882109+1003875233+1006129891+1007167797
1603+1006848360+1007698507+1009951410+1012501078+1015197725+1017142983
1591+1017417708+1017926028+1019296987+1020066415+1021340652+1023678556
1580+1022968580+1016922094+1014367021+1019794357+1021479138+1019577960
1568+1023754011+1030346789+1032277377+1026249351+1009713184+1003121528
1557+1021068314+1034460300+1038250584+1039958388+1043241617+1045412888
1545+1043128610+1036692497+1028948174+1033066388+1046071134+1052437127
1533+1054553158+1058660212+1060308915+1056923841+1052908456+1049474879
1522+1046009577+1046980802+1051450109+1056525159+1060736235+1060734971
1510+1054700207+1043168338+1040233254+1056339575+1070040470+1071209281
1499+1064389297+1061601964+1065215017+1064292644+1055965039+1050847173
1487+1056844034+1065805880+1069284168+1067807993+1065118014+1061373845
1476+1055986307+1050859456+1051023632+1055202209+1054427798+1048044538
1464+1045148410+1045291318+1037492808+1021088809+1014007084+1019701916
1452+1022075406+1017283153+1008925226+1002034068+998636078+996769012+993062886
1439+983788833+970210140+961194247+956631376+951735452+948588955+947034377
1425+944348890+942447501+942331897+943470106+949588256+958890175+966284739
1412+972403240+977510578+979469313+979533116+981325569+984551663+986859103
1398+989008545+992225795+998350473+1007998010+1014253032+1013314375+1011051996
1385+1011851255+1014484871+1017850152+1019355596+1018526577+1019949829
1373+1026490385+1035005469+1041108388+1042209817+1036990034+1028909710
1362+1026563173+1030678720+1032843884+1031250912+1030117056+1029867879
1350+1028937575+1028536718+1027913637+1023779700+1016848745+1010870484
1339+1006890615+1002469108+997592907+995200677+995384225+995797997+996320635
1325+998463901+1001776469+1004456551+1006489898+1009798325+1014458339
1314+1018913818+1023704456+1027882753+1028865419+1028712334+1030520229
1302+1033404425+1034755872+1034298020+1034701264+1037275499+1039795897
1290+1040104525+1040414065+1044417728+1051594069+1058107322+1061826012
1279+1064415127+1067760614+1071427995+1073741823+1073122252+1070746937
1267+1068969715+1066175222+1060755256+1057148941+1058052784+1058320701
1256+1054697259+1050663905+1049151231+1049675273+1050294563+1048906407
1244+1045151850+1040830645+1036961958+1033373261+1031391223+1031678442
1233+1032068420+1031090176+1029026717+1026909773+1025356739+1023417658
1221+1021778500+1022476264+1024901274+1026322490+1025251875+1023791703
1209+1024011188+1024528843+1023750361+1021333914+1018378054+1017780453
1198+1019960849+1021589267+1020887503+1019686895+1018860333+1016773149
1186+1014257594+1013766471+1014040074+1013125422+1012380491+1013053477
1175+1013295564+1011233930+1008371633+1006711559+1005575948+1004162032
1163+1003056041+1001904707+1000390418+998566098+995528115+992358525+989869361
1150+986945508+985791507+987205774+987355701+985114309+981148689+976584766
1136+974777572+975131262+973730050+970755379+968368834+966999909+966151868
1123+963928445+958553752+952064294+948040908+946632466+945526616+942835093
1109+938462228+935203075+934362825+933412937+931797364+931660422+933163340
1096+933314952+930429492+927265026+926398174+927890914+930280759+931040781
1082+928669256+924613371+922746727+924592946+927994165+930855829+932563071
1069+933140879+932912901+933830290+936524410+938787771+939996451+939397796
1055+937255654+937245125+938552844+937929342+938561337+942046082+943588657
1042+943147440+944656745+946175316+944483586+942080826+941387976+939714355
1028+936014055+934165660+936026058+940507437+945853282+947883470+944721250
1015+939695614+935738417+934153236+934115123+933846855+933964845+933792036
1001+932372785+932571494+933688014+931591565+929175189+930910016+935114143
988+939708459+944597013+949444225+953648984+956633061+959037996+961213900
974+961863021+961036880+961322485+963523166+965088694+964240793+960786440
961+956567784+954668711+954453226+953640070+952975998+952981052+951120724
947+948101061+948377330+951107879+952318173+951202145+948805141+947075789
934+946311345+944832923+942742441+941727417+942264655+942790241+941997721
920+940058920+937024517+933191697+929781635+927546139+926645806+927273519
907+929033334+930797220+930787043+927729125+923917223+922475792+922253218
893+921769184+922704683+926492791+931659720+934371599+933976637+933720301
880+934521174+935872481+938520767+942505970+946141975+947641945+947100426
866+946570698+947869853+951602231+957093370+962588369+968475172+975020853
853+980600783+987396411+996776944+1004324031+1007198190+1009144009+1013961671
839+1019257540+1023769453+1030087856+1037880681+1044953491+1048549488
827+1048003477+1047183161+1047968382+1052672475+1062875359+1066765875
816+1057628412+1049283259+1049131086+1051880376+1053831390+1053600744
804+1048641298+1041224273+1038631578+1041322399+1040970885+1031169491
793+1018485235+1014968483+1021765094+1029430874+1028402794+1018300072
781+1007699700+1003151851+1002569200+1000379258+996536822+993406328+988913227
768+982271877+977587928+976005554+975521451+975791544+975555353+973586581
754+970394951+967222904+965852436+965529770+964572934+962884292+960791634
741+959188835+957837038+955232410+951665332+949301388+948624822+947271480
727+943296244+938375262+936225328+936947307+937342479+936596425+935986119
714+935058061+934034333+936493175+941456412+943325303+942340110+942598832
700+947986440+958519219+965353592+963243878+959486373+960114296+962714993
687+962878817+960259240+958337425+958599516+958634612+959711403+965018994
673+970077690+966306287+953926096+951688565+965012958+973829440+973341757
660+969797139+966215320+963508215+967334577+973414965+970563268+967414524
646+972109212+971971990+960720602+952829230+956231431+960009502+959300438
633+954588553+943261500+935330119+938293420+949227898+965864298+976884620
619+971500100+967528163+980214946+989987913+988158960+996227984+1012590360
606+1014958305+1002662553+990992829+983559240
##END=
