##TITLE=Sample description
##JCAMP-DX=4.24
##DATA TYPE=INFRARED SPECTRUM
##DATE=13/9/2023
##SAMPLING PROCEDURE=Instrument type and / or accessory
##ORIGIN=Default
##XUNITS=1/CM
##YUNITS=ABSORBANCE
##RESOLUTION=4
##FIRSTX=4397.6552
##LASTX=599.8556
##DELTAX=-1.9287962
##MAXY=1.5687164
##MINY=0.21735346
##XFACTOR=1
##YFACTOR=1.460981e-009
##NPOINTS=1970
##FIRSTY=0.2333698
##XYDATA=(X++(Y..Y))
4398+159734998+159744402+159559568+159877494+160704188+162024258+162568091
4384+161356022+160059707+160202784+161408866+162595436+163031012+162895146
4371+163139422+164097882+164874027+165005987+164563628+163023587+160588455
4357+158711353+158056357+158269015+159068884+159693037+159153733+157365866
4344+155020652+153199545+152823156+153677347+154267496+153892728+153419587
4330+153019882+152345088+151685839+151109194+150499758+150295525+151256096
4317+153062108+153802647+152328106+150274993+149921563+150702880+150840786
4303+150593909+150743086+151458463+152480119+152807336+152564794+152755350
4290+153007317+152711951+152425378+152798035+153278846+152718703+151221204
4276+150165860+150454055+151509042+151990699+151684870+151327727+150573469
4263+149275797+148772272+149189887+149390347+149665190+150308896+150309478
4249+149989675+150314802+150348735+149633001+149476613+150003107+150284163
4236+150759272+151638330+151705911+150989239+150593052+150680196+151021479
4222+151213432+151473476+152728689+154200547+154515230+154174110+154533048
4209+155676158+156272570+155784527+154780537+153981076+153850951+154014122
4195+154116677+154117483+153978995+153977118+154043098+153627380+152966733
4182+152976218+153404717+153348140+152983011+153037293+153620659+154282407
4168+154921575+155360211+154969349+153929150+153059619+152729188+153066585
4155+153908038+154336954+153926264+153580861+154096237+155155060+155854465
4141+156135020+156912818+157758258+157355452+156411282+156220328+156447000
4128+156505575+156721211+157711575+159303103+160810231+161792170+161949007
4114+161756778+162158625+162764399+162571671+162011488+162014518+162466535
4101+162805605+163125316+163883113+164544392+164803009+165691960+167203157
4087+168159730+168375683+168273403+168035256+167990920+168103990+168352520
4074+169251160+170178461+170609539+171413641+172116790+171643271+170856151
4060+170787530+171097765+171384410+171751385+172181209+172590002+172794398
4047+172666355+172869752+173956561+175221840+175607868+174854580+173955011
4033+174008864+174534032+174696366+174704220+175036231+175668840+175872808
4020+175588734+175697154+175912892+175763674+176009582+176764217+177477034
4006+178040328+178061135+177419571+176855971+176560086+176113923+175811020
3993+176313280+177443744+178610027+179504639+179928343+180025951+180264190
3979+180714310+180656990+179843973+179579829+180644302+182078299+182842277
3966+182569218+181856380+182047110+182981989+183695357+184210713+184144967
3952+183391903+183094447+184054478+185129436+185224413+185906877+187659056
3939+188876459+188708005+186704900+184965531+186783231+189898930+189944461
3925+188471317+188935411+189192804+187778675+187993454+191353388+194909192
3912+196129961+194858542+190918873+185023362+181346654+182468203+186826314
3898+192453681+195392033+193255376+191031801+193682834+194958047+192724456
3885+192876631+193793029+194759730+198497124+199099278+195227965+191817095
3871+190795419+193716044+196396798+195510734+197082607+202288657+204446794
3858+200015594+189575527+184271032+194521737+204964129+208609606+207022148
3844+203141186+199109355+195479054+195222600+199538547+203642304+206233447
3831+208866244+210600186+210651653+207533180+200351930+198211745+203402659
3817+207123673+212265324+218412719+219391700+215112105+211348232+211126436
3804+209518783+209354347+214134102+217578263+221100205+226281450+229280937
3790+230421151+231211769+231547248+232360183+232587426+232273264+235298229
3777+240319934+242594018+241426041+240603356+244023140+249411699+254612241
3763+258556112+259622462+261653310+267176358+270874341+270396172+275379528
3750+297425476+324866591+356875640+402341969+438412305+454362323+458579907
3736+461213724+470444119+482135430+490267714+493609738+495002490+499331451
3723+508262635+519794469+530946231+539745068+543982397+545179320+553095295
3709+570960887+590025931+604727990+616290788+628313255+640303368+649603568
3696+656108677+659849907+661222627+666125774+679976099+695332511+703461287
3682+704799778+705361562+705936565+706170662+712969514+720876188+724176802
3669+732457509+745614926+756260266+763833948+767247246+765442193+762344914
3655+762707851+762064634+755743196+753482596+764439794+779232546+791847924
3642+801335671+807068562+810352123+811696407+809901227+804925623+798707076
3628+802294417+817187775+829414108+832505838+830936106+832700769+836040142
3615+835884784+835325366+839341082+848178024+858755804+865712544+867952989
3601+869993200+874053223+878402338+883700080+890392043+893590337+890980427
3588+889511629+894859063+902624658+909082035+913014360+913559009+913198195
3574+916344104+921020906+919782288+912013838+907531314+909152125+910450389
3561+911064802+915099448+922220113+927807193+929847322+930253178+929792409
3547+927886504+928016486+933361635+938670965+939987424+941823647+945889462
3534+947764361+946662171+946009979+947611206+949802695+950819700+952540872
3520+957037104+960917861+959883232+956441702+954546568+952238317+947810870
3507+945680986+948470079+951208909+950280273+949308472+949814281+947409992
3493+941030213+936322568+934876943+934107009+935088764+937862762+941455325
3480+945969181+945995292+941113196+941433621+946804799+946985859+941365652
3466+938296687+941630429+945172157+942867170+937070634+932469798+931030292
3453+930041356+928488352+928634978+928078090+924463170+920858776+919271991
3439+918350127+918569292+919865353+918579002+915720471+914106025+912767861
3426+910929843+908198193+907190980+909306259+909857517+908551093+909318172
3412+910650053+909400909+906887772+903073759+896135542+890685052+892153524
3399+897403207+900362998+900259372+897257804+892667330+892347884+895006751
3385+892864546+887343069+884869668+885788188+887820320+890091854+889793460
3372+885163085+880427535+879489677+880743064+880543319+879155300+878625582
3358+877177754+873763967+870163326+866841252+864360998+862585401+860826449
3345+860734410+861959809+862305202+862474105+863635533+864385721+864008995
3331+863677392+860671826+853811206+849516352+850926401+852628481+848892637
3318+843683262+843821892+846586017+845612747+841634157+841477739+845215868
3304+843937676+838682118+839773375+846242419+849663795+852147068+858485805
3291+862946868+858531580+847637129+840363554+843851022+853374018+857877103
3277+854873904+851461341+848652909+843749354+841420296+844472534+849162065
3264+850784181+847661852+844756894+847888279+855759377+860981318+859320036
3250+852745733+841828272+831521145+831347592+839628298+845718985+844590929
3237+840322267+838857875+837744098+832743280+828635688+828951136+831733701
3223+834207917+832970442+829513572+827671067+827292465+827869507+828662696
3210+828475353+828092263+828142362+827864285+826633582+824279392+822407676
3196+823855913+827937966+830008367+827156609+822102102+818191072+815803592
3183+815376766+815538651+813854441+812259660+813270626+814567095+812398780
3169+807598198+804495044+805076982+805724360+802929229+799567092+797393228
3156+795372192+795151640+795648474+793672479+790293043+786852656+783362495
3142+780574871+778490028+776712391+774537385+771842371+770310581+769646150
3129+768122112+766810140+766939550+767105270+765695873+762196656+757069202
3115+752870060+751825884+751789411+748004854+740837109+736434549+736338348
3102+736028367+732657499+726927545+721406476+717646969+714940614+713016187
3088+712264857+711803190+709959543+706741829+704108665+703311070+703110264
3075+701525682+698816389+696189589+693073870+688716432+684286130+681384476
3061+680225740+679327498+676585526+671870986+667391971+664613649+662765554
3047+660792905+658413298+655436740+652430929+650069233+647643402+644051492
3034+639404677+635349468+633163773+632053301+630090361+626722838+624291867
3020+624680302+626296829+626871464+626046943+624526128+623503534+624380684
3007+626790440+629311656+632789740+638522712+646043888+655403000+667018836
2993+679723439+690275149+694830537+693806025+690957204+687310870+682913655
2980+679565022+677577358+674815110+670495818+666690985+665515441+667620805
2966+671514863+674393058+676199253+678683832+681399122+683330118+684760525
2953+685890132+686589078+686772667+685750441+682376553+677024223+671825089
2939+667250770+662562586+658678605+655497079+651587886+648070513+646541049
2926+645142545+641443827+636725738+632576490+626970358+618903309+611119600
2912+605267702+600929521+597847419+595423996+593169352+591875454+592268172
2899+593448123+594744021+596987485+600248730+603841211+607548701+611242972
2885+614905462+618631270+622797775+627202864+630393488+631026342+628520507
2872+623006128+614915335+605055269+594654307+583728768+571546048+558568590
2858+545975650+534403712+523680244+513285891+502771838+492320980+482934371
2845+475120390+468641922+463372207+458970952+455048296+451750211+449340740
2831+447722541+446268878+444406342+442535972+441382295+441034780+441326443
2818+441974677+442340143+441876518+440448925+438186490+435620805+433374117
2804+431185035+428399410+425045759+421367970+417531641+413967433+410944936
2791+408058826+404858819+401649061+398865843+396232189+393376228+390623608
2777+388374962+386488559+384709127+382953684+381239733+379651601+378339343
2764+377420253+376704172+375804053+374591750+373303603+372221526+371263964
2750+369984222+368315760+366798127+365573747+364311834+363183207+362438568
2737+361647296+360594104+359717036+359066884+358260395+357338530+356674099
2723+356251721+355609565+354764156+354271972+353959013+353202257+352155592
2710+351197377+350295177+349408807+348507096+347286144+345459223+343313224
2696+341392632+339771761+338206435+336674767+335223533+333725482+332246321
2683+330925700+329600143+328082877+326489809+325097730+323875207+322672349
2669+321612976+320621347+319446231+318271604+317339377+316496619+315718934
2656+315117474+314469586+313702671+313177646+312928311+312560438+312137387
2642+312023928+312118416+312185691+312180102+312112214+312111970+312287379
2629+312649030+313235599+314027319+314878379+315587871+316077321+316579785
2615+317358960+318342225+319340463+320225732+320902770+321438117+321881098
2602+322158726+322299968+322352128+322297479+322091553+321720355+321275742
2588+320679504+319748521+318555740+317183142+315717914+314419670+313185438
2575+311719435+310232400+308996597+307932104+306751358+305221506+303687431
2561+302600601+301751397+300772192+299761266+299060423+298657770+298274251
2548+297938772+297722462+297409259+296996406+296811695+296959199+297202476
2534+297332845+297247067+296947408+296727183+296837214+297219835+297919373
2521+298890419+299773974+300554964+301366818+301979477+302433738+303094253
2507+303936562+304679406+305305590+306030136+306804374+307265592+307362140
2494+307418828+307508461+307414952+307135345+306822488+306503940+306171990
2480+305824740+305384819+304710841+303821390+302950421+302220938+301593898
2467+301016835+300454745+299940979+299454120+298820267+298034544+297346185
2453+296730895+296004064+295397892+295154126+295062331+294857037+294540182
2440+294174451+293737691+293262092+292775213+292262141+291817324+291548875
2426+291490065+291628104+291832093+291908792+291819343+291709006+291686751
2413+291738360+291840354+291939860+292007563+292185196+292504153+292830228
2399+293226537+293654015+293843337+293900107+294074680+294171003+293928400
2386+293282654+291961054+289531837+285939336+281579736+276926841+272275742
2372+267655384+263029314+258444755+253991830+250378400+248462438+248187503
2359+249486032+252525521+257095270+263314204+269985645+273664720+272434445
2345+268204643+265155077+264705588+265679082+267127971+268492267+269627646
2332+270814899+272715133+275469058+278332444+280793667+283326244+286313797
2318+289157335+291355474+292942565+294337315+296088311+298118955+300190049
2305+302213880+303899232+305237600+306538863+307970372+309448533+310614287
2291+311315966+311932623+312757246+313697857+314494963+314907590+315078716
2278+315387188+315908460+316421552+316800909+317200849+317673327+318026716
2264+318243413+318414947+318507007+318584094+318687374+318662671+318563267
2251+318563838+318621852+318633480+318575608+318564960+318680907+318763951
2237+318700857+318620710+318725642+319029360+319243956+319276819+319397070
2224+319588003+319685040+319761679+319851699+320038124+320439512+320911990
2210+321298711+321599451+321860271+322226389+322738339+323261059+323791470
2197+324411962+325165087+325930493+326465289+326800463+327158972+327681529
2183+328332457+328905827+329319883+329715886+330212496+330763550+331340511
2170+332003045+332715270+333424069+334214157+335105464+335888657+336486037
2156+337099247+337907837+338965925+340104303+341078694+341932814+342866653
2143+343929596+345010775+346065232+347157713+348262759+349284047+350257154
2129+351293986+352333960+353275122+354317747+355700177+357201899+358491514
2116+359656002+360981927+362563776+364171490+365637922+367221525+369096383
2102+371120274+373228128+375301344+377284315+379624756+382509357+385504111
2089+388554880+391918568+395423619+398867801+402473256+406470450+410739193
2075+415063299+419528157+424314991+429193170+434033122+439249677+444948747
2062+450704607+456378627+462221834+468425163+474929947+481385568+487592161
2048+493798999+500038393+506094973+512190106+518628063+525264378+531890942
2035+538366922+544535002+550523164+556468651+562190037+567658233+573083754
2021+578259716+582753132+586888263+591234400+595612195+599788165+603922031
2008+608018731+611867830+615251182+618026648+620425144+622854565+625073184
1994+626601220+627833270+629509606+631692241+633876713+635571245+636717456
1981+637307798+637347127+637464788+638196086+639015263+639072502+638439077
1967+637933267+637925720+637924374+637538427+637067418+636832342+636606527
1954+636007290+635181586+634478071+633775534+632694926+631438317+631527908
1940+633515857+635656797+637083900+638282128+639842681+642062809+644755783
1927+647537900+649996858+652949182+657261253+662168276+668046244+675284732
1913+682234373+688248401+694504155+702071147+710448544+718430122+725917395
1900+733171223+739568627+745156033+750931190+756674526+762187191+768275266
1886+774236461+779091059+783043457+786236366+788961815+791011164+791661887
1873+790673767+787429127+783534417+783217990+785149271+784636444+781004715
1859+776817404+773512220+770094761+765641286+760432727+754496582+747260215
1846+738422130+731226398+729106468+727666799+723465698+718211283+712696904
1832+705389304+697437754+692811622+690620134+688799088+688134984+687320743
1819+685133498+682483647+679832328+676653128+673596443+672352236+672370594
1805+671666794+669344834+666446730+665260904+665777484+665089105+662011736
1792+660848022+664459311+667820510+668219511+667366065+666657246+667120463
1778+668612434+668086021+663992463+660264167+662523624+668253782+672900026
1765+674646371+673833396+673966886+675789400+677601755+679509088+679116981
1751+675651544+674704018+678747518+683512810+686678017+688699052+691077721
1738+693179128+691809142+691307983+699116579+708947679+716728695+722483617
1724+726531726+729046659+727849573+723827003+726099271+737365552+749056863
1711+756858034+759871351+760114831+762065042+764529223+764571571+767625277
1697+776340234+790113696+806747648+819046681+826915657+831527101+832742465
1684+841189381+861768305+879597547+889882480+896226357+903168410+909326249
1670+913933777+922271192+931670897+935874691+937969571+943770512+949665778
1657+948717313+939465132+936044817+947919474+954276651+956266925+966919201
1643+980622083+988146319+988116128+981935442+979172296+988389147+997925524
1630+1000839621+1000259315+998801369+997961753+1001445793+1005232716+1003775504
1616+1002417105+1006458850+1010257686+1011297374+1011018236+1011107665
1605+1012127525+1012702936+1012541866+1012787877+1013420649+1013999486
1593+1014298860+1013701745+1011756837+1009381025+1007917775+1007330696
1582+1006153194+1001546890+992321554+986419189+989536949+991928754+992326368
1568+997975134+1006512784+1012735574+1013117440+1003743601+999516226+1015319618
1555+1028997776+1033510327+1031468321+1026850676+1021945978+1014904542
1543+1005577457+999828981+1010396316+1028492130+1038341752+1044622474
1531+1054166440+1060092223+1059328082+1056710747+1052084534+1046474200
1520+1046720944+1049319349+1050424313+1051215462+1049675839+1043144048
1508+1031852391+1030488850+1046609566+1057357391+1056251528+1050357976
1497+1049079622+1053035936+1054604363+1052830316+1054982394+1062854471
1485+1069275129+1072109752+1073741823+1073729176+1069434322+1061594638
1474+1054884480+1056210649+1063520697+1066986950+1064292916+1061320886
1462+1059192715+1050683950+1035260874+1029239544+1035672686+1039264596
1450+1035903438+1028740343+1023910142+1021143324+1014947869+1005896903
1439+995743909+984770147+978266751+973648290+964494513+956512853+954548282
1425+952883002+950651776+949721589+951567521+963445196+979530011+988845102
1412+992370266+993580326+993399347+993487797+996769889+1002563405+1007244124
1398+1010407087+1013834990+1020107961+1029007731+1034833641+1035621118
1387+1035293594+1036092413+1036743544+1038191780+1042560233+1048049888
1375+1052080863+1056975035+1062996855+1064982478+1062537554+1058891710
1364+1054911896+1053872044+1056879078+1059090639+1059179578+1059501227
1352+1059796847+1057397943+1053024921+1049693382+1046547717+1041159648
1341+1035093930+1031962463+1030523936+1028055921+1026278692+1026382318
1329+1027040140+1027365787+1028177580+1029988018+1031055693+1031955935
1317+1035468942+1040810420+1045342635+1048328047+1050523697+1052265758
1306+1053904356+1055734132+1056975198+1057697154+1058216427+1057498959
1294+1055067416+1052838884+1053741818+1057485414+1061593496+1065462096
1283+1068691722+1070280058+1070269450+1069624765+1069012800+1067268944
1271+1063305040+1058188439+1052569048+1045324195+1036601731+1029626958
1260+1026078131+1023100226+1018648872+1014369032+1011908278+1010943495
1248+1010546696+1009515086+1007681230+1007262156+1008683792+1009481061
1236+1009049503+1008709332+1009126039+1010065284+1010984782+1011193503
1225+1010263805+1009357770+1009429085+1009651350+1009489547+1009237580
1213+1009908049+1011858424+1013161175+1012389120+1010619316+1009560453
1202+1009700716+1010834810+1012270807+1012350199+1010819307+1009381759
1190+1008561971+1007027325+1004844812+1003632957+1002681637+1000510058
1178+998059667+996668792+996353916+995985349+994081811+991256898+989690103
1165+988922046+987126132+984700138+982435295+980074170+977940043+976333512
1151+973780801+970342535+968212569+966614116+963273030+958752646+954748598
1138+950974486+947226811+944545587+941755270+937822291+934454605+932119427
1124+929409890+925670863+921437695+917229496+913358856+910516889+908352082
1111+905330769+901562450+897810613+893482631+889377976+887384519+887508055
1097+888340736+888397608+887689768+888097826+890345371+892656968+894143717
1084+895404039+895846449+895022173+894093454+894872853+898259714+902303173
1070+904516855+905540551+906397792+906088871+905039147+905058567+905880232
1057+907153446+910281486+914775678+918347597+920638714+921642989+920766165
1043+919560349+920341625+922255363+922196696+920370918+919602697+920058570
1030+920317146+919888852+918727505+916912824+915155831+915129639+916448710
1016+915990633+914258527+913626570+912694098+911699288+912289059+912484888
1003+911087649+909623583+909240982+909544109+909990599+911092218+912689611
989+914506576+916976958+919987909+922482035+923053284+923467380+927014984
976+931894958+934901585+937371885+939904279+940837240+941215516+942100826
962+942923552+943671945+943636696+942821068+943100206+945397442+948372246
949+950206021+950826064+951031358+951180025+951076643+950649165+950360644
935+949993138+949904852+950888158+951315147+950066329+949072253+949222062
922+948747177+947050483+945883179+945303444+943626170+941947671+941986266
908+942277154+941628552+940990721+940927321+941131636+940545863+938604791
895+937310198+938004575+938667619+938140431+937919226+938714618+938598997
881+935652425+932399707+931815974+931752493+930919486+931922946+934877106
868+936386457+934882328+933534536+935818309+940504739+944369667+947226729
854+951729080+958661096+966340282+974450535+983252636+992450883+1001498096
841+1008969376+1014779048+1019019805+1021557666+1025263075+1031116563
829+1035615080+1037924147+1040792306+1043932993+1045214449+1045130569
818+1043122751+1039368467+1038784162+1042496017+1045190541+1043451173
806+1039451939+1037779397+1038248162+1036039620+1030985521+1027020394
795+1024373032+1020342547+1014492485+1008645687+1003612395+999632336+996297860
781+991285211+984662686+978757792+972985817+965555497+956149020+946405145
768+939963190+938319778+937771294+935179825+932084096+931765303+937849462
754+946083333+944115987+933489903+926225059+924676379+924491810+922862514
741+920645812+919555535+918034108+914338245+910354351+908414258+907928521
727+906836367+903731255+898685397+893661978+890899485+890645152+892025583
714+894381975+896743019+898388145+900104177+904060329+909774779+912414226
700+910797496+909988559+913246010+918250580+920702684+919271583+916314240
687+914954617+916452789+919258446+920563564+920023484+920483846+923273999
673+925358271+921283888+910786072+908759896+920162115+929152130+931976227
660+932147251+931553808+930321147+928914116+928579086+929346164+927986785
646+925000884+925304582+927753748+929332537+928720490+923163927+918663698
633+923775484+934647007+940496743+936222940+927622625+921305756+917362578
619+913384395+910277488+911964636+917268906+925543248+936447572+941735524
606+940962979+940452028+937167407+929684948
##END=
