##TITLE=Sample description
##JCAMP-DX=4.24
##DATA TYPE=INFRARED SPECTRUM
##DATE=13/9/2023
##SAMPLING PROCEDURE=Instrument type and / or accessory
##ORIGIN=Default
##XUNITS=1/CM
##YUNITS=ABSORBANCE
##RESOLUTION=4
##FIRSTX=4397.6552
##LASTX=599.8556
##DELTAX=-1.9287962
##MAXY=1.732785
##MINY=0.33161655
##XFACTOR=1
##YFACTOR=1.6137818e-009
##NPOINTS=1970
##FIRSTY=0.35451958
##XYDATA=(X++(Y..Y))
4398+219682476+218814897+218540841+218247819+216938112+216821324+217784675
4384+217301735+216024161+215687243+215734741+215299538+215281662+216219860
4371+216658590+216142205+216090349+216616724+216460860+215573779+215331524
4357+215655035+215059518+214593290+215781205+217071243+217060126+216040542
4344+213915039+211487539+211260057+213064450+213778473+213021458+212520050
4330+211855261+210245293+208896066+209268886+210960129+212224812+212415691
4317+211677402+210191775+209539747+210054414+210251221+210387732+210708141
4303+210249301+209201462+208571724+208480975+208503764+208887221+209601687
4290+209844126+209608021+209821504+210704115+211631640+212376909+212067876
4276+209742704+207129735+206209894+206484411+207318620+208683655+209541945
4263+209159374+208355582+208033954+208323319+208665889+208280013+207323366
4249+207270992+208483542+208732815+207503497+207093133+207848043+208472000
4236+208421325+207920859+207787820+208132625+208585260+209214943+209746914
4222+209450531+208495361+208099328+208314898+208300493+208093493+207961100
4209+207850628+207631106+207184879+206343893+205505714+205561652+206442343
4195+207220872+207497458+207812382+208213290+207963556+207376570+207564199
4182+208342581+208408214+207813102+207405066+207059799+206992172+207633248
4168+208348749+208251315+207434724+207022421+207382849+207333117+206402619
4155+205562501+205490331+205857702+205840971+205682835+206465464+207969226
4141+208931358+208501640+207119763+206000750+205756279+206339719+207085340
4128+207116310+206526554+205988894+205604348+205695817+206840111+207799492
4114+207347706+206656324+206382601+206260439+206899133+207961081+208190520
4101+207670571+207451160+207784940+208012458+208415896+209186318+209052522
4087+208232792+208257464+209095939+209862187+209988375+209254315+208196374
4074+208155894+209482350+210517816+210309246+209649683+208908754+208387216
4060+208643728+209137435+209433061+209849870+210154895+210123796+210063851
4047+210196539+210706553+211862260+213302476+213873930+213393077+213194737
4033+213840504+214088872+213327499+212778630+212995973+213359245+213540742
4020+213548295+213729220+214123332+214351017+214537371+215047163+216081613
4006+217098981+217156951+216668433+216307396+215724565+215501128+216364940
3993+217430637+218283609+219339426+220331678+220623777+220170255+219835570
3979+219842071+219638062+219687056+220553360+221875920+223001046+223569287
3966+223773167+223863269+224208221+224471455+223950989+223545316+223764192
3952+223656896+223220807+223469415+223917932+223645945+224078229+225782233
3939+227149170+227447178+226617402+225504761+225995919+227803026+228464306
3925+228126778+228526855+228482016+227860164+229151736+232383952+234954427
3912+235834453+235461394+232663124+226857275+222076679+222191990+226143677
3898+231354636+234391006+233240248+231094929+232168844+232955850+231585035
3885+231539088+231448062+231506696+234742218+236107069+233667565+231347323
3871+230503973+232309972+234188603+233480804+234883438+239224916+240772095
3858+237096274+228470604+222669999+230649718+241013538+245473521+244058790
3844+239702335+235624147+233096313+233249500+236277707+239501447+241954229
3831+244167563+245517418+245992270+244737522+239733914+236596048+239231158
3817+242200159+247044929+253018868+254799881+251582678+247851289+247406686
3804+246191588+245064007+248420546+252046172+255299700+259517742+262567316
3790+263843468+263932148+263572274+264007052+264242603+264106905+266810769
3777+271389479+273487337+272180290+270586592+271826455+274518833+277821927
3763+280832498+281411986+282729578+287402767+290634872+289239662+289371427
3750+300549603+315598967+333883668+364848295+394675737+411687592+418303310
3736+420151932+424671084+432331908+438873682+441763827+443893522+449706648
3723+459209518+471752083+485771374+497259820+503634871+508596133+521139695
3709+540777686+560478244+578931331+598159531+620403897+643266071+660613516
3696+667850070+664930230+655536021+647355267+650175383+658652133+661785900
3682+659054648+653240895+642605900+629937572+627833916+630091220+626588697
3669+626913797+632616007+633306096+627912882+621413694+613742159+604130663
3655+597337068+590435845+577823510+567043472+566870839+571009305+573772210
3642+573505578+570434748+565843388+559481523+551252458+541420277+529673693
3628+525093118+529031582+529190476+522134089+513163818+508916099+507533889
3615+504768842+502143039+499560967+496235102+495516721+496051758+493230866
3601+488544953+485639147+483610690+481621236+480542963+478408503+473494518
3588+469759896+470919980+473376068+473932268+472564574+470184055+467799030
3574+466096152+463888857+458281680+449964341+446521652+449248730+451754200
3561+453122005+454444787+454133094+451539868+448417661+446382445+444912257
3547+444062868+445010393+446318326+445936717+444361301+442885167+441804455
3534+440554805+438504261+435726988+433434521+432660886+432649769+432263763
3520+431290532+429878553+428754259+427874658+425950209+423998946+423919758
3507+423577926+421119401+419209948+419241490+419226531+418418362+417268287
3493+415745393+413997308+412393896+411088215+409858546+408362430+407175605
3480+406689581+406004219+404924912+404048560+403208479+401746195+399761617
3466+397831184+395865295+394315771+393765147+393335559+392251819+390458858
3453+388366467+386592306+385205147+384182054+383343857+382660564+382372177
3439+381762975+380125472+378178752+377042712+376383612+374933442+372833664
3426+370946224+369332470+368182433+367765402+367379951+366304632+364901259
3412+363675468+362591138+361699643+361132842+360727890+360214349+359340435
3399+358251636+357421490+356593819+355286365+353954830+353364650+353322544
3385+352948875+352307872+351627460+350384347+348922801+347785211+346724481
3372+346071105+346039378+345667187+344734584+343682239+341946268+339836628
3358+338703544+338299145+337660838+336938395+336170521+334753740+333125545
3345+332030762+330980854+329965629+329605810+329267229+328195493+326721833
3331+324967654+322814763+320749187+319096689+317575641+316094447+314757888
3318+313329289+311558304+309518212+307804292+306995642+306402544+305107260
3304+303305952+301288520+299203885+297754897+297300323+296837438+295686329
3291+294798325+294754077+294796921+294416918+294044856+293934365+293751114
3277+293420584+293137590+293193620+293470779+293227139+292722499+292692065
3264+292505415+291511501+290253299+289309819+288828061+288803001+288866639
3250+288571660+287689510+286322388+285038314+284269222+284143754+284433655
3237+284642706+284799771+284814988+284367450+283906578+283650657+283197449
3223+282754712+282993920+283844066+284276867+283788220+282873217+282170829
3210+282393748+283489621+284357496+284603814+284675430+284532308+284105047
3196+284043846+284596925+285183080+285463618+285701478+286226690+286859438
3183+286972218+286390163+285913077+286138989+286646306+286940436+287019698
3169+287360994+288170437+288879363+289302322+289733683+290247168+290764901
3156+291073694+291328692+291841291+292252689+292254129+292131007+292022216
3142+291633293+291080583+290998144+291203040+291089687+290950979+291067545
3129+291004165+290615519+290267722+290038505+289624042+288999567+288585492
3115+288403773+288185784+288172136+288262516+287869548+286835209+285607664
3102+284962912+284957427+284900548+284593509+284519381+284919717+285601606
3088+286532048+287320864+287407458+287075026+287039181+287703342+288707764
3075+289538242+290314242+291234970+292073149+292213612+291502599+290760691
3061+290662260+291109835+291582046+291689803+291602065+291558205+291662822
3047+292099539+292689092+292841484+292413798+292096510+292339578+292738640
3034+292908355+293007598+293362819+293893109+294379836+294657327+294673966
3020+295175558+296636439+298213461+298941537+298993781+299492862+300756604
3007+302184317+303875246+306028339+308193917+310466106+313709163+318345362
2993+324209531+331140117+338703581+346370351+353947369+360838140+366297467
2980+370454548+373932252+377273075+380675911+383848164+386285673+387869695
2966+388853637+389297223+389600605+390416568+391755822+393348191+394856052
2953+395985702+396874500+397785755+398828201+399786548+399763463+398138777
2939+395684610+393159750+390567446+388269033+386483681+384739843+383094215
2926+381935128+380662134+378688932+376157903+373074959+369655576+366265777
2912+362921150+359781953+357060120+354577365+351961609+349295547+347273960
2899+346174338+345386113+344666329+344609523+345345079+346351662+347500037
2885+348772809+349718302+350334374+351193218+352093503+352184325+351496083
2872+350671034+349796604+348829541+347715478+346022536+343795776+341558010
2858+339221997+336258167+332486205+328174810+323690708+319332148+315533297
2845+312506308+309857015+307355350+305228148+303524255+301958904+300430230
2831+299198695+298315290+297622209+296954798+296046701+295009444+294211302
2818+293719811+293508877+293511204+293439827+293091717+292692785+292624677
2804+292846895+293106971+293483411+293896212+294007755+293864245+293656635
2791+293405958+293011901+292437787+291875677+291429265+291031404+290617384
2777+290200224+289768420+289222616+288655058+288146208+287571282+286988470
2764+286544052+286226302+286085803+286103624+285936715+285400367+284727619
2750+284245731+284182462+284292029+284085157+283635661+283181308+282791037
2737+282691184+282772570+282661729+282460711+282478920+282630962+282578478
2723+282337534+282069240+281738193+281517711+281523842+281608165+281757843
2710+281932913+282050052+282179213+282329759+282386029+282290811+282084438
2696+281733872+281255881+280950209+280914216+280797114+280430980+280016978
2683+279638083+279148882+278579182+278095096+277679211+277269198+276828068
2669+276393253+276076316+275772879+275310640+274779629+274374769+274082578
2656+273772990+273388352+273020260+272915014+272954368+272711855+272222174
2642+271823869+271652824+271637903+271641781+271590682+271521632+271541577
2629+271773435+272117131+272251758+272272700+272523764+272898800+273244011
2615+273611290+273957350+274390669+275040591+275593302+275822685+275960249
2602+276231313+276666109+277190841+277836368+278595396+279188808+279479984
2588+279509033+279332245+279175364+279262290+279498839+279540575+279445505
2575+279576956+279721500+279511064+279107386+278755767+278537833+278463761
2561+278351682+278017552+277673190+277627096+277690439+277595369+277506338
2548+277529902+277566929+277650845+277820745+278014486+278187267+278373363
2534+278663227+278978964+279169030+279372485+279644676+279794945+279980745
2521+280345679+280636836+280863892+281199186+281648497+282214744+282682467
2507+282851185+282938942+283248474+283800963+284321761+284613398+284715172
2494+284738921+284884481+285158574+285350007+285516047+285855588+286308612
2480+286600230+286635576+286627525+286639547+286611236+286652659+286712641
2467+286640969+286539177+286501633+286460875+286375722+286305601+286287891
2453+286285195+286391992+286692197+287022099+287245443+287427107+287661753
2440+287845338+287937453+288100224+288184897+288119246+288202792+288375924
2426+288387725+288288980+288308555+288611217+289003870+289169634+289172533
2413+289294695+289689970+290293484+290763073+290842926+290814431+291089946
2399+291598463+292021810+292333373+292664604+293016961+293333917+293475211
2386+293117960+291838152+289392202+286014223+282167541+278043240+273636313
2372+268894241+263892295+259202116+255238259+251988130+249841481+249290396
2359+250456851+253584431+258748336+265650224+272672926+276303502+274640219
2345+270019403+267000780+266728109+267980069+269969449+271719898+272886575
2332+274202911+276255025+278729691+281168918+283459335+285853538+288903278
2318+292608389+296070469+298648792+300753298+303053632+305538030+307775704
2305+309591011+311203398+312926774+314759846+316482557+318074224+319595603
2291+321004960+322320133+323606903+324837200+325857264+326560465+327068946
2278+327518110+328000810+328669071+329401192+329974124+330546354+331299343
2264+332061566+332568126+332841960+333181834+333768358+334387200+334752485
2251+335050622+335474301+335801469+336043872+336389729+336760147+337048460
2237+337302756+337632177+337976261+338240345+338535786+338902400+339246485
2224+339550015+339863332+340201950+340415359+340401213+340417945+340710394
2210+341216252+341818067+342465755+343103619+343581592+343885195+344244275
2197+344828324+345660834+346520269+347135085+347626945+348181373+348737980
2183+349303266+350009680+350945792+352041683+352971294+353584781+354231767
2170+355205478+356400170+357562470+358582756+359568803+360551083+361449373
2156+362377987+363475762+364716585+366030355+367280338+368377411+369463515
2143+370760959+372221618+373657494+375070064+376406327+377701296+379152278
2129+380703169+382261927+383822162+385439683+387199439+388909186+390403013
2116+391890856+393609024+395534802+397621801+399805827+401850388+403749389
2102+405716977+407828242+410210128+412984926+415904397+418667598+421428249
2089+424436105+427652606+431077751+434793204+438674419+442671721+446920991
2075+451312940+455750061+460388624+465100465+469600523+474212936+479554847
2062+485481584+491437277+497445418+503872842+510588800+517135339+523730668
2048+530619038+537285172+543573573+549914459+556607592+563664200+570871243
2035+577990566+584900173+591592161+598056926+604344405+610653490+617111717
2021+623296111+628632297+633741705+639599927+645711670+651139972+655931075
2008+660544153+665018356+669087015+672660010+676027943+679548343+683022870
1994+685818610+687995102+690386849+693082200+695535629+697687817+699728463
1981+701771029+703612744+704835063+705387681+705451652+705273774+705237430
1967+705759762+706942560+708176698+708904239+709202672+709185165+709014674
1954+708989189+708932605+708589777+708233504+707974370+707546518+707644912
1940+709210946+711245608+712637679+713847514+715316336+717128577+719676484
1927+722103763+723133135+724293699+727130658+730725813+735374644+741274825
1913+746699581+751341394+756331132+762226807+768880825+775734514+781809469
1900+786659521+791157584+796956784+804445824+811039122+815373490+820031924
1886+826009889+831485246+836082737+840552139+844819138+848368790+850875257
1873+851689004+850279573+848943717+851235814+855399100+858095338+858924376
1859+858255487+856349432+854051720+852269175+850559243+847545662+842723755
1846+836392546+831411155+830492292+829881095+826873350+823201518+819532049
1832+813793274+806425010+801932118+800072527+797682922+795623956+794326882
1819+792545518+789864350+786378152+782353740+778873230+777246992+776664826
1805+774961986+771419204+767993874+767178724+767855738+766657501+762961217
1792+761374648+764895491+768492715+768872921+767614406+766574841+766610889
1778+767495920+766880808+763268958+759369238+760184462+764500954+768756651
1765+770918812+770425289+770300302+771688089+772836021+773873519+773259368
1751+770168002+769029968+772049606+775609379+777636949+778273261+778920285
1738+780085650+778545175+776564807+781957282+789974268+795539228+798780180
1724+800821195+801916089+799624213+793925105+793195348+801378023+810915539
1711+817052175+818586298+817373803+817566750+818170043+815826828+815630335
1697+821249663+830895767+842330991+849802081+852833538+852299978+846664325
1684+845544241+858810395+873327455+881176609+883505050+885447375+888122043
1670+890995715+898475743+907513827+912247534+916008601+923216789+929772709
1657+930342169+923789721+920938209+930690390+937162320+940677475+950136911
1643+960216481+965403304+966991572+965678911+966848635+976961077+986561899
1630+989489126+989311396+990018623+991702036+995329029+998614376+998008129
1616+998282037+1004312523+1010497471+1014163763+1016873593+1019654558
1605+1021839545+1022953054+1024782655+1028791775+1033008100+1035503265
1593+1037628860+1039970302+1040929129+1042044411+1046777010+1052104997
1582+1051110491+1044323729+1036975632+1035169079+1039347878+1040063082
1570+1037111404+1039134173+1043835304+1044155232+1037612166+1022914790
1558+1017123936+1035183705+1054009205+1065460976+1070409421+1070894965
1547+1067178664+1059513888+1050984691+1044233608+1046988129+1057245429
1535+1062941951+1065355121+1070699654+1073741823+1069962215+1064594634
1524+1060227024+1056839073+1058103202+1061251225+1065178720+1070342495
1512+1072087515+1067243890+1056427250+1051597661+1061992137+1071341950
1501+1072271376+1068010139+1067466976+1071886368+1071240379+1063357910
1489+1058084439+1061823493+1068617864+1072566190+1071822841+1068146428
1477+1063089321+1055946064+1048619685+1048397707+1053952030+1055277766
1466+1051403901+1049734745+1049616037+1041485883+1023678453+1015009421
1454+1021374980+1023541942+1016969992+1008454683+1004494538+1004105615
1443+1000296385+990890801+978468902+965597802+959858140+958886978+952866981
1429+944460481+940932990+940613726+939731281+937098645+935837766+942414074
1416+953678290+962799846+969133862+973761049+976467850+978513667+983361797
1402+989619211+992713088+994004696+997496361+1003901144+1011257367+1015181316
1389+1014195010+1012748497+1014334328+1016524781+1017217234+1018019604
1377+1021365524+1026870798+1031916678+1034281537+1033728475+1032285287
1366+1031012589+1029173237+1028855598+1031240845+1033124075+1032708485
1354+1031505151+1030767416+1029652725+1027926763+1025525191+1021111413
1342+1014595161+1008933210+1007566698+1008750900+1008475662+1006542792
1331+1004519875+1002821172+1001442619+1001645834+1003621843+1005754087
1319+1008415828+1012369694+1015414817+1016263504+1016860444+1018576950
1308+1021635813+1026763983+1032792401+1036228589+1035948107+1035092328
1296+1036672767+1038786174+1037785759+1035567014+1036727947+1042738710
1285+1051892178+1059678913+1063005257+1063900334+1064262295+1063422029
1273+1062275279+1062609981+1063090133+1060963577+1056012768+1050244519
1261+1045648579+1043259195+1041930430+1039670097+1037597244+1037211867
1250+1035678188+1029717804+1022504075+1020305718+1022877264+1024843228
1238+1023915870+1021327038+1019089087+1018175838+1017980897+1018080473
1227+1018164019+1017790387+1016865171+1015555095+1014670065+1014578540
1215+1014452445+1013556777+1012310155+1012004557+1012499113+1012550822
1204+1012795995+1014394236+1016304059+1016459111+1014643693+1012379223
1192+1010337913+1008525450+1007871853+1008561942+1008169621+1005192309
1180+1002249791+1001729823+1002768281+1003862658+1003188894+999850435+996068759
1167+993528607+992228725+991596550+989864827+987416126+986628086+986399164
1153+983928820+980681220+979190828+977987494+975599735+973088689+971350465
1140+970453615+969323116+966338049+962091142+958397149+955112467+951450754
1126+947827380+945645866+945530334+945651184+944589679+941256539+935002228
1113+929764583+928026803+926170092+922218368+919172284+918669602+918218481
1099+915777020+912042324+908252522+905129910+903030464+902208592+902496240
1086+903519776+905732537+908891715+911020635+911536983+911934253+912621092
1072+912709662+912503344+913775968+917196496+920912946+922524927+922622287
1059+924007119+926130350+926744945+927586245+929373370+928504000+925010488
1045+923385433+924836821+927310638+929511875+930496482+930485328+931040088
1032+931796290+931831231+931204522+929286943+926392439+924590318+924048929
1018+921866454+918650322+918896603+921644254+922065680+919845162+918294567
1005+918338962+917580766+915651368+914431856+914074105+913640935+913638201
991+916418503+922339588+928668433+933190134+935002080+936577274+941591980
978+947282519+948834370+946766392+943645110+941131625+940089105+940339522
964+939863950+937733036+937171406+939325811+941053914+941241395+940460447
951+938967100+938179947+937884543+936320503+934217586+932565494+931016450
937+929834464+928814473+927137340+925957200+926539883+926669524+924717226
924+921906195+918563009+915365714+913631258+912851269+912057985+911349133
910+910833302+909341876+906723497+905491280+905842086+904787525+902281870
897+900317310+899932450+901278057+902077621+901399647+902065137+905799906
883+910236658+912085390+913557240+917827342+921779362+922468343+922442488
870+924207527+927095086+930421209+933913317+937100122+940863996+946010116
856+952012163+958195189+963678007+968456922+973929841+980039663+987255607
843+996582743+1004577641+1009417868+1015592695+1024668157+1031085498+1031519333
829+1029667794+1030083458+1034061331+1039173472+1045562373+1052785556
818+1053015956+1046752411+1042599688+1041242336+1040178023+1041118382
806+1044517858+1044740648+1037764263+1028439935+1022911096+1022176686
795+1024522412+1026151014+1022826885+1016248213+1011841970+1009445495
783+1003471297+993880965+986998542+984124869+979960992+972718602+967415731
770+965401457+962101336+957741631+955832325+954835382+953415831+952630377
756+949848672+944503695+940782666+939088099+938131932+939331720+942429143
743+943725997+941270204+938863831+940102697+941495506+938756498+933334475
729+928070312+925442551+925430954+924111866+919418861+913322114+910378044
716+912303305+915094761+915882727+916706815+921358231+928780863+932931591
702+933212739+933216137+932937870+932602207+933908294+937740202+943418921
689+945616835+941750947+938944644+940354222+940255902+936827839+933812190
675+933748366+935472259+932769817+924319882+925707004+940419671+949910796
662+948644156+943713439+942270176+944601351+948560388+948842348+944477545
648+942688278+939664724+927444858+916790436+918835587+930592587+944126296
635+950778911+944650917+931306905+926298182+932747434+936141296+931505318
621+925538064+920513903+915689115+913409575+913340212+911227839+917792623
608+937733553+946636456+938264084+934701800+935276653
##END=
