##TITLE=Sample description
##JCAMP-DX=4.24
##DATA TYPE=INFRARED SPECTRUM
##DATE=13/9/2023
##SAMPLING PROCEDURE=Instrument type and / or accessory
##ORIGIN=Default
##XUNITS=1/CM
##YUNITS=ABSORBANCE
##RESOLUTION=4
##FIRSTX=4397.6552
##LASTX=599.8556
##DELTAX=-1.9287962
##MAXY=1.8230606
##MINY=0.45700693
##XFACTOR=1
##YFACTOR=1.6978575e-009
##NPOINTS=1970
##FIRSTY=0.47249573
##XYDATA=(X++(Y..Y))
4398+278289390+277853780+277071640+274973191+272925312+273204701+274883180
4384+275460740+274731189+274117154+274686605+275649891+275649101+275515541
4371+276113585+276821266+277171183+276472683+274392892+272288686+272045490
4357+273942643+276215673+277641618+278103417+277311097+275509239+274030267
4344+274413131+276005214+276581581+275650856+274421819+273879347+273643436
4330+273587197+274308954+275153021+275127867+274602035+274662171+275270818
4317+275604744+275188583+273852158+272863491+273738468+275579661+276134070
4303+275141137+274417203+274553940+274576618+273874941+272958662+272895876
4290+273776417+274745951+275401921+275656877+275168678+274079871+273273245
4276+273844943+275432656+275966036+275405835+275264008+274743564+273225976
4263+272800528+274194053+275578714+276217885+275906602+274122244+272142365
4249+271701629+272147683+271424539+269724207+269166832+270319619+271843685
4236+272146016+271335265+270873062+271058315+271387292+271749531+272254826
4222+272886064+273292396+273582844+274089859+274285767+274156876+274763680
4209+275776991+275651225+274383519+273226151+273279213+274647936+275777676
4195+275715082+275558528+276083500+276231945+275142278+274060932+273934762
4182+274061915+273951016+273912434+274532631+274891851+273524269+271703104
4168+271533385+272933492+274083206+273856792+273334119+273709804+274734349
4155+275383437+274658029+273200471+272858365+273795971+274565823+274543198
4141+274331492+273950384+272628422+271298772+271759519+273520566+274744652
4128+274508285+273456656+272899158+273321095+274370161+275092481+274952724
4114+274470546+274060019+274189138+274910071+275027272+273981979+272664897
4101+272179121+272879657+273742891+273722845+273981136+275635989+276666572
4087+275624948+274236566+273526341+273161732+273399240+274079889+274300634
4074+273852983+273172422+272867264+273565852+274647164+274900873+274491662
4060+274275376+274419976+274555801+274516939+274455416+274539319+274346763
4047+273586512+273488848+274639633+275506712+275107822+274452958+274501896
4033+274628382+274313834+273983875+273959529+274119172+274010520+273833587
4020+274416308+275510292+275879693+275342171+274948775+275258900+276029367
4006+276471261+276055327+275591896+275700864+276059680+276408790+276389306
3993+276157608+276368875+276979874+277679269+278324443+278595495+278108069
3979+277333617+277456084+278545926+279328276+279145691+278880028+279197209
3966+279456307+279472579+279868835+279997375+278983221+278054269+278464972
3952+279430925+279549530+278892525+278514699+278589896+279337404+280703282
3939+281678381+281620702+280306517+278809009+279068827+280485872+280999663
3925+280689345+281149723+282090997+282061824+281696373+282625922+283525648
3912+282818302+281799707+280994608+278966037+276248690+275561652+277689432
3898+280903877+282857848+282376899+280836649+281020323+282003127+282448936
3885+282902240+282094104+280807336+281414438+281376471+279991214+279650740
3871+279916948+280661577+281551333+281820700+283730894+286677552+286857663
3858+283588523+277703404+273566045+277639231+283444062+286101484+285504632
3844+283462282+282024296+281443418+281890631+283157125+283251858+282759324
3831+283995820+285916459+286460897+285082942+281711152+280355402+283168728
3817+285715829+288076343+290616739+291089263+289388352+287880242+287507682
3804+285842192+284804079+287564272+290092364+291345254+293107443+294516765
3790+295109597+295518228+295681716+295564884+294867402+293907030+294837140
3777+297346784+298516053+297388525+295934899+296648073+298840395+301035701
3763+302109517+301428851+301557163+304120026+306065414+305328368+305290980
3750+311381380+319402388+329741011+348545678+367358173+379932825+387196636
3736+389437825+390002432+391682876+393152861+393080438+393109716+395381904
3723+399920241+406786970+415053192+423075219+430105330+436365432+444679994
3709+456959722+470065594+481615894+493600662+507991407+521773768+531947253
3696+537902250+538449479+532769677+524786091+522411324+524682880+524396979
3682+519505056+512612629+504609349+496058770+492585016+491124124+486191513
3669+482596644+481050234+477584765+472464268+466815605+460601633+453189851
3655+446045434+438688523+428432644+419519036+417513512+416910289+413313138
3642+408043407+403682600+400490184+397102193+392332368+385688947+377552581
3628+373328616+373956835+373264759+369348005+364087190+361027053+359807091
3615+357626214+354906568+352323027+349885069+349072967+348924188+346796075
3601+343393972+340680048+338355833+336462297+335877961+335087519+331954361
3588+328775952+328945443+329958175+329427797+327971784+326406065+324931235
3574+323782679+322514482+320224355+317333007+316099143+316616427+316532805
3561+315388918+314066377+313177358+312609135+311605460+310303597+309231641
3547+308418661+308191878+308506882+308592997+307821652+306335553+304808943
3534+303787750+303322774+302625151+301211722+299860183+299072409+298812802
3520+299003848+299187627+298996967+298365730+297516555+296965570+296838417
3507+296541738+295782469+295398868+295638571+295567868+295056481+294617273
3493+294393702+294245134+294175361+294246556+293939661+293041900+292336010
3480+292098958+291918813+291794714+291787394+291690573+291352767+290876908
3466+290436629+290068334+290044075+290510526+291024247+291204322+291100883
3453+290943451+290531309+289694580+289186037+289307679+289648100+290312933
3439+290949033+290879436+290540875+290670767+290861093+290388481+289883712
3426+290020221+290082955+289749643+289887469+290712016+291358700+291464930
3412+291310219+291120033+291161985+291427033+291748058+292133502+292307294
3399+292058745+291815497+292088093+292913167+293796885+294263003+294295335
3385+293975153+293792269+294201480+294807125+295201925+295076351+294665227
3372+294991606+295987593+296665310+296760096+296644527+296659834+296752092
3358+296722884+296830974+297164023+297051544+296346690+295647733+295177807
3345+294782410+294545517+294786658+295116161+294964083+294479149+293621058
3331+292670200+292299465+291934295+290830990+289648942+288995026+288559890
3318+288146993+287497167+286093392+284316442+283024776+282358591+282004356
3304+281259955+279691762+278409592+278373960+278815380+278881590+278614487
3291+278597777+279475141+280901700+281793528+281955699+281877413+281904357
3277+282571016+283907898+285229052+285989707+286103099+286367831+287344211
3264+288311955+288625924+288352485+288149644+288620465+289262866+289720400
3250+290362468+290883806+290818615+290492728+290280671+290120992+290332505
3237+291414501+292641115+292963930+292808868+293299559+294221999+294597333
3223+294836789+295349369+295508047+295556809+296097333+296958163+297897418
3210+298634113+299129456+299940681+300854766+301249987+301649702+302460540
3196+303267412+304037282+305016137+306015810+306916625+308024774+309138014
3183+309667726+309699286+309767040+310252588+311036079+311566563+311841020
3169+312526426+313581250+314261495+314414837+314404024+314527737+315045372
3156+315916488+316792658+317582539+318167050+318426763+318785825+319165670
3142+319256137+319905349+321278161+321864042+321132823+320214069+319706439
3129+319414149+319526382+320076560+320629336+320828105+320226883+319037639
3115+318181619+317622735+316809298+316071269+315832304+315622301+315013250
3102+314342554+313798169+313259716+312902795+312738711+312419599+312110036
3088+312323901+312911326+313363489+313785179+314533179+315144195+315104210
3075+314968736+315343947+316036900+316573773+316917600+317306291+317502813
3061+317126339+316419975+315975711+315985716+316298614+316627836+316592520
3047+316252415+315858458+315287778+314391948+313393820+312628584+311947286
3034+311090599+310208601+309464603+308956658+308642391+308053807+307009515
3020+306194358+306036487+306028518+305754482+305258613+304606698+303865615
3007+303191970+303023286+303440203+303677553+303665266+304235173+305613708
2993+307755794+310518093+313168300+315336750+317302780+318944468+319731996
2980+319864731+319917285+319678004+319055753+318504768+317972845+317170116
2966+316182590+315240561+314460299+313949615+313686532+313322345+312861686
2953+312469730+311936929+311625822+311918604+312188462+312077493+311962170
2939+312075808+312185162+311755538+310740664+309775395+309281246+309108806
2926+308988920+308757011+308169375+307220851+306453509+306181790+306136925
2912+306261761+306629951+306991014+307245566+307504471+307890143+308326719
2899+308424489+308237550+308324086+308940720+309747872+310219729+310393398
2885+310625412+310967448+311318470+311508639+311462685+311448362+311595736
2872+311754133+311933489+312091044+312053200+311756556+311259633+310811157
2858+310480916+310099632+309625879+309118601+308716990+308503582+308543111
2845+308755185+308890062+309141525+309697636+310288782+310732169+311081190
2831+311528473+312243578+313071584+313521710+313435455+313296437+313459784
2818+313943752+314578676+314966244+315068402+315213318+315436100+315702588
2804+316116696+316633839+317254896+318130645+319161738+319835945+319962571
2791+320087197+320321353+320189530+319909983+320099133+320652084+321016096
2777+321078234+321021959+320968668+321029717+320992575+320759262+320811219
2764+321107126+321031578+320761509+320901441+321313513+321481599+321303999
2750+321146795+321409667+321893145+322056983+321922177+321791619+321749141
2737+321819773+321884052+321914103+322071798+322304655+322459752+322342358
2723+321876188+321600362+321980769+322513534+322663471+322649464+322772264
2710+323124832+323505133+323507379+323268906+323258936+323342312+323092815
2696+322743583+322700473+322787711+322904859+323276489+323721841+323776184
2683+323392724+322817480+322299740+322055088+322028934+321922774+321532011
2669+321063840+320790682+320564952+320352176+320260830+320098220+319906858
2656+319866697+319671966+319246624+318954087+318811417+318803378+319020367
2642+319172972+319024228+318799727+318760830+318790775+318646279+318343281
2629+318142090+318263240+318552758+318741276+318867130+319022298+319132179
2615+319148679+319137023+319271830+319716971+320295269+320704603+321007811
2602+321340685+321602749+321856283+322402144+323205294+323894772+324359959
2588+324644842+324691674+324734292+325081839+325555978+325823625+325923501
2575+326234082+326794616+327169160+327237722+327176251+327100739+327146341
2561+327327663+327545494+327673033+327601453+327500067+327579757+327714774
2548+327819565+327972591+328162654+328333163+328430722+328514379+328669617
2534+328939475+329345649+329722791+329982153+330132265+330094070+330036356
2521+330235581+330643476+331011455+331232937+331415557+331594070+331697036
2507+331801370+332030365+332478456+333123209+333642318+333874332+334013773
2494+334169467+334433287+334974197+335664131+336152945+336425190+336764768
2480+337184037+337384140+337303537+337173786+337107928+337127341+337205487
2467+337198676+337108314+337194358+337517682+337741131+337756542+337778378
2453+337882256+338058242+338232963+338346320+338531503+338813683+338980962
2440+339028109+339198899+339510920+339773511+339924817+340025711+340101785
2426+340144544+340195132+340366097+340714065+341022821+341030439+340884855
2413+340934951+341203159+341426818+341526624+341708191+342020563+342222211
2399+342315452+342537461+342860294+343251723+343692792+343830091+343522178
2386+343046003+342458648+341400875+339463000+336702772+333626345+330369299
2372+326652473+322770930+319278605+316097985+313432507+311998084+311936543
2359+313275303+316181571+320330375+325606847+331013105+333732681+332320164
2345+328687696+326415017+326357689+327210128+328332320+329688984+330904628
2332+331857680+333566104+336199881+338456096+340008369+341910015+344608387
2318+347519956+350094932+352192714+354030818+355770170+357414737+359105607
2305+360832813+362445889+363995424+365506448+366839204+368015178+369210601
2291+370459209+371654596+372691516+373617256+374596357+375674807+376683116
2278+377488899+378165037+378745125+379332024+380139457+381221664+382466937
2264+383555252+384279484+384860169+385564532+386352833+387097602+387868034
2251+388635096+389247903+389805523+390451681+391098435+391631376+392033583
2237+392353994+392733803+393233640+393779605+394303208+394802518+395250608
2224+395546550+395887076+396556754+397321078+397840714+398184681+398515623
2210+398925413+399561003+400301525+400803714+401001605+401191247+401733877
2197+402584069+403379005+403930306+404388928+405006123+405758335+406485622
2183+407237167+408167822+409204075+410142242+410907584+411590532+412414149
2170+413418807+414488621+415530105+416483157+417487464+418559103+419549438
2156+420542476+421612325+422631552+423663135+425007126+426526786+427667303
2143+428452128+429500177+430964018+432514852+434100160+435713622+437193718
2129+438636671+440159280+441621823+443050699+444676729+446471373+448266543
2116+450088499+451907506+453597955+455400112+457554695+459769099+461844202
2102+463857134+465836469+467978063+470412440+473011568+475731073+478539186
2089+481243561+483840127+486693947+490071933+493832852+497644569+501348863
2075+505081487+508979284+512980116+517024726+521223555+525860645+531087020
2062+536383889+541311584+546400381+551987153+557594918+563053343+568836672
2048+575215080+581754658+588067910+594290623+600312953+606071287+612252786
2035+619127414+626054420+632658172+638945621+644793545+650282126+655724578
2021+661247071+666888643+672703638+678564200+684131348+689299974+694397898
2008+699481990+704253992+708857064+713751725+718750018+722932804+725897208
1994+728342818+731025323+734185687+737827282+741019171+742877602+744513041
1981+746760584+748869320+750390454+751436958+752728851+754794617+756399303
1967+756703108+757064558+758139006+759231639+760344352+761706387+762923364
1954+763555830+763751510+763661639+763508438+763834219+764358279+765052882
1940+766406632+767793732+768896616+770067394+771060538+772104935+774412229
1927+777418338+779160428+780100070+781704335+783831536+786637332+790847570
1913+796079036+800911981+804562914+808272123+813042720+817896729+822102403
1900+826586818+831929289+837126141+841435869+845338370+849650275+855230763
1886+861968759+868468036+873330470+876866045+880395582+883390598+884937922
1873+886018829+887384094+889046283+891354489+893899870+896070673+898260783
1859+900466270+901745876+902047575+901551249+899978159+898082726+895958264
1846+892662742+890353202+891083824+891654855+889872323+886490160+882557889
1832+877962189+872782047+868880038+866654119+865093596+863670618+861734463
1819+859717214+858214264+856620180+853787142+850126660+847802235+846777567
1805+845662537+843760294+840721255+838297270+837542636+836159608+832789591
1792+830077458+831399402+834667401+836594288+836798182+836072405+834851215
1778+833959949+832960767+830217670+827442978+829017754+832793874+835076032
1765+835582609+834781424+834650831+836080198+837518553+838603884+838571306
1751+836749666+835521806+836814401+839461589+842050993+843341131+844186549
1738+845423888+844572010+843184418+846085983+850118586+853704994+857530403
1724+860415749+861463868+860089546+856525324+855780941+860862926+867121939
1711+871892326+873981191+873065632+872523598+873713896+872990365+871651921
1697+875072069+883377820+892756194+899128458+902623591+903273821+900689683
1684+901606506+910082380+917342821+921307459+923951347+926407630+928104082
1670+928975057+933007871+939632967+943615790+946288114+951767357+957463062
1657+959208241+956239484+955431559+961139201+962910288+962438256+968221023
1643+977774294+985004474+985947345+979443083+974402523+979087532+984732544
1630+987030500+989089595+991861268+994091891+998044102+1001602425+999723633
1616+997812263+1002292746+1006509233+1007596460+1008691971+1011873048
1605+1015571304+1017988759+1020277798+1022823179+1023768227+1023698717
1593+1024854821+1026419066+1027336661+1028297577+1029429318+1031375724
1582+1034163545+1035617557+1034083083+1032582029+1034702068+1036056661
1570+1034994359+1034840104+1035636865+1036699307+1036626919+1029770406
1558+1022245548+1029935473+1040026635+1045456379+1048652902+1051914301
1547+1054177361+1053102071+1048205584+1042045991+1045410179+1057047682
1535+1063486647+1063623419+1064531395+1065752515+1063565845+1061056202
1524+1059610405+1057976019+1058720824+1060415030+1063320667+1067876276
1512+1068894976+1064325956+1056092523+1053287640+1062273531+1071117594
1501+1073741823+1069245472+1063573569+1063395582+1064237700+1062677037
1489+1062536543+1065897432+1067887580+1065280904+1061921209+1062694239
1477+1064556601+1061634535+1054576514+1051232266+1052984817+1053231471
1466+1049811113+1045905593+1042613300+1034673773+1022234174+1019111021
1454+1023777073+1022116148+1014119609+1007033924+1004493669+1001820432
1443+996457881+990040611+981764279+970202886+961175219+956355544+949073759
1429+941690377+939787713+939934596+940623723+942103011+942566759+946361695
1416+955197193+962908533+967083244+970009453+971573767+972209604+976810640
1402+983927217+988704063+992187471+995561560+1000090910+1006071745+1007892050
1389+1004082931+1002307420+1006866540+1011249710+1011295417+1011028473
1377+1013123166+1016190710+1020600350+1025487217+1027592933+1026575146
1366+1024388897+1023368512+1025569014+1029527052+1031858920+1031538615
1354+1030288357+1029016544+1025951176+1021178612+1017611091+1015480309
1342+1011714019+1005864691+1001060181+998882007+997831080+996143263+994170879
1329+993746028+995792486+998696297+999794617+999351512+1000586112+1005527113
1315+1011454517+1014560608+1015032149+1015877707+1019131874+1022592814
1304+1024520263+1026812180+1029163146+1030611049+1031564803+1031285923
1292+1030555231+1031908770+1035678501+1040721168+1046493404+1052314226
1281+1058454231+1064812733+1068210904+1067200349+1065219048+1065472652
1269+1066358371+1065030881+1063012297+1062173901+1061035279+1059225013
1258+1058422916+1058488424+1056887318+1052906110+1048974190+1046103028
1246+1044161466+1043210239+1041163501+1037780426+1035909918+1035985817
1234+1036472313+1035762263+1033213442+1030762847+1029454313+1028098106
1223+1026715008+1026019913+1026345905+1027737078+1028240003+1026027145
1211+1023019982+1022473104+1024147440+1024531006+1022318006+1020602316
1200+1021349999+1022696587+1023155350+1022420866+1020844124+1020177535
1188+1020738877+1020756641+1018839934+1015947076+1013088481+1010906445
1177+1012206764+1015129462+1014109007+1010561355+1008597677+1007323617
1165+1003973541+1000252256+999156534+999582157+999598867+998266181+995939158
1151+994068861+992447676+990471921+987632775+982861124+978127178+976447295
1138+976771041+977456516+977532766+974952701+970555910+966948368+964940667
1124+964299846+963398750+960534258+956599529+952578932+947921727+943880347
1111+941136548+938607597+937961791+938776385+937414912+934173594+930281414
1097+926402364+924479689+924384833+925077401+925404095+923481280+920534078
1084+918576649+916635228+914608641+914595932+917736848+922754661+925661912
1070+923643961+919687537+918270316+919982356+922409992+924144218+925500636
1057+925998085+925827752+926648947+929802431+934408943+937694846+939710270
1043+941178184+941327594+941196369+939905809+936121123+933183049+933538951
1030+935860217+937365062+935419078+931722507+930180450+931258128+933249539
1016+933913600+933110871+932730605+932368033+932257871+933930451+935114780
1003+933016577+929741206+928807602+930402108+931751504+931567199+931673850
989+932668398+934847485+939049860+942589156+944386292+947395000+951343489
976+953644674+954202927+954154340+953901719+954263449+955247254+954327201
962+951148441+948349737+946677507+946268735+947802227+950486978+953561052
949+955338108+953273536+949383883+947605845+948462286+949915666+949339580
935+946729534+944579234+944354416+945128429+944207674+941420484+939594210
922+938491467+934919803+929894689+929479036+934506397+937632217+934712047
908+929220447+925298216+923211949+921693974+920732496+919620274+919908072
895+923395341+924551586+920750190+917514278+916422557+915688285+915494290
881+916585308+919264372+922090459+923110142+922657698+922561368+923495182
868+925614449+929958370+935113095+938900871+942026480+945257548+949177883
854+954584035+961204638+967660384+974265540+983173285+992663787+1000322819
841+1007542116+1013892966+1016925615+1017823832+1017451079+1013459760
829+1009861416+1013057026+1019503785+1024129816+1033485512+1049367375
818+1053464011+1041757070+1032445257+1028214166+1023834226+1022347987
806+1023472706+1022393203+1019273421+1016944853+1014849318+1011885546
795+1010340399+1011714089+1011824251+1008255466+1004609869+1002017376+998122387
781+992639423+987998016+984578430+980639349+976654419+972027194+965591178
768+961211448+960594218+959413049+956751467+954639011+953243275+953150455
754+954008019+953878198+952041954+949303070+947475813+947836771+948488335
741+946807609+943691970+941202828+940288533+940739853+939968508+934844466
727+928223161+925774812+923914135+917225287+911559140+912325781+916111660
714+918838328+919257000+918766010+921253466+926720492+932202052+937270347
700+940333328+940476419+939785326+939651222+943086535+950145890+953263776
687+948285072+941986319+941548901+943564395+942609869+940453460+937084426
673+931011544+923145458+917918767+927550323+941391908+942717573+940696251
660+943189114+943034227+935634346+927934100+925817220+931131115+943469539
646+950992642+942770162+931513768+928178717+928247384+928084072+927455959
633+921646230+900595038+876710316+875877887+887174512+883009981+876455869
619+882340935+887389219+889808149+901334155+911778833+911342748+924270248
606+954432729+949422851+907040673+880670320
##END=
