##TITLE=Sample description
##JCAMP-DX=4.24
##DATA TYPE=INFRARED SPECTRUM
##DATE=13/9/2023
##SAMPLING PROCEDURE=Instrument type and / or accessory
##ORIGIN=Default
##XUNITS=1/CM
##YUNITS=ABSORBANCE
##RESOLUTION=4
##FIRSTX=4397.6552
##LASTX=599.8556
##DELTAX=-1.9287962
##MAXY=1.6646522
##MINY=0.25759739
##XFACTOR=1
##YFACTOR=1.5503282e-009
##NPOINTS=1970
##FIRSTY=0.28875303
##XYDATA=(X++(Y..Y))
4398+186252842+186925482+187138341+186518853+186403994+186869196+186383252
4384+185553116+185787351+186249343+186421545+186690785+187137822+187628437
4371+187110563+185869742+185665995+186206840+186387404+185908553+184706544
4357+183686905+183543634+183980098+184642742+184734398+183921121+183242541
4344+183690000+184678997+184864674+184555776+184852410+185520975+185520283
4330+184422924+183330814+183604764+184681592+185155945+185048929+185147794
4317+185566957+185687083+184923805+183767085+183135967+183069551+183041696
4303+183002250+183538713+184795240+185683488+184906965+183039966+181833074
4290+181755335+182548640+184057721+185675106+186666641+186471602+185115979
4276+183569297+182526533+182005718+181937398+181657854+180970624+180821086
4263+181215355+181732344+182647716+183191734+182341375+180837810+179724727
4249+179278844+179365137+179714385+180658688+181942166+182835258+183556341
4236+183593057+182714921+182146701+182358464+182984930+183064687+182287338
4222+181999316+182398929+182414019+182407195+183247020+184194168+184397511
4209+184339861+184431094+184236536+183114687+181452358+180434315+180307864
4195+180630315+181320217+182548274+183922274+184204471+182869187+181251898
4182+180530258+180136739+179983876+180679795+181252859+180646501+179564675
4168+179405564+180271436+180639100+180397867+181128908+182461501+182415096
4155+180805804+179428055+179506736+180409517+180722778+180240871+180137277
4141+180712917+180932811+180568262+180482872+180944980+181066624+180205769
4128+179141514+178894476+179595509+180616762+180900478+180409286+180238449
4114+180634063+180984157+180995941+180587447+179545125+178511568+178628445
4101+179388532+179895064+180216285+180146620+180189430+181116336+181709411
4087+181163644+180743828+180941212+181288960+181604144+181346476+180538331
4074+179842835+179237649+178927732+179237976+179616923+179782781+179916364
4060+180013076+180069054+179948351+179828898+180198522+180725566+180659457
4047+180142237+180034010+180620357+181112702+180728046+179861385+179530573
4033+180029800+180632314+180464841+179751524+179579707+180193755+180576278
4020+180395387+180711975+181814889+182551638+182052334+181125640+181258472
4006+182167270+182369095+181703836+181101649+180857399+180896537+181296092
3993+181806873+182168000+182265924+182130477+182122287+182369979+182469382
3979+182342336+182402101+182400525+182108889+182006487+182066867+182162925
3966+182406003+182827300+183722872+184531247+184366754+183686367+183032815
3952+182585279+182735124+183305958+183164456+182175036+182291202+183779273
3939+184495031+183562377+181572157+180335699+181367641+182774609+182250756
3925+181376618+182252871+182891697+182159965+182679800+185250254+187069906
3912+186813045+185427569+182523073+177467958+173564546+173781019+176897412
3898+181731864+184928265+183159516+180033087+181020604+182019501+180326664
3885+179749333+179456832+179581226+182569939+183145194+180056097+177353080
3871+175819277+177171094+179137361+178073663+178370354+182058293+184156394
3858+181337537+172713226+166156680+173566160+183296481+186992417+185209847
3844+181246342+177481357+174313118+174154161+177665073+180649365+182487644
3831+184546549+185682431+185441756+182997156+176897701+174250162+178352996
3817+181670311+185585372+190418055+191271336+187070290+182368076+181148688
3804+179006528+177804499+182386645+186579387+189607853+193451827+195562020
3790+195574726+194730365+193634986+193425549+193112326+192296127+193998786
3777+197395378+198400272+195940429+193175974+193948671+196842979+200016043
3763+201910704+200657849+200334399+204189945+207116395+206393255+211404944
3750+233407339+259495018+282154232+303076070+312716811+308909034+296128601
3736+282882043+280464164+287798981+295562977+299964982+303250079+308486027
3723+316652287+327570219+339246796+348983941+354969403+359196977+369978328
3709+390707741+416928502+444438180+468848459+486075283+494620011+495387864
3696+490438880+480345414+465927296+453509509+449328302+449865438+448764831
3682+443431190+434578161+422438726+408677582+402609960+400755610+395871025
3669+394655232+396787935+395548497+391172213+385865946+379246810+371525606
3655+365809385+359172332+346933283+336650391+338228542+343828577+345406574
3642+342859803+338695820+333651374+328157489+322505012+314739018+304923365
3628+302069445+305678319+305664729+299943740+292281397+288507396+287442083
3615+284730434+281385957+278181924+275435866+275542228+276346278+273975784
3601+270011761+267236310+264437869+261568494+260446241+258563518+252869134
3588+248033568+249384308+252198262+252202780+250252660+248151426+246262820
3574+244397839+241637594+236198111+229637471+228026179+231073062+233083889
3561+233057054+232511268+231583746+229620266+227305212+225766142+223803892
3547+221197375+220453917+221679571+222507362+221917036+220676080+220012109
3534+219712611+218346666+215807526+213610714+212480677+212008227+212038254
3520+212356418+212319893+211564420+210262757+208816901+207879076+207921310
3507+207930556+207011051+206521070+207113876+207354974+206673568+205726247
3493+204949801+204268684+203731375+203387452+202943472+202537901+202740687
3480+203149238+202697069+201528335+200677784+200593374+200748583+200476478
3466+199909873+199520449+199621871+199963083+199978635+199830942+199681366
3453+199266952+198501214+197486246+196682023+196391310+196445346+196922794
3439+197636399+197875940+197708178+197932110+198640794+199037215+198609421
3426+197738782+196887327+196333832+196584715+197531786+198275072+198500137
3412+198582951+198602289+198576204+198716552+198821261+198781681+198966185
3399+199426774+199810777+199926828+200107353+200420788+200422326+200545336
3385+201250040+201749133+201756822+202036982+202582845+202683228+202611756
3372+202884034+203096355+203444718+204445211+205230634+205149223+204906588
3358+204989747+205237381+205628266+206149389+206268688+205634533+204998436
3345+205175213+205760061+205948352+205698969+205567655+205720749+205534591
3331+204676389+203587701+202815446+202551299+202391093+201974314+201325049
3318+200427536+199523178+198808363+197987646+197101205+196432621+195494700
3304+193893481+192320329+191460550+191350478+191706281+191870313+191452784
3291+191040907+190980450+190778106+190474514+190674455+191244481+191338906
3277+190956094+191010457+191683751+192398144+192665751+192630284+192900947
3264+193421647+193666320+193551615+193439640+193806285+194555337+194993723
3250+194968099+194830153+194696282+194825904+195351583+195823936+195967514
3237+196036122+196453420+197270292+198062174+198532471+198731277+199000210
3223+199723792+200629706+201291005+201963703+202783074+203462884+203946791
3210+204429428+205154010+206112846+207018664+207800473+208697044+209964432
3196+211566766+213003049+213958367+214888579+216135936+217160188+217520566
3183+217688808+218146975+218745144+219274052+219809496+220493901+221510291
3169+222822373+223888013+224698099+225830309+227030666+227766627+228367046
3156+229451698+230697536+231125119+230763395+230414032+230649690+231678690
3142+232882757+233534078+233723446+233563105+233161859+233026527+233140406
3129+233186830+233266568+233305322+233238867+233133428+232720109+231942029
3115+231141324+230597037+230315397+230053308+229516461+228511066+227373781
3102+226702852+226197377+225187100+224070941+223678153+223985936+224631241
3088+225594325+226500739+226709926+226474595+226553718+227068536+227523473
3075+227695040+227986503+228477522+228817600+229143030+229536741+229492508
3061+228922943+228539959+228794897+229324171+229774648+230049540+229761826
3047+228875693+228077006+227610823+227006906+226137689+225342366+224399851
3034+222872680+221152028+219876047+219094661+218303356+217324489+216597870
3020+216071500+215435864+214766665+213982934+213094667+212356091+211621494
3007+210712773+210053243+209978811+210123024+210112855+210292746+211472552
2993+214013037+217275759+220321565+222759532+224586297+225942746+227018094
2980+227728315+227932293+227828257+227465188+226397183+224656039+223133559
2966+222326414+221823457+221281189+220869273+220609721+220307743+219898000
2953+219436143+219257770+219458153+219766725+220170643+220317470+219734545
2939+218879745+218170389+217298846+216320864+215734709+215563372+215448475
2926+215339979+215460355+215603299+215175332+214208903+213401854+213079596
2912+213095589+213494029+214385084+215360490+215909025+216204621+216447391
2899+216366538+216114752+216266347+216949348+217701707+218044380+218072081
2885+218198954+218638359+219316036+219888081+220110801+220177698+220247574
2872+220175910+219955381+219710554+219481721+219311941+219130954+218906504
2858+218819480+218825286+218633611+218121408+217387080+216673456+216243279
2845+216240318+216677666+217424296+218225809+218885666+219350964+219755863
2831+220376274+221151701+221717729+221962691+222018400+222078588+222280624
2818+222551998+222688714+222683427+222823219+223268852+223868674+224435952
2804+225027451+225795112+226581054+227193794+227731026+228203129+228565583
2791+228872002+228906527+228556029+228227946+228126044+228063492+228080081
2777+228296420+228422601+228229196+227993058+227809361+227465034+227123514
2764+227087605+227240564+227331086+227372109+227419802+227366073+227277088
2750+227366246+227448310+227343197+227302079+227285412+227092411+226962231
2737+227024976+227027686+226808907+226500950+226327038+226255546+226081768
2723+225918102+225933269+225873562+225590922+225389040+225497478+225721660
2710+225776061+225682156+225618392+225605109+225479043+225228526+225017301
2696+224820820+224568765+224329052+224202909+224198372+224169883+224027362
2683+223756910+223356337+222922968+222522202+222155000+221811615+221373825
2669+220800454+220357128+220243518+220159051+219767090+219317266+219082358
2656+218853659+218528018+218235325+218059125+218096456+218200511+218059990
2642+217815528+217793729+217933136+218086883+218246282+218341014+218326885
2629+218319619+218503681+218941683+219432759+219706191+219807324+219990925
2615+220266471+220533770+220929769+221522402+222071379+222455901+222814280
2602+223238133+223797433+224607404+225589019+226404488+226881397+227202291
2588+227453923+227549309+227622511+227952208+228506760+229008621+229400237
2575+229739431+229958557+230094350+230325413+230639309+230739327+230513397
2561+230247636+230141523+230159228+230234295+230332641+230502766+230653976
2548+230621181+230525411+230480602+230471221+230615107+230888942+231058645
2534+231081732+231041671+231014181+231125561+231319196+231467792+231614734
2521+231742146+231825729+231887301+231827036+231695914+231725095+231936916
2507+232179109+232403906+232652847+232883775+233066127+233345287+233834518
2494+234438935+235006174+235415687+235626470+235779583+236080080+236523041
2480+236812793+236762351+236593494+236512584+236480097+236439420+236324042
2467+236159088+236152821+236289517+236309260+236262336+236350359+236528135
2453+236616293+236524118+236519408+236795454+237019558+237065925+237309637
2440+237880221+238430274+238693018+238768450+238799322+238736962+238595575
2426+238532504+238581234+238695882+238804839+238890825+239073465+239288650
2413+239334324+239242360+239266274+239487648+239723979+239918556+240139643
2399+240390352+240624376+240832006+241084753+241322891+241436308+241468430
2386+241197382+240066787+237879164+234875072+231274233+227323724+223404510
2372+219596041+215548359+211342219+207680193+204959817+203153140+202489362
2359+203612845+206796385+211700790+218172388+224705481+227950824+226428325
2345+222438485+219910226+219586103+220418719+222119802+224159810+225888748
2332+227362209+229357946+232140547+235026628+237469709+239727170+242352622
2318+245360635+248156597+250368172+252443801+254779059+257129137+259444288
2305+261778469+263745506+265219678+266605827+268121137+269662436+271088397
2291+272328622+273530382+274804959+276033093+277135238+277991037+278479384
2278+278810831+279282608+279916436+280616374+281356468+282055636+282581680
2264+282990366+283431847+283844743+284143587+284438952+284797562+285178470
2251+285536618+285820641+285999725+286140074+286360430+286621404+286819327
2237+286999737+287200735+287326859+287354213+287410230+287568764+287808305
2224+288040483+288242596+288515739+288774618+288937958+289165138+289532533
2210+290048350+290670452+291210317+291622944+292067443+292669072+293408398
2197+294147243+294808022+295422397+296030178+296724464+297509521+298226855
2183+298943555+299841030+300817321+301769236+302689991+303469378+304207934
2170+305208234+306409494+307540090+308581835+309572197+310534570+311580141
2156+312645492+313613498+314606301+315697296+316817607+317997433+319248193
2143+320490667+321699040+322947031+324293581+325621522+326882489+328218427
2129+329620608+330976384+332281411+333568445+334916263+336468347+338279214
2116+340211534+342078802+343877404+345727064+347652963+349685243+351941244
2102+354369792+356744938+359072448+361674006+364680289+367841742+371029070
2089+374403631+378087803+382105882+386420229+390862411+395380602+400133969
2075+405141699+410366574+415937621+421787520+427691706+433904655+440720445
2062+447679064+454473132+461470235+468762646+476170665+483731586+491404233
2048+498973035+506378979+513698264+521049113+528622452+536332007+543912536
2035+551319594+558552029+565538098+572294065+579021967+585704040+592005109
2021+597780153+603057584+608289226+614014059+619643429+624379419+628497459
2008+632462405+636225968+639705758+642814578+645450621+647942029+650418059
1994+652307857+653755289+655760426+658084746+659731639+660842204+661977067
1981+662952684+663493165+664036183+664686389+664673856+663853869+662906010
1967+662651495+663353835+663944065+663827803+663667635+663464945+662810663
1954+662234581+662322162+662705935+662911931+662886172+662694785+663400509
1940+665842321+668761254+671160851+673303781+675770968+679080670+682875567
1927+686130830+688851302+692562693+697788799+703774299+710741722+717969812
1913+724187221+730230391+737236029+744978148+752908271+760723592+768148836
1900+775213067+781860615+788045498+794006085+799148377+803492597+808475029
1886+813924816+818668188+822738746+826186395+828487646+829534544+829785061
1873+829156923+826439219+822787496+822419256+824657840+825455835+823822475
1859+821319456+818815668+815575784+811400036+806751935+801686690+795873353
1846+788687631+782466762+780212030+778621346+774945787+770399261+765594221
1832+759016415+751467297+746922386+744838895+743128104+742189088+740582948
1819+737623877+734612596+731627612+727978350+724523320+722979387+722707954
1805+721616459+718981031+716081782+714773834+714549844+713106949+710004395
1792+709142272+712865505+716490853+717378197+716985428+716349139+716078553
1778+716751751+716609576+713677187+710285593+711655902+716496082+720909429
1765+722840057+722126106+721987391+723580843+725466950+727550518+727471549
1751+723934012+721843370+724585219+728569811+730898129+731843604+733286423
1738+734770534+733077121+731498663+736667329+744029674+750089376+754219526
1724+756548767+757522001+755195067+750168729+750766187+760022559+769883386
1711+775585690+776675955+775792839+776703252+777513780+775271505+776381839
1697+784288125+795563936+806656742+813055080+815881049+815924571+811576044
1684+812054780+824854224+837042139+842831409+844700907+847104964+849725630
1670+852149756+860155234+870793218+876199791+879185698+885903834+892976061
1657+894141989+886188107+879253056+887256457+893604507+896250240+905501306
1643+916329984+921089350+919537035+912964381+909357717+917004566+926117302
1630+930671901+932756161+932729941+931142179+934002519+939388715+939590175
1616+938122289+941768783+945780518+947646709+949640005+952629218+955025663
1603+956340071+957637178+958705759+959378496+960569413+962459980+965071802
1589+967925991+969474308+969707063+970481374+972683896+973906186+971111281
1576+968955511+972659905+974604143+973319800+976126162+981446384+984486270
1562+982996546+973294272+968114225+982976631+999374742+1009671244+1015558859
1549+1021055628+1025541562+1024963558+1018272334+1009216192+1013176178
1537+1028611974+1038399753+1042354510+1046733486+1048790372+1046780775
1526+1044553495+1042075773+1039973444+1042395264+1046495964+1051087241
1514+1057000308+1060184137+1057033833+1048388299+1046738254+1059612900
1503+1070136082+1071848642+1068046901+1066454295+1069523323+1070018206
1491+1064519592+1060398592+1065008246+1071573750+1073741823+1073657087
1479+1072788274+1068367776+1060274717+1053523286+1054232470+1058091803
1468+1055651606+1047624906+1043607481+1043685835+1036959087+1021495763
1456+1014882740+1021251705+1023834923+1019450565+1011399259+1003561331
1445+998846718+994582082+987202205+975224669+961279520+955707319+955797515
1431+949783718+940115354+935515618+933999674+933627128+935823267+938471690
1418+942692497+950234695+957948441+963270278+966300782+968687770+971457992
1404+976477563+982321503+985057200+986696788+990944354+997972906+1005344555
1391+1008449800+1006278574+1004053600+1006124711+1010001269+1013071219
1379+1015746401+1018411895+1021352358+1026241211+1031247326+1032034555
1368+1030134377+1028386216+1026407992+1026403147+1029221427+1030763900
1356+1029647799+1028569683+1028172838+1026146402+1022566574+1019585589
1344+1016728017+1011596566+1005208993+1001041857+999161133+997234888+994729562
1331+993541566+994539867+996563997+999430104+1002197789+1002668527+1002300748
1317+1004651750+1008638572+1012085067+1015723487+1018400746+1019134227
1306+1019979665+1021866925+1023983788+1025310729+1025045756+1023526967
1294+1022856999+1024663445+1027306409+1028824583+1030413883+1033863454
1283+1038475646+1041916451+1043462691+1043995636+1043204869+1041010345
1271+1038168305+1033954418+1027939930+1021218180+1014659212+1008679018
1260+1003771018+1000570504+998755369+997358532+995787917+993627456+991872913
1246+991168112+989779041+987503472+985979607+985419289+985502564+986109326
1233+986820816+987429193+987671021+987167142+986429200+986163612+986588599
1219+988153217+990210872+991089604+990810406+990395569+989979347+989522296
1205+989454553+989713836+989621026+989246558+989419951+989968967+989408340
1192+987519927+985704946+984304110+983254137+982627767+981198174+979307992
1178+978723682+977658869+974832746+973286506+973208690+971553185+968655013
1165+965940462+962951326+960500594+960343348+961390630+960672758+957438871
1151+953100879+949317977+946819726+944584679+942038523+939658533+937531597
1138+935627267+933564460+931883734+931492810+931431373+930290820+926864778
1124+922108412+918803938+916110609+911566698+905697152+900505187+897615704
1111+896840239+895423256+891707482+888411543+888055221+888624844+887160802
1097+883352218+878936411+876687062+877585248+879100116+879891729+881267420
1084+882636960+883400738+885713831+889698808+891702714+889913877+887572564
1070+888698661+892882790+896641086+898328810+899114271+900588385+902665725
1057+904622343+906763119+909045993+910270437+909602929+908828925+910248907
1043+912836661+914247339+913814816+912515018+911042134+908929193+906740436
1030+906301608+907568034+908084755+906627557+903764141+900644440+897775334
1016+893532920+889131184+888122887+888371712+885693454+882070874+880755082
1003+879889268+877409701+874813411+874029642+875602333+879347403+885447090
989+893316082+900974926+907387797+912407983+915291622+915747520+915024496
976+913880714+911736016+909139188+907056619+905061940+903032889+901311794
962+899430455+897477528+896539665+896663924+897029242+897544502+897877679
949+896931896+894662708+892221819+889966703+887381946+885358047+884772123
935+883618499+879912797+874655396+870289954+867838914+865746273+862320154
922+857455907+851930996+847083204+843773962+841389743+839311711+837381160
908+834170265+829367148+825349107+822422562+819094866+815916958+813277685
895+810707308+808988905+808137700+806938785+805992079+806499265+807689337
881+808928236+811094541+814668678+818507404+820585744+821262863+823889295
868+829791520+836612462+843144055+851736918+863770663+877171180+890664506
854+905429103+921159399+935429729+947339291+958560816+970391871+981655764
841+992215701+1003914654+1014660289+1021238249+1024894354+1026440902+1024370098
827+1020181432+1019495317+1023735039+1027113254+1027072116+1027391452
816+1029793588+1031649476+1031728214+1031419796+1029828881+1025238758
804+1019274864+1016373617+1017244506+1015304498+1008888013+1005423524
793+1008082098+1010253554+1004648290+994189851+985305102+976949916+964963153
779+951829224+943320559+938314675+932637131+926449710+921425910+918319666
766+916889996+915637102+913140158+909979781+907509903+906894913+909231690
752+911641130+910889271+908825618+906774807+904641950+903491094+903486326
739+903322698+901906407+899310886+895827790+891990832+888827995+886709518
725+885029484+882479945+878075979+873024036+870021059+870884336+875611099
712+881462344+885198879+887813854+892587137+898859063+902556383+902881410
698+902664802+904408350+907622321+909390704+909094590+908336887+908821466
685+911676116+915551751+918085450+919454837+920788698+920289509+916425870
671+909660291+903050651+906343745+915575588+918605170+914777209+908078603
658+905158594+908021779+913622738+918957878+921130795+919056377+915216729
644+915169516+918766260+917816094+912632280+905165899+889703652+878198700
631+887764412+906376655+913217666+910913800+904740604+897443772+899460289
617+908518354+913754840+918771412+925653638+927496223+924076717+917420403
604+911985072+919984706+934974907
##END=
