##TITLE=Sample description
##JCAMP-DX=4.24
##DATA TYPE=INFRARED SPECTRUM
##DATE=13/9/2023
##SAMPLING PROCEDURE=Instrument type and / or accessory
##ORIGIN=Default
##XUNITS=1/CM
##YUNITS=ABSORBANCE
##RESOLUTION=4
##FIRSTX=4397.6552
##LASTX=599.8556
##DELTAX=-1.9287962
##MAXY=1.8430724
##MINY=0.46920931
##XFACTOR=1
##YFACTOR=1.7164949e-009
##NPOINTS=1970
##FIRSTY=0.48697868
##XYDATA=(X++(Y..Y))
4398+283705280+283571729+283616576+283335307+282498825+282836921+284079108
4384+284905485+285350793+285359891+285189272+284918541+284311555+282966861
4371+281020181+280108642+280626230+282031188+284119580+284736931+282221688
4357+279389912+279212625+280633054+282006465+282621889+282425087+283097408
4344+284145918+283088414+281253565+280857670+280628470+280094336+280702642
4330+281198614+280291485+279946582+280649131+280865917+281070289+282077789
4317+282113382+280143818+278675765+279371369+280990769+282260163+282252315
4303+280651579+278878887+278455125+278558136+277610223+276765998+277058396
4290+277330950+277451549+277552545+277675783+278747229+280033984+280185609
4276+279912847+280083814+280392325+280355673+279368574+277405764+275727072
4263+275302216+276332322+278299975+279548221+279293482+278503531+278002073
4249+277950541+278369737+279045583+279352079+278736412+277715108+277510042
4236+278549489+280061278+280860830+280545478+279975768+280091714+280641353
4222+280591071+279842547+279632828+280364841+280789366+280315445+279952121
4209+280274834+280577650+279843016+277707920+275946878+276615067+278185940
4195+278235526+277588607+277803257+278501222+278861872+278971480+279193943
4182+279084648+277841801+276471481+276945402+278744919+279459517+278561539
4168+277997715+278617549+279246065+279465178+279255267+278210247+277031901
4155+276546712+276444135+276441930+276912067+277559837+277477731+277263081
4141+277679307+277557736+276358296+275386284+275667606+276968338+277925036
4128+277620432+276970265+276885780+277096489+277261848+277221845+276730162
4114+275840239+275430818+276078346+276762334+276844198+277353556+278380102
4101+278488652+277856733+277673352+277508445+277172467+276902083+276116508
4087+275269609+274952782+274781589+275266918+276835239+278050791+278002489
4074+277775946+277633315+276910938+276438423+276952208+277673751+278087791
4060+278222644+278148680+278167900+278270199+278360552+278121751+277141319
4047+276368036+276542458+277040010+277856125+279101489+279600916+278957556
4033+278601055+278927831+279159011+279291815+279416806+279562493+279535860
4020+278954135+278684742+279160434+279196235+278748131+278759365+279307076
4006+280096228+280394287+280072286+280053135+280013566+279452069+279206844
3993+279389825+279498496+280095048+281261951+281931998+282049888+282236099
3979+282549401+282742783+282315844+281554801+281448457+281898002+282218146
3966+282052232+281427466+281406788+282372566+283126403+283344943+283371629
3952+283005301+282391161+282412170+282679584+282009607+281915156+283613729
3939+285011013+284642150+282807162+280832581+281133574+283430001+284255249
3925+283319351+283194585+283208093+282239849+282234432+284471132+286892949
3912+287766585+287381073+285077424+280128973+275886197+276540999+280808083
3898+284753356+285821850+283819594+281538290+282200211+283316416+282621108
3885+281872966+281395936+282477921+286382445+287883382+285304818+281847374
3871+278814455+278617914+280360222+280587790+281873087+285440036+287277576
3858+284851800+278117393+273353157+278598694+285771951+289335583+288490559
3844+284575010+280591870+278039888+278229259+281587356+284826504+286890032
3831+288965436+290214672+290138225+288695296+284676806+282193335+284118347
3817+286064679+289407723+293362945+293355375+289752348+287220628+287394893
3804+285751116+284462902+288094768+291623068+293866001+296605392+298612093
3790+299494515+299270472+298045526+297346276+296832664+296164597+297933261
3777+301189910+302183035+300179320+297965243+298608829+300698522+302897980
3763+304224634+303060422+302694563+305410411+306623828+304039969+303166610
3750+310507187+319556390+329703968+349233062+370956024+385212393+390450464
3736+390723677+394250623+399818717+402712459+402657455+402360768+404894762
3723+410428930+417833505+425949518+433372428+438622826+442744500+451903190
3709+467980032+484299564+495930161+505060307+518084924+534129611+546412058
3696+552586548+553196833+547937511+540091343+538151556+540555715+539038423
3682+532334938+524346885+515201460+504400018+499854426+498045342+491664449
3669+488452213+490095174+489871200+486249526+480093370+471577364+461738871
3655+454479375+447126297+434347912+423309231+423322635+426382048+425393160
3642+421095537+416455806+411844410+406309478+400407646+393898203+385712705
3628+381636347+382503907+380985989+375740522+369781985+367028148+366147150
3615+363666423+360781848+358529018+356516240+355939013+355656319+353485336
3601+350800706+349211776+347313103+345040099+344022875+342370712+337645351
3588+333750498+334835017+337177124+337613647+336242371+334439017+333136775
3574+331574340+328759562+324545972+320329464+319654487+322173898+323632679
3561+322937666+321804115+321051528+319839813+318131986+316915964+315471142
3547+313457079+312841134+313795748+314296651+313648412+312537710+311300506
3534+309684318+308085492+307235885+306808563+306325370+306087715+306093340
3520+305972637+305625773+305215502+304681194+303740608+302895410+302731857
3507+302274638+300933990+300227483+300692689+300970381+300798460+300610982
3493+300104210+299231372+298585425+298416489+298357839+298242345+298471493
3480+298845061+298420795+297389439+296858118+297180501+297740818+297728213
3466+297131505+296473542+296135220+296154284+296216059+296354194+296443436
3453+295968577+295097058+294528234+294856417+295471980+295180675+294524866
3439+294638867+295263736+295411802+294891072+294731686+295381488+295936144
3426+295687794+294842561+294442430+295185224+295963681+295713906+295085981
3412+294856903+295035387+295496426+296164736+296861034+297231511+297072438
3399+296707100+296536706+296704287+297311725+297975105+298229428+298439408
3385+298734671+298759708+298791064+299110565+299354506+299322420+299242797
3372+299319330+299406593+299271028+299235435+299456214+299449200+299284952
3358+299298703+299159249+298762624+298577230+298438956+297798078+297137581
3345+297066847+297094314+296826310+296652201+296817559+296831449+296229255
3331+295450659+294833325+294214080+293739256+293414372+293161021+292877321
3318+292009796+290564626+289158835+287851626+286394529+285139181+284357322
3304+283490838+282407638+281557284+280977991+280850742+281386491+282017403
3291+282265493+282468250+283099613+284049193+284759068+285280042+286039365
3277+286670815+286944931+287542073+288734604+290021099+290827249+290879544
3264+290679513+290744674+290854421+290907376+291055390+291489065+292403330
3250+293452118+293957292+293796274+293593412+293913157+294609281+295092405
3237+295396037+296046811+296575147+296518893+296354090+296296343+296680605
3223+297583064+298084869+298129872+298579348+299674285+300990383+301760471
3210+301798216+301862422+302323044+302694042+302902980+303293007+303656192
3196+304245018+305488819+306648934+307532711+308641155+309426522+309552295
3183+309561497+309870129+310831342+312054482+312699527+312904124+313021493
3169+313442842+314734563+316431452+317462426+317604797+317522187+317887976
3156+318865613+319792726+319954057+319838007+320125978+320597330+320930860
3142+321331235+321901657+322387246+322555903+322002775+321006942+320597990
3129+320897004+321389295+321697788+321755153+321803872+321659800+320868252
3115+319793698+319276579+319201400+318827763+318102158+317575315+317244320
3102+316359085+315000241+314069066+313738001+313718139+313969545+314345995
3088+314569239+314782831+315305818+316011353+316612645+317133827+317593233
3075+318005102+318561877+318869363+318623444+318487601+318695706+318630979
3061+318049133+317669801+317978399+318460620+318823770+318977774+318709422
3047+318391032+318210186+317624624+316791338+316437181+316279462+315720708
3034+314718139+313507777+312507986+311719702+310963816+310380060+309931245
3020+309457670+309003958+308760782+308739565+308622786+308162338+307287034
3007+306302105+305978193+306323287+306636225+306892145+307266199+308074241
2993+310034134+312875824+315636397+317903915+319631569+321024513+322264286
2980+323105351+323351375+323235221+322846062+321950861+320748348+319793594
2966+319178135+318543473+317737618+316944473+316344571+316040834+315974857
2953+316007117+316167510+316559377+317050349+317113686+316557051+315940480
2939+315620319+315309534+314796095+314233209+313598165+312855197+312340196
2926+312190568+312144558+311961003+311507048+310737516+309865754+309151399
2912+308868567+309360684+310174942+310557156+310729425+311122647+311558198
2899+311898117+312259982+312464580+312549273+312976664+313599033+313839710
2885+313653933+313609520+314071879+314725847+315091914+314987914+314809534
2872+315161815+315817520+315955724+315368704+314540696+314098443+314214875
2858+314206159+313687477+313137925+312794568+312367073+311703034+311321202
2845+311573928+311983713+312338564+312811861+313211125+313434126+313881970
2831+314541737+314872142+315005693+315320020+315535001+315511457+315604311
2818+316019791+316683066+317347244+317746438+317915026+318093824+318505415
2804+319230708+320098719+320878530+321465550+321925999+322268036+322352000
2791+322401865+322731853+323101080+323268522+323381724+323492496+323442249
2777+323275918+323288905+323447041+323454507+323293246+323046840+322960619
2764+323304462+323651049+323541458+323319915+323342416+323531144+323821928
2750+324112122+324351236+324725324+324969751+324657646+324314775+324484891
2737+324700774+324579446+324396204+324403080+324540832+324611254+324617365
2723+324703621+324839499+324993954+325150458+325235360+325327484+325502843
2710+325736540+326044200+326347624+326415545+326145075+325814809+325732165
2696+325869917+326207788+326709385+327073785+327107052+326826372+326349117
2683+325967251+325780675+325548298+325191676+324846826+324503573+324104552
2669+323822831+323724699+323514095+323151292+322870022+322605386+322292934
2656+322095871+322050139+322060036+322058612+321942215+321714213+321563404
2642+321488156+321378738+321363460+321442180+321405025+321363217+321498990
2629+321666363+321710081+321617540+321556841+321682996+321833666+321927839
2615+322076808+322294114+322608546+322996559+323316373+323570071+323878634
2602+324302170+324748555+325017358+325183307+325621775+326398287+327086529
2588+327413670+327627886+327921934+328187890+328427247+328734873+329097919
2575+329399849+329582640+329816163+330097779+330194592+330259527+330412732
2561+330335643+330070139+330031490+330283348+330532323+330491591+330253971
2548+330275327+330680389+331097536+331242477+331163235+331205808+331538817
2534+331811336+331829010+331775673+331752061+331841442+332175493+332693480
2521+333186986+333477875+333603578+333816474+334078402+334139552+334166568
2507+334417419+334770811+335127746+335560137+336043712+336467908+336658928
2494+336723551+337038815+337533572+337978672+338452802+339018675+339527043
2480+339740252+339816195+340088471+340405542+340521661+340357413+339862518
2467+339428321+339602465+340207681+340646218+340725216+340654309+340614098
2453+340678060+340900888+341116424+341109792+341068678+341261990+341617049
2440+341968671+342306194+342534300+342390401+342032529+341981137+342218410
2426+342386755+342547530+342954537+343502805+343767580+343601388+343353246
2413+343430230+343848835+344216187+344360989+344559267+344851579+344964954
2399+345019611+345352134+345752891+345920715+346042772+346217576+346199172
2386+345728618+344564545+342493568+339592812+336223238+332730080+329182959
2372+325150250+320506768+316128097+312410027+309062365+306733905+306308181
2359+307681297+310763941+315618409+321931589+328403287+331967978+330503085
2345+325888669+323018539+323225533+324249597+325339047+326890196+328469264
2332+329665006+331318107+334016835+336921377+339157573+341004090+343375643
2318+346530479+349536764+351712088+353617776+355621977+357543776+359622670
2305+361859909+363767957+365336712+366842510+368320981+369766498+371088846
2291+372281463+373647495+375217465+376599957+377539918+378218055+378965711
2278+379694928+380200796+380771287+381703713+382738784+383594364+384450500
2264+385346430+386026199+386608462+387466646+388546200+389433171+390026789
2251+390554464+391123740+391696731+392232497+392802398+393495223+394249199
2237+394969805+395579743+396110092+396775242+397488833+397805695+397778575
2224+397975290+398530954+399094153+399477929+399747462+400031127+400399451
2210+400809688+401264129+401812118+402449836+403052378+403470462+403916743
2197+404673844+405554669+406322535+407031438+407698151+408268746+408829375
2183+409507234+410318471+411212422+412192455+413201587+413971710+414542861
2170+415453757+416727665+417785377+418656062+419733498+420806732+421636963
2156+422423649+423296522+424353366+425691827+427109425+428448302+429756414
2143+430963060+432017681+433122480+434548169+436247002+437857287+439192796
2129+440416006+441750682+443213734+444803532+446667584+448572438+450104107
2116+451559173+453313947+455072090+456679875+458549657+460866241+463175845
2102+465150982+467059551+469254738+471808665+474395858+476766925+479278210
2089+482217753+485385612+488634031+491955719+495182818+498415368+502051731
2075+505887934+509583467+513415469+517587667+521957726+526456059+531242258
2062+536452063+541852090+547152352+552520502+558045363+563464002+569063070
2048+575199294+581391181+587293499+593432327+600205295+607022990+613424752
2035+619684005+625819221+631927630+638391064+644777131+650605173+656459120
2021+662530582+668022698+672756012+677526550+682816569+688549258+694613497
2008+700167840+704390840+708328266+712779754+716809408+720400629+723883231
1994+726407017+728737595+732277354+736019349+738992055+741600985+744133244
1981+746312284+748266725+750506880+752395413+753421595+754207691+754909962
1967+755491947+756355479+757685293+759137963+760005245+760185397+760480001
1954+761156714+761746894+762200328+762793077+763269708+763320336+764012676
1940+766068999+768080666+769228314+770149906+771227967+772228800+773198659
1927+774501527+776193588+778388810+780719526+782606740+785246576+789675771
1913+794265047+797582152+801113716+806656113+812850014+817860292+822267333
1900+827077319+831776811+835925709+840228507+844379836+848096551+853191765
1886+859561442+864691867+868057725+871371218+875790899+880044943+882886321
1873+885069805+886546018+887552616+890225301+893891943+896479970+898015354
1859+898764642+898550669+898009451+897661024+896572546+893992437+890652275
1846+887139671+884943060+885771520+887090500+886150366+883257180+879690822
1832+874990982+869628250+866676587+865319827+863505465+862052240+860060435
1819+857001057+854675618+853005919+850186696+847122595+845886607+845369279
1805+843851119+840943556+837134265+834376157+833591103+832888901+830496791
1792+828684444+830542697+832949461+833060788+832181700+831421439+830837926
1778+831054261+830718682+827487000+823034469+823000161+826788271+829983006
1765+830793479+829997035+830580964+832715556+834433106+835566726+834376157
1751+830780353+829644302+832701250+836446300+838286081+838077594+838687845
1738+840470954+839053981+836345738+839816325+846313650+851735067+855194473
1724+857039393+857749442+855379139+849896259+848776112+855823961+863668601
1711+867381706+867169816+866500047+868433167+869626931+866597415+865965497
1697+871754925+880161062+888880277+894494624+897199186+897961322+895178005
1684+894414271+902649425+911812142+917407599+921028475+924608445+926580664
1670+927762760+933099866+940662125+945309808+947893459+951745948+954693999
1657+952339253+944084307+941295641+951393979+956338697+956157851+962461065
1643+972070341+977917899+979205696+975142706+971627394+978702189+987837196
1630+990827820+990545787+990773163+991028598+992733438+994409943+993619958
1616+996002900+1003370285+1007823094+1008861707+1009968867+1011075333
1605+1012018037+1014333058+1018507930+1023212214+1024843161+1022745029
1593+1021391949+1022521333+1024856009+1027788712+1030182766+1031245131
1582+1031882051+1031762251+1028484940+1025599324+1027945111+1028958723
1570+1028269162+1032101163+1036742943+1037343817+1032119011+1017814271
1558+1008935393+1021468899+1034678564+1042222141+1046958997+1051185192
1547+1054404373+1053225889+1046123036+1038889688+1045073241+1056902116
1535+1060281516+1060715713+1065943505+1069805370+1068064486+1063582231
1524+1057187066+1051482713+1051488616+1054558342+1060022471+1066016149
1512+1066459374+1059824818+1048347704+1046267282+1060731964+1071752241
1501+1073741823+1070773006+1068917531+1070016773+1068945172+1064345061
1489+1061522852+1063846138+1067662791+1069212134+1068143866+1065522365
1477+1060753077+1054277490+1049719188+1051550426+1056038236+1056619388
1466+1055116575+1053628556+1047270268+1034304440+1019536543+1015614049
1454+1021970392+1024452647+1018889901+1009597036+1003997204+1001740450
1443+997368828+990823028+981335913+966763724+956145697+952674207+949275777
1429+946381549+945076667+942475862+940793593+942295294+945476347+951835885
1416+959919778+966520096+972486481+977709065+980334316+980941302+982752469
1402+986370220+989260073+991097908+992839626+996201942+1002183814+1007440428
1389+1010360769+1012542031+1014199229+1014452163+1013972269+1015727877
1377+1021102693+1027808019+1033695093+1036169847+1034452784+1032831838
1366+1032119914+1029634187+1028700094+1031467438+1033791627+1033773918
1354+1032604531+1031104913+1029004907+1026262287+1023759961+1021232563
1342+1017057899+1011734545+1006517170+1001487447+998017901+996662252+997224652
1329+999543770+1001181314+1000746284+999591552+999718505+1001777189+1004330005
1315+1007403551+1011421120+1015460358+1019762253+1023513346+1024910248
1304+1024696692+1024151029+1024200547+1026110540+1029191448+1032404448
1292+1036038380+1038828226+1040748289+1044694743+1051574941+1060072335
1281+1067525143+1071211301+1071570353+1070701821+1069808078+1068511530
1269+1066752173+1065574938+1064569660+1063368744+1062555354+1061594663
1258+1059006011+1054691546+1051422431+1050884755+1050368747+1047350968
1246+1044075950+1043405418+1044177068+1043502994+1040803571+1037733775
1234+1034777459+1032074981+1031152833+1032053521+1033116858+1032460354
1223+1029955042+1027812880+1026465426+1025168739+1025131097+1026212283
1211+1025893303+1024687455+1025171794+1027202838+1029084287+1029343819
1200+1027758015+1025177767+1022647661+1021076719+1019954072+1019331182
1188+1020034217+1020843023+1019909000+1017422300+1015357365+1014265762
1177+1012482583+1009591341+1007512516+1006911017+1005866986+1004511128
1165+1004473903+1004758645+1003645790+1000898517+998464460+997874627+997215068
1151+995125965+992957967+992192914+992175413+990478004+986521202+981782263
1138+978622531+978286466+977676285+974421823+971484120+970838242+969899218
1124+967047979+963565516+960349044+957639550+954920334+952144587+950150977
1111+947724003+943804009+939874154+937668168+937252792+936417734+933611568
1097+930525313+929359329+929663517+929058822+927424542+926505104+925617612
1084+925117160+927041391+929350301+930301547+931681087+933147716+933218277
1070+933159662+934153758+934472183+933265224+933278559+935615248+937281544
1057+936049375+933377593+932997150+935757202+937654834+937902768+940031040
1043+943603579+944702197+943142783+942874362+944695321+946277583+947874013
1030+949387104+947948324+944177716+942279043+942341547+941259944+938703448
1016+936898115+937290572+938425165+938001386+936759772+936221471+935784704
1003+935394886+934853320+933802137+935000483+938624554+940162299+939038055
989+939204385+942113545+946030275+949427107+951751712+954165977+957650801
976+960672885+963017423+964883246+963712540+960008951+958416757+959480095
962+959834911+958588505+956184936+953546281+952820467+953372172+952742059
949+951161046+950203063+950849567+952419328+952711848+951799216+951702334
935+953158268+953906445+951326197+948337448+947334115+945002981+940668167
922+937336270+935455168+934047501+933667405+933528715+931647474+929588025
908+929357037+930278768+931327174+930681504+927716438+925327869+924702757
895+922766164+919089521+918454269+921902007+924316688+923287381+921338218
881+921397875+924438155+928052780+928982914+927625042+927497117+930933952
868+936491420+941211955+944457735+947713933+951300848+954746364+958950058
854+964291747+970355431+977027976+984360150+993143397+1001723713+1006771215
841+1010036094+1015654538+1023331736+1030231381+1035477230+1037913996
829+1037681480+1038190890+1038250964+1035897537+1034076508+1035294717
818+1039871631+1042958928+1040899202+1037899967+1035736415+1034000114
806+1035051020+1039045532+1042239087+1042228322+1040653699+1039276521
795+1037410003+1032397920+1024661690+1020566059+1021949210+1021013451
783+1013181798+1004403899+999920741+998302435+996689337+993125201+986813098
770+980270700+976355638+973722816+970206740+966777336+963852411+960513152
756+958290498+958866997+960418632+961534195+961039994+956399534+952125905
743+953115071+954224314+951388979+947286125+945083959+946253693+948106252
729+945064652+938023401+933663863+932490587+931457530+930930271+930808040
716+930283282+928998957+928132855+930194942+934974162+941039096+945846026
702+946606078+947673374+952907695+955554267+952058886+946799981+941627817
689+941923463+950198410+955841509+955127085+955910542+959966239+963477941
675+962383976+956096944+947559964+942649485+948869221+955601354+957304249
662+960216395+961483428+959761295+962217506+968576974+968057980+960218410
648+957970684+961284803+959144794+952677401+950451067+952066595+949785257
635+940686224+932234181+935519339+945213204+942915198+940510448+958409326
621+975050061+967476690+951340434+941079446+939153410+937920547+935353633
608+951957490+993608012+1021213951+1004701975+971777196
##END=
