##TITLE=Sample description
##JCAMP-DX=4.24
##DATA TYPE=INFRARED SPECTRUM
##DATE=13/9/2023
##SAMPLING PROCEDURE=Instrument type and / or accessory
##ORIGIN=Default
##XUNITS=1/CM
##YUNITS=ABSORBANCE
##RESOLUTION=4
##FIRSTX=4397.6552
##LASTX=599.8556
##DELTAX=-1.9287962
##MAXY=1.7537465
##MINY=0.35447446
##XFACTOR=1
##YFACTOR=1.6333037e-009
##NPOINTS=1970
##FIRSTY=0.37566295
##XYDATA=(X++(Y..Y))
4398+230001897+229574013+228362800+226648582+226227194+227898806+228963553
4384+227888989+226400592+225938550+226352384+226873965+227225523+227779546
4371+228784882+229549489+229052341+227814215+227400545+227724496+227285244
4357+226156652+225585788+225103821+223746507+222977246+223962292+225193302
4344+225958749+226675058+226370485+224988009+224723122+225910122+225954516
4330+223743223+221318407+220745188+221321491+221700528+222049003+222430066
4317+222608792+222232564+221133641+220063585+219644587+219915148+220553763
4303+221213397+221832068+222433168+222159067+220300590+219166196+220513730
4290+221711476+220854632+220130076+220858044+220889063+219059125+217689166
4276+218260943+218950904+219072427+219634278+219691481+218881895+218661895
4263+219020898+219213163+219610904+219938577+219421485+218507766+217471812
4249+217029112+217834556+218225235+218083641+219146800+220291321+219568571
4236+218214542+218304498+219056862+218994039+219088320+220299915+221352948
4222+221230239+220683259+220349729+219922648+219369756+219165120+219209915
4209+219094669+219024420+219041918+218630657+218196551+218678719+219586855
4195+220070920+220439247+220908770+220684007+219382638+218019011+217708344
4182+218352414+218693900+218390787+218316158+218207171+217905298+217955038
4168+218078915+218261509+218427535+218069208+217900061+218647991+219317370
4155+218901401+217907670+217466375+218030178+218849872+219158624+219046006
4141+218649998+218415347+218753712+218862590+218513550+218702585+219138680
4128+218934500+218648940+219121474+220156168+220634595+219595631+217915023
4114+217655173+219094268+220278074+219951970+218964735+218552470+218735867
4101+218805168+218588580+218474228+218709337+219316074+219775251+219410902
4087+218863703+218771740+218712986+219221119+220401969+220484042+219582001
4074+219635062+220288201+220400911+220536118+220849742+220753564+220487108
4060+220611824+221186447+221862358+222223514+222014790+221630388+221811523
4047+222531846+223284702+223961398+224569540+224675043+224088340+223399401
4033+223015984+222889663+223358912+224603370+225652862+225818469+225523731
4020+224992242+224458783+224327608+224372258+224629152+225688918+227090990
4006+227860397+228229399+228724449+228996543+228506985+227768835+227665760
3993+227848409+227949185+228771087+230457461+231720184+231999540+231996091
3979+231815103+231478106+231419953+231215263+230854836+231143863+231683745
3966+231833952+232366845+234025393+235576267+235726929+235539974+235586266
3952+234667200+233376286+233607873+234332977+233901279+234055755+236197182
3939+238464018+238687065+236602294+234677035+235923355+238961458+239944260
3925+238999849+238765143+238790378+238171926+238717939+241594998+244290593
3912+244632517+243445080+240797126+236152168+232548855+232604617+235300578
3898+239739295+242825333+241724184+239941304+242098131+243681247+241905993
3885+240806231+240115596+240370155+244341702+246023350+243423823+240945471
3871+239673096+241359105+244211768+244481216+245540599+248910226+250449513
3858+247511146+239236198+233384005+241176346+251319130+255920224+254502167
3844+249448465+244468371+241409976+241777555+245460076+248875502+251139820
3831+253536098+255336349+255603134+253296100+247591832+245337112+249194399
3817+252274051+256448829+261738169+263159090+259710455+255621709+254872136
3804+253926595+254425969+259333041+262739235+265325278+269316805+272188901
3790+273751946+274350655+273709960+273571286+273657702+273493318+276239037
3777+280966051+283155595+281769141+280026604+281828917+285622834+289117870
3763+291207331+290955800+292035291+296277272+298374268+295773573+296247019
3750+308925540+323945380+340857617+370847155+401057514+419087176+425907482
3736+426843900+431311300+439727166+446405915+449798807+452535147+457021634
3723+464779015+477019854+491207975+502812443+509196983+513282663+524497055
3709+544831159+566731884+586911366+607808853+631470380+653170538+668715371
3696+677901902+678318364+670259694+662823673+663728123+668486922+670163936
3682+665966038+657007590+645418631+633542251+629949339+630355145+626607648
3669+627055348+630915682+629531345+625045661+619895581+611275316+601836250
3655+597700793+591529301+575267849+559392278+558902830+565672118+568515713
3642+565902209+561306461+556554778+550267347+541515013+531134092+520740507
3628+517962053+521061685+520346343+514627295+507293894+502855542+500377720
3615+496056621+491276765+487995725+486070813+485741534+484819384+481326136
3601+477768915+476069568+474283257+472229743+471479295+469288127+463018031
3588+458196353+458932314+460302053+460180531+459114817+456931751+454301241
3574+452730423+451310761+446920580+440520458+438225759+440113083+441154492
3561+441259739+442186122+442504489+440213367+437192196+436081157+434723789
3547+431765459+430359008+431203499+431690466+430964723+429673736+428279473
3534+427341705+426444554+424327906+421673565+420060634+419502250+419264788
3520+418434858+416603879+414464606+412490391+410908260+410233609+410111064
3507+409437982+407920408+406626319+405971301+404777641+402983484+401548750
3493+400388774+399090306+397919017+397268342+396760683+395482688+393673934
3480+392437541+391368068+389593581+387876316+387066055+386575622+385541365
3466+383804138+381813392+380395956+379519934+378182564+376402859+375068736
3453+374090716+372341884+369962922+368625224+368285471+367821422+367185308
3439+366216994+365052894+364114652+363009233+361697956+360431748+358944865
3426+357219936+355532194+354329082+353886966+353534879+352656996+351514755
3412+350494366+349686806+348985843+347945638+346327050+345037815+344663430
3399+344437062+343821895+343020283+342412195+341764256+340564028+339328693
3385+338727758+338714839+338815670+338388662+337294447+335990833+334969349
3372+334356335+333811599+332978056+331909861+330640879+329395363+328689838
3358+328231409+327667295+327211530+326576547+325316470+323543187+321755417
3345+320387648+319584321+319148263+318452043+317215066+315880433+314629443
3331+313411917+312519327+311696476+310413007+309073995+307939199+306578473
3318+305014133+303534403+301997998+300208002+298421983+297094777+296062144
3304+294625731+292831885+291414886+290404770+289409506+288637545+288238892
3291+287848980+287420311+287074647+286774763+286924732+287380077+287029304
3277+286024534+285484196+285432101+285514540+285632577+285493739+285357381
3264+285412559+284630526+283308337+283003764+283103500+282750756+282574913
3250+282511287+282016821+281022853+280022864+279660923+279834485+280147798
3237+280323806+280324973+280619219+281207235+281489785+281359266+280891769
3223+280026495+279236342+279211508+279649373+279932196+280388143+280855294
3210+280770046+280707606+280953534+281095383+281005117+280707916+280542966
3196+280977547+282026674+283150157+283907776+284406968+284559565+284311173
3183+284160857+284253386+284333507+284505737+284806223+285005987+285364625
3169+286259751+287355134+287963934+287995610+288109505+288635246+289386260
3156+290000205+289942801+289522599+289498586+289701672+289957307+290699800
3142+291549273+291537850+290713631+289624470+288903417+289229047+289918387
3129+289898936+289490686+289290775+289491525+289876529+289585495+288644753
3115+288141875+288370214+288689275+288189444+286791331+285672811+285260492
3102+284790987+284255320+284262710+284456088+284188027+283932829+284486487
3088+285578403+286340675+286553157+286468675+286320713+286425832+286976516
3075+287709831+288012561+287738861+287397101+287447736+288016885+288608460
3061+288651139+288516935+288728888+289187080+289692913+289928350+289681710
3047+289460652+289766849+290345943+290663909+290622653+290488139+290294159
3034+289976065+289710904+289661347+289825457+290130796+290467867+290805995
3020+291259625+291789891+292187705+292425678+292676952+293276993+294244960
3007+295203639+296430690+298375418+300575964+302557952+304819496+308311540
2993+313275615+319201251+325603526+332077985+338234843+343812005+348742578
2980+353041854+356777199+360228626+363290669+365540153+367191037+368699998
2966+369959674+370603489+370710305+370736215+370883721+371127825+371447397
2953+371722994+372040559+372674083+373295600+373337531+373007850+372345132
2939+370596117+367839377+365091395+362964967+361405352+359952372+358569239
2926+357615852+356892627+355890996+354319010+352248380+349732496+346585313
2912+343295223+340674347+338679806+336847404+335093536+333631250+332550063
2899+331763340+331158026+330725106+330684452+331174776+331905883+332446604
2885+332931491+334087671+335854276+336970679+336842806+336134909+335404204
2872+334791043+334295318+333553555+332226330+330682846+329297816+327667916
2858+325555647+323329337+321053651+318245491+314733303+311247901+308505174
2845+306403488+304577108+302869349+301358636+300232434+299488354+298969583
2831+298670758+298536080+298245356+297583312+296751758+296162957+295871594
2818+295605339+295255387+294948952+294962783+295387948+295943504+296349693
2804+296545005+296636530+296782248+296944698+296869905+296564328+296403028
2791+296450013+296407115+296305299+296336738+296312689+296002258+295593132
2777+295348682+295089835+294575936+293980694+293483016+293042779+292686842
2764+292569771+292677664+292594660+291973544+291173994+290745453+290628820
2750+290597783+290668434+290749960+290689454+290438417+290037593+289722874
2737+289643118+289626933+289560187+289445452+289243991+288996128+288875427
2723+289045814+289301523+289393796+289456017+289533766+289602830+289645271
2710+289496324+289256472+289214121+289469009+289862242+290029163+289847608
2696+289553947+289338399+289228846+289106137+288957464+288968430+288954344
2683+288602001+288087682+287602048+287046748+286400141+285832688+285466588
2669+285175882+284817007+284473733+284171240+283760708+283291258+283013654
2656+282983894+282965318+282768656+282457478+282185165+282059445+282028444
2642+281955968+281815962+281626726+281455426+281407620+281467141+281518104
2629+281504090+281507685+281602640+281786202+282137048+282668792+283123298
2615+283320179+283460751+283768080+284181877+284610710+285027591+285371668
2602+285709177+286150691+286643369+287140371+287701346+288275988+288662051
2588+288756276+288703361+288805725+289071651+289156936+289061232+289059025
2575+289126464+289120571+289050066+288933834+288804849+288747810+288601088
2561+288224642+287891513+287736562+287589239+287445984+287396937+287413706
2548+287499246+287591976+287576320+287632666+287852958+287969170+287921109
2534+287925160+288129321+288518924+288912759+289161845+289410583+289829325
2521+290245623+290539959+290867067+291253440+291667548+292099336+292412066
2507+292600572+292763624+292973095+293337280+293699531+293862382+294026621
2494+294334022+294648247+294879086+295041828+295235899+295524579+295799848
2480+295997332+296146754+296172846+296005123+295715257+295473890+295454968
2467+295609153+295718067+295709710+295625392+295541220+295591672+295766129
2453+295915167+296024884+296192078+296448261+296800860+297237703+297565613
2440+297633108+297600629+297610974+297665003+297735672+297735581+297731183
2426+297929670+298340822+298679516+298744000+298744018+298871216+299123695
2413+299520213+299872483+299977875+300056847+300341002+300666029+300949400
2399+301411405+302006173+302366289+302396487+302397162+302553737+302596872
2386+302146599+301032477+299008120+295779120+291456361+286538487+281608881
2372+276885735+272200068+267748980+263964333+260955424+258793634+257918032
2359+259014746+262425009+267813008+274709256+281584576+285179112+283692210
2345+279177150+275960447+275335372+276237924+278124427+280204254+281702650
2332+282949736+284917747+287531287+289992542+292290233+295069599+298584032
2318+302279252+305379285+307685863+309693359+311890073+314340088+316911880
2305+319326678+321339028+323105742+324879827+326541805+327963438+329299787
2291+330680657+332084955+333337260+334373888+335341253+336205889+336903130
2278+337608144+338418185+339143599+339738696+340376379+341015560+341596934
2264+342225349+342947661+343590162+344030819+344534098+345175504+345702686
2251+346102069+346454996+346818031+347318172+347876191+348324110+348679956
2237+348881472+348931212+349225531+349917991+350541844+350802771+350878166
2224+351042021+351517055+352100327+352486390+352832383+353155823+353301905
2210+353488313+353953895+354544794+355011726+355346552+355699004+356181227
2197+356706438+357186763+357733214+358390422+359120799+359940548+360796279
2183+361612452+362387241+363097839+363794022+364609975+365561575+366554083
2170+367510353+368504905+369563685+370506745+371289746+372057492+372999712
2156+374235667+375642594+377013683+378216138+379237111+380298190+381581003
2143+382953808+384246145+385460496+386692656+388059111+389621900+391237787
2129+392682630+394057807+395629683+397426102+399286020+400987191+402458966
2116+404011318+405959477+408116085+410174745+412120568+414038875+416047430
2102+418255238+420707150+423253798+425742897+428357277+431102011+433890464
2089+436968127+440266063+443486524+446778439+450390838+454249092+458230402
2075+462418957+466948724+471740696+476526756+481220342+486071725+491259868
2062+496736308+502594615+508796104+515003176+521175544+527367654+533537577
2048+539900658+546523937+553079667+559589561+566472197+573622330+580656523
2035+587473727+594177219+601015552+607688936+613801053+619962874+626529771
2021+632657872+638075303+643887883+650338366+656292175+661538233+666638318
2008+671492000+675834630+679824296+683587413+686985231+689935933+692537249
1994+695032953+697961978+701513068+704811406+707102893+708854572+710951623
1981+713244789+714830058+715726917+716503860+717309194+718094384+718413846
1967+718570548+719598856+720719858+720908309+720961370+721267841+721174783
1954+720853496+720996623+721302072+721146537+720533888+719823509+720185888
1940+722085218+724014692+725241524+726332819+727916775+730185198+732537192
1927+734213621+735400456+737599980+741034146+744312266+748272373+753670973
1913+758705443+762831522+767602583+773792723+780311156+786510857+792709026
1900+798385267+803107938+808154961+814315469+819924635+824283103+829190868
1886+835034540+840860404+846542557+851490976+855223146+858331207+860622986
1873+860757866+858347337+856899429+860786987+866767145+869706315+869347075
1859+867541824+865598775+864204001+863284005+861697860+858383539+853352718
1846+847206735+843072847+843232907+843004531+839498766+835560117+832483805
1832+827138996+819795230+815783083+814603182+813249426+812476790+810986769
1819+807555230+804535337+803080422+801039497+797740722+795059705+793214166
1805+791318047+788761837+785565097+783524902+783154714+782044077+778666111
1792+776311199+778463646+781567329+782820436+783036111+782574982+781883945
1778+781920657+781115104+777517302+774043797+776181866+781698121+785922366
1765+786805139+784936682+784432126+786177090+788292022+790797506+790644600
1751+786307663+783652045+785920688+788852195+790138510+790821008+792666547
1738+794370201+791543721+787763380+792669978+801469899+808320568+812119521
1724+813476415+813703403+811037932+804977490+804151646+812747278+822075404
1711+828012718+830310775+829604264+829426688+829834026+827305040+825980698
1697+831001155+842023811+854592468+861555390+863913806+863966138+860492559
1684+860926830+872184137+883007759+887735539+888602839+891058765+895070546
1670+898873148+906671621+915787794+920822045+924709895+930697278+935581395
1657+934956119+926913652+923592470+934630599+941209392+944760336+955257343
1643+965067837+968606154+967852130+963190694+961562217+971150248+980375317
1630+982490615+982624837+983675260+984267401+988463327+994363491+995278306
1616+996310920+1003327998+1008699374+1009532808+1010191512+1013565464
1605+1018197267+1021717775+1023845773+1025317548+1026030335+1026855667
1593+1029057016+1031595125+1032716491+1033006102+1034042220+1035339776
1582+1036036725+1035100526+1031030866+1029358816+1034092362+1035253287
1570+1031248877+1032052970+1038149979+1042712153+1039653284+1023640170
1558+1012204118+1025652848+1040821508+1049015641+1052025535+1053505339
1547+1054777276+1052777662+1046024139+1039910854+1047554960+1061467666
1535+1066777806+1066180703+1068063684+1070295469+1068206957+1063688283
1524+1058066782+1053697439+1056463194+1061852743+1066036335+1070280725
1512+1070810462+1063531581+1050625871+1048133744+1062153010+1071122772
1501+1070954319+1068752240+1069858206+1073346747+1073733284+1069358759
1489+1066768245+1069960095+1073323537+1073741823+1073070419+1071916063
1477+1067620437+1059516077+1050990366+1050849137+1059323393+1063266421
1466+1057571787+1051012700+1048310079+1041401240+1027728149+1021897395
1454+1027162211+1028356126+1022503038+1015710832+1011534174+1006367890
1443+999832670+994090230+984273823+968798547+958586262+953347794+946610766
1429+942778969+942823783+940991016+939449539+941483092+945381452+952594791
1416+961284722+967571788+972678369+977295866+977905304+975492951+978490730
1402+986283729+992215423+997700147+1003809345+1009385813+1015162484+1019271775
1389+1019729766+1017846347+1016526676+1016216556+1017305443+1021080602
1377+1025330758+1028423857+1033179664+1037513171+1037395736+1036257145
1366+1035465751+1032584824+1031288582+1034240525+1037451278+1038635486
1354+1038288435+1036995477+1035088556+1032230182+1028211612+1024193627
1342+1020825806+1017723000+1015181022+1012988943+1010414924+1007881340
1331+1005171056+1002550253+1002505293+1005009682+1007706537+1009816726
1319+1011842542+1015194306+1019023548+1020745521+1021252632+1023513246
1308+1028452176+1033686556+1037045838+1039106177+1039750648+1038307484
1296+1036503401+1036092414+1035931989+1036593102+1041026089+1047605029
1285+1053027422+1057519967+1061899382+1066195373+1069772301+1071361730
1273+1070347654+1067300755+1063383199+1060195145+1058884816+1058388653
1261+1056973735+1055024774+1053787651+1052645045+1049687263+1044332163
1250+1038102830+1032984571+1029559018+1027847190+1027528458+1026686484
1238+1024488712+1022696161+1022047164+1022011473+1022876876+1024019481
1227+1023736585+1021889659+1020017261+1019402421+1019988066+1021041482
1215+1021892797+1022526321+1022826880+1021818935+1020399783+1020409928
1204+1020804348+1020043901+1018682336+1017187132+1015581281+1014611362
1192+1014723980+1015190219+1014913453+1013329060+1010245814+1007196945
1180+1007042432+1009297937+1010437696+1008684339+1005682619+1003837517
1169+1002926134+1001423340+998506503+994383782+990683726+988715496+988186489
1155+988022561+987043227+984346591+980381448+976524471+973826740+973278684
1142+973527933+971807858+969570818+968721327+967229919+964328483+961676660
1128+959894473+958440361+956794003+955085897+953217367+950375999+946052564
1115+940466535+935427102+932811919+930899743+927434631+923674288+921128296
1101+920245961+919610540+916629037+913824892+914994137+917733616+918622374
1088+918496983+918438959+917393426+915652622+915027492+916337383+919036646
1074+920155312+917959875+916314173+917994908+920981812+922808594+922495627
1061+922028513+923450292+925676237+928679271+932006439+934358724+936382861
1047+935873999+932106722+930304391+932165257+934378649+934662348+933737900
1034+934272600+936741079+937910398+935697152+932099934+930312347+931241101
1020+932585514+931696756+929280535+927836276+927874521+927557540+925204014
1007+921811670+920270631+921349592+922643863+922979674+923505324+923818437
993+923446497+924591292+928136397+932043224+935541399+939303712+942747804
980+945381088+948431417+951658227+951724864+948513527+946270721+946101830
966+946342102+945828495+943633277+942119170+943468693+944236220+943219370
953+943755676+945280366+945138772+943492559+941654830+940687027+939982269
939+937783328+934268147+931556622+931226869+932171534+932544131+933222687
926+933875844+931654789+927520171+924752227+923354461+921654603+919577258
912+917706903+915943547+914577895+913652425+912415886+911301234+910898640
899+910742887+911561139+913429523+913657169+911588144+909602690+909874711
885+914108883+920031089+922461324+923074484+926701115+931314526+933003071
872+933155029+935299667+939343125+942632704+945250733+948037654+950162002
858+953008771+958297965+964447597+970401552+976995964+984137339+991910047
845+999962805+1006687863+1012758305+1019516280+1026312282+1032727075+1038069037
831+1039217919+1034975500+1032038738+1036239774+1043379469+1048719607
820+1051472735+1049331600+1044339316+1040720859+1037393546+1034661584
808+1035684127+1039723205+1043869793+1044850441+1039377614+1031575492
797+1027686839+1025470163+1023071677+1021618514+1017961374+1012659262
785+1010881454+1010919845+1006744063+998440523+991340751+986468093+981310567
772+978462192+979357373+979143741+975513096+969393534+962909696+958403211
758+955279312+954885257+958252056+959283868+954898249+950590068+949323313
745+950093905+951354384+950044712+946619524+944350079+944529845+945970746
731+944201478+939099860+934629285+929853334+924334598+921172234+921995377
718+923797124+920201366+913393030+913834891+921721093+927751028+929984199
704+932617336+936646051+940441281+943238785+945465387+947453761+947275090
691+942506072+937689540+938426632+942123914+944410220+944947036+945696974
677+946274663+945112643+944137177+942741308+940026571+944055067+953477710
664+957448473+956564387+954103789+949103258+943060114+939696818+938029220
650+938439624+945276133+951534296+943127553+929180105+924651360+927481415
637+936275060+948707087+956584677+960774108+960216125+953648134+951032002
623+950197692+940000588+928294559+928589571+942400607+958213665+958745445
609+944394601+927181951+913290630+910578521+922382206+939949060
##END=
