##TITLE=Sample description
##JCAMP-DX=4.24
##DATA TYPE=INFRARED SPECTRUM
##DATE=13/9/2023
##SAMPLING PROCEDURE=Instrument type and / or accessory
##ORIGIN=Default
##XUNITS=1/CM
##YUNITS=ABSORBANCE
##RESOLUTION=4
##FIRSTX=4397.6552
##LASTX=599.8556
##DELTAX=-1.9287962
##MAXY=1.7278866
##MINY=0.37275389
##XFACTOR=1
##YFACTOR=1.6092198e-009
##NPOINTS=1970
##FIRSTY=0.4076817
##XYDATA=(X++(Y..Y))
4398+253341224+254107774+255317928+255098765+253859036+253738824+254849268
4384+255575093+255383080+255056726+255463234+256369034+256321290+254828285
4371+253226328+253032222+254079717+254902993+255131453+255385543+255735344
4357+255055837+253466158+253290758+254734334+256062773+256335013+255426120
4344+253563016+251256291+250230816+251174360+252456999+253123154+253392524
4330+252953754+251689579+250799187+250869099+250939048+250431348+250472091
4317+251525883+251421820+249622795+248934787+250704829+252650512+252804781
4303+252104050+251214492+250383678+250541763+251255995+251713321+252095605
4290+252423479+252272154+251496362+251313832+252657253+253206141+251314035
4276+249354351+249220454+250330267+250964587+250472999+250278227+250691532
4263+250972624+251035110+250314118+248399918+246642099+246774441+248417012
4249+250246910+250998867+249152394+246355766+245788191+246753940+247558715
4236+248648546+250116438+251066538+251392448+251754138+252308286+252800633
4222+252863063+252587471+252329380+251469009+250400642+250555838+251916131
4209+253643003+254255043+252823486+250664641+249451580+249773027+250824818
4195+251169582+250983125+251486288+252238985+251771936+250454979+249710726
4182+249513565+249518862+250294339+251366131+251089391+249329739+247796267
4168+247813102+248749330+249112261+249079241+249755952+250341731+249595497
4155+248734014+248927212+249182544+249116113+249236047+249347888+249686614
4141+250392586+250582376+250034414+249231954+248506092+248639341+249449598
4128+249118577+247807731+247249250+247197580+247183801+247546936+247778192
4114+247711169+247812806+247787582+247763784+248213906+248346581+247839307
4101+247518564+247769062+248373083+248626989+248206461+247661722+247341867
4087+246879115+245897328+245221302+245964851+247405075+247932702+247790193
4074+248077693+247937055+246822648+246459198+247049367+246957101+246594374
4060+247244453+248027449+248076471+248204813+248522204+248433365+248112436
4047+247943796+248177144+248765405+248883765+247936666+247060312+247230804
4033+247663925+248188293+249448783+250910731+251312961+250541392+249636203
4020+249243251+249443190+249776694+249653371+248998328+247962964+247447133
4006+248292300+249456469+249547882+249115521+249042349+248893340+248665454
3993+249074370+249879163+250211574+250179998+250381493+250207352+249450524
3979+249504509+250265893+250164497+249784509+250568505+251701765+252130830
3966+252411237+252757149+252644752+252220391+252119829+252168647+251557422
3952+250646881+250559708+251538791+252395088+251904315+251213677+251618481
3939+252206205+252166721+251226030+250114920+250695532+252321287+252314749
3925+250840671+250493722+251165303+251316350+251797549+253672005+255414545
3912+255748975+254723352+251451896+245743207+241300378+241414126+245047420
3898+250110716+253119821+251540810+248260650+248055284+248027486+246361914
3885+247216766+248327543+248096658+250487722+251676633+249499509+247399353
3871+245460522+245726650+247727837+247468061+248193275+251786770+253445564
3858+249747340+239450516+231636410+240332185+252223262+257190958+255039613
3844+249539493+244695842+241189686+240832514+244842777+248407456+249855292
3831+251694190+253746677+254478558+252105791+245398610+242110135+246234961
3817+249583533+253264515+259079267+261647455+257779553+251806494+249980022
3804+248444995+247583198+252013785+256446076+259889006+264054335+266697212
3790+267249730+266370431+265005471+264992822+264837442+263424960+264626150
3777+268721549+271092464+269471931+266594650+267131074+270372898+274460092
3763+277399266+276461742+275877889+279783034+282712726+280795341+281509833
3750+295795789+315010421+338016116+374049334+405944613+421160834+422697712
3736+416652279+413557705+417241762+422337763+423026512+420213846+419234226
3723+421309325+424661990+429311369+435630450+441087660+445095627+456116092
3709+478867511+507159591+537675409+572517289+608321824+632431963+641524856
3696+640658281+630921641+610591529+586393866+572017293+566618309+559694410
3682+547587171+533027104+516970716+500363811+493376204+491154910+484087632
3669+481107140+483291913+482200619+478012677+472813336+465252395+456174058
3655+449505658+441231781+426359953+414749931+417559746+425012124+428104401
3642+426539817+423600438+421303139+418268829+412763023+404322914+394304182
3628+392370092+397752705+398235662+390771765+380503498+375451833+374036814
3615+370333460+366611993+365282721+365358652+368044199+371805557+372181544
3601+369013855+365639374+363130913+361552958+361225307+359499452+354094764
3588+349358231+349558430+350745322+350130134+348286605+345947415+343879316
3574+342737019+341412117+337478599+331605806+329421478+331658403+333222468
3561+332927930+332180622+331081439+329366808+327672733+326473951+325342247
3547+324140168+323391045+323519053+323753217+323157807+322329716+321527849
3534+319945041+317616555+315660500+314964640+314925415+314600986+314109250
3520+313745375+313202265+312180902+310949525+310072856+309781503+309651254
3507+309272766+309155333+309772151+309907030+308771104+307742666+307711775
3493+307713516+306783936+305499796+304924055+304777749+304510380+304223250
3480+303641674+302746671+302158799+302133575+302635719+303094546+302762394
3466+301856465+300856195+300220320+300245655+300456076+300418129+300158649
3453+299758679+298983369+297969061+297719934+298009675+297758140+297469936
3439+297749436+298101125+298000674+297380745+296752907+296592230+296802133
3426+296817838+296125311+295208399+295085928+295818883+296327916+296112791
3412+295878072+295814586+295618277+295433969+295409449+295532049+295650076
3399+295789807+296088512+296192426+295942428+295585257+295334240+295474749
3385+295928612+296364308+296630547+296813652+297108060+297142674+296927104
3372+297127821+297191992+296349566+295411801+295392966+296101198+296806226
3358+297073558+296819449+296589545+297003516+297622020+297567053+296733906
3345+295658465+294798520+294400086+294327489+294162997+293640370+292430235
3331+290753995+289753096+289777523+289576010+288413304+287261747+286405987
3318+285011062+283264151+281644119+279739790+277372154+275123173+273366502
3304+271912277+270540020+269423409+269015994+269173097+269268973+269310458
3291+269544788+269600847+269385666+269725596+271136466+272797112+273493584
3277+273416449+273557885+274378624+275762177+276557230+276127201+275621168
3264+275747269+276245394+276869972+276916716+276001564+275208697+275481770
3250+276373384+277110914+277400266+277283259+276792930+276076068+275702414
3237+276182927+277216569+277998972+278217153+278035586+277899744+278529655
3223+279842242+281104584+282210193+282885793+282752785+282419133+282424744
3210+282975429+284226881+285706090+286973951+287958071+288735640+289943812
3196+291852752+293630313+294548077+294801538+295233252+296057325+296758278
3183+297502382+298692479+300278805+302126316+303890413+304845309+305145884
3169+306028016+307255375+307630547+307525689+307825523+308151304+308170287
3156+308493363+309198298+310032631+310409415+309446407+308005683+308251496
3142+310285907+311261582+309991925+308701988+309288045+310867297+310966785
3129+309655384+309404312+311085311+312337208+310768994+307953013+307091308
3115+308341242+308134525+305158033+302728189+302974649+303918433+302191746
3102+298705906+297327278+298791300+299981638+298063419+295120615+294913713
3088+297642725+299447306+297615168+295128708+295066500+296571784+296728869
3075+294736108+293390464+294401753+296460925+296965995+295424487+293849235
3061+293594867+294361287+294149181+292513481+291498211+291828454+292382417
3047+291925739+290665915+289645848+289281250+289365089+289102868+287933884
3034+286330834+284963170+283955715+283025321+282190470+281992827+283551059
3020+289774894+300321234+306248327+301931284+293536381+287295398+283560004
3007+280826991+278809007+277908096+277816812+277838406+277843018+278345125
2993+280016994+283249928+286986507+289389998+290263185+290813129+292176274
2980+293707319+293354351+291490692+290226090+289999649+289965943+289048476
2966+287169686+285438683+285045731+286532773+287550914+285790336+283482981
2953+282917795+284245308+286522958+287054697+285398736+284125652+284468379
2939+285795114+286007091+283953549+281669825+280905182+281689641+283060805
2926+283115234+281782702+280732133+280612051+281096843+280924887+279277964
2912+277621688+277618707+279025484+280200895+280283511+280067497+280010086
2899+280067034+280415020+280698816+280717836+280853697+281370249+282171820
2885+282537641+282209175+281983771+282231713+282776731+283249113+283110938
2872+282620146+282378630+282348499+282266401+281968974+281504332+281131623
2858+281016004+281071804+281018300+280623404+279873040+279063042+278779413
2845+279171790+279630191+279791516+279961101+280499785+281332802+282081518
2831+282691188+283317859+283887563+284289441+284555032+284773213+284909445
2818+284933465+284998247+285185981+285317953+285309452+285500854+286064391
2804+286567516+286644207+286640651+287113997+287884955+288365209+288479790
2791+288546906+288683044+288751067+288749049+288866390+289072736+289125629
2777+289052217+288945617+288684489+288425713+288373154+288340244+288284055
2764+288347337+288430305+288367987+288199698+288096061+288179659+288477512
2750+288894984+289120462+288948969+288788496+289040623+289238544+288944747
2737+288559851+288402692+288367468+288464159+288668136+288798181+288808201
2723+288704879+288497551+288339559+288286611+288204420+288082523+288008704
2710+287888585+287600529+287358587+287400071+287494003+287346957+287053567
2696+286731120+286361188+286162434+286286035+286331705+286065965+285821597
2683+285672087+285324602+284738656+284178267+283872803+283706236+283385345
2669+282918610+282455413+281993716+281628989+281430457+281101287+280533861
2656+280234953+280422835+280616607+280600106+280576882+280554529+280433762
2642+280205506+279977139+279944656+280112982+280292956+280417928+280487228
2629+280542695+280771840+281086823+281218221+281286336+281559910+282032422
2615+282452394+282773804+283237779+283729182+283938085+283965197+283997311
2602+284072890+284307961+284791381+285451110+286046223+286363429+286515939
2588+286584369+286488993+286494604+286913298+287525653+287897196+287890640
2575+287750650+287787652+287980776+288180696+288365227+288474864+288527275
2561+288710824+289083404+289319271+289104924+288751512+288684118+288848611
2548+289105646+289380312+289603864+289876160+290184050+290320244+290414510
2534+290678434+290921487+291068386+291228545+291285030+291299327+291586679
2521+292048080+292346729+292555613+292848762+293138892+293369444+293597441
2507+293802510+293855532+293742080+293677465+293807825+294062008+294362269
2494+294669048+294888118+295008478+295176563+295505066+295985968+296552857
2480+297058631+297285553+297193251+296955310+296679106+296338417+295942150
2467+295748212+295974819+296344455+296529615+296565062+296514429+296395569
2453+296389735+296679106+297152748+297501475+297568479+297561683+297810477
2440+298245505+298558970+298676182+298587528+298344253+298144165+298036566
2426+298076624+298396200+298859935+299201735+299299612+299178455+299025834
2413+299084449+299390284+299798126+300171465+300462725+300737484+301005094
2399+301281556+301877114+303462163+307288895+315112539+328452488+347945731
2386+373066862+402121251+432692628+462864312+492356471+522279805+553445703
2372+585362984+617671253+649901776+679190514+700298418+711879475+717293237
2359+714021689+697521643+672452812+645616088+620384839+605689800+610502153
2345+629555107+639301969+632131869+621113923+611367987+605997524+608249894
2332+613777553+614732023+611254313+609443157+610084977+607845978+599996278
2318+587418415+573842931+567838982+571836763+574885333+566271027+546896496
2305+525082323+509004452+499351411+490964305+481024282+469382074+455635727
2291+441022953+427787639+416295477+406318711+398171473+391615376+386141201
2278+381540862+377651940+374211752+371026987+368204135+366043882+364500633
2264+363081836+361562477+360181053+359131836+358230332+357265417+356370840
2251+355634347+354961562+354338669+353851748+353487428+353169222+352949874
2237+352866721+352921539+353129923+353400645+353591139+353739037+353940606
2224+354163287+354410155+354659283+355037789+355679942+356235683+356661229
2210+357389129+358303115+359095278+359851253+360537891+361081816+361756527
2197+362818226+364128386+365378172+366452427+367330337+368111092+368996854
2183+369991401+371009393+371982346+372860330+373651048+374376874+375121145
2170+375996313+376893594+377557971+378033632+378480847+378895096+379385128
2156+380032208+380593948+381018199+381548270+382164644+382758016+383356278
2143+384293784+385902556+387881723+389928672+391977474+393977271+396035036
2129+398170065+400338985+402442049+404317172+406148145+408200909+410251673
2116+412187245+414239268+416441635+418710266+420810292+422786459+425060497
2102+427645037+430245689+432767299+435403584+438245363+441359975+444907948
2089+448813427+452853174+456843806+460989078+465703017+471044627+476581472
2075+482026126+487717166+493908721+500647533+507817263+515236417+522856177
2062+530623390+538744738+547303633+556108063+564701813+572839013+580943879
2048+589189865+597565859+605784843+613551575+621100034+628250651+634706927
2035+640913927+647448652+653923966+659889765+665672071+671368889+676897400
2021+682021440+686206308+689672758+693401225+697551275+701709770+705634991
2008+709003656+712182754+715623276+718930752+721556554+723420677+725030412
1994+726916091+729256690+731810042+734541851+737227954+738777389+739423209
1981+740505280+741808551+742628827+743357837+744210264+744749558+744849417
1967+745098248+745934081+746751319+747039487+746979409+747012151+747396177
1954+747865837+748327423+748875681+749456386+749660473+749233779+749463423
1940+751197167+753373828+755469521+757556547+759539344+761749934+764266099
1927+766445575+768247027+770632887+773679754+776987675+782145939+789095951
1913+794439191+797653698+801571733+807120023+813027226+818878869+824976899
1900+831159305+836591884+840998914+845442984+849869867+854169631+859996976
1886+866621263+871957243+876118479+879818648+883314507+885933197+886665986
1873+885891861+884114708+882889072+885402051+890171401+893161005+893181821
1859+891549047+890300966+889105702+886745473+884377540+882163765+878051643
1846+871837383+867672147+867547694+866628597+863299711+859863338+856284807
1832+850002913+841659624+836617293+835065562+834285955+834548046+834186096
1819+831677710+828088141+824320856+819974645+815828521+814288790+814527324
1805+813333024+809638633+805251901+803086277+802682251+800357061+795425478
1792+793318895+797303972+801469726+801516396+799124535+797152851+796828903
1778+797841488+796962245+791669231+785872258+787010703+792816640+797285378
1765+798385746+797020175+797193668+799230394+800269500+800935099+799769319
1751+795242503+792794935+796256125+801146298+803162134+801998132+801219266
1738+802110435+800031780+797680218+803646166+812422594+819055548+822907949
1724+824514647+825002308+821684609+813744532+811743216+821667571+833019946
1711+838970559+838988264+836226897+836086888+836844567+833897115+833675470
1697+840522216+851397152+862735008+868757996+869981928+867641626+860347888
1684+858212785+870783314+884265606+891035977+893157227+895645613+898261784
1670+900359848+907315194+916123994+919897279+922764800+930835701+937892312
1657+935092647+920925865+913714651+927567708+936489479+939094761+948654722
1643+959798639+964744445+964058400+958453069+955996389+965717917+975081124
1630+976523070+975519153+975425517+975173352+979328143+984559228+982476276
1616+980210572+987067096+994016515+995274746+994387502+994850792+996284442
1603+998549479+1001035494+1002080970+1002493812+1004067323+1006086715
1591+1007019221+1007519179+1009019130+1011311058+1013087471+1013782257
1580+1011985472+1005566458+1001079645+1005093390+1007521402+1005222510
1568+1006745869+1012880124+1017866377+1015467479+999541026+987491272+1001443003
1555+1017968532+1028106753+1034972908+1039812040+1040283478+1035354710
1543+1025228268+1014368444+1022193402+1041638234+1050235835+1051024183
1531+1054620049+1056817971+1053495086+1049398743+1043628809+1036887255
1520+1039669364+1048567430+1055849760+1061076177+1061551912+1052667921
1508+1036285586+1034992242+1056935831+1071645982+1071114762+1063463741
1497+1061829411+1069117075+1071709690+1062776733+1054178761+1058607200
1485+1068146567+1073105189+1073741823+1072643529+1068506368+1059265910
1474+1048508685+1047553437+1054848953+1055730196+1048122141+1043203003
1462+1042282498+1034832750+1020817904+1016509547+1022808257+1024323912
1450+1018311740+1010730427+1007286349+1005085168+998832239+988481337+975620048
1437+964435536+961637575+959989392+951482612+942423647+938484944+936143086
1423+933914569+931024528+929312490+938121142+954539849+966680498+970849216
1410+971736460+974234846+977986129+982146254+986242449+989223830+991069433
1396+993057637+999222635+1009334928+1014895441+1013031393+1010306103+1011062597
1383+1013392824+1016140486+1018867702+1021164890+1024205608+1028274986
1371+1030450981+1031094653+1033572519+1035716808+1034285307+1032602826
1360+1033256499+1033395248+1032073310+1030944125+1028985033+1024605782
1348+1019593602+1015853504+1013436308+1011791089+1010287287+1008350715
1337+1005310590+1002316690+1001024605+1000194550+999138555+999001361+1000151140
1323+1003010365+1006522447+1009168399+1012309272+1016517029+1019805912
1312+1021602993+1022936858+1023906922+1025401242+1029198084+1033978768
1300+1035746292+1033538369+1031271035+1031430379+1033319688+1036841919
1288+1041233541+1045592864+1050189314+1054366847+1057864781+1061473018
1277+1065542618+1068843057+1069011735+1065828192+1060683781+1055213940
1265+1051633927+1049269994+1045877623+1042510291+1040824625+1040962190
1254+1041163462+1038349796+1034037883+1031628021+1029776789+1027777472
1242+1027229881+1026616211+1024354729+1022214292+1020861685+1018949263
1231+1017419903+1017879934+1018993710+1019438554+1019498929+1018766066
1219+1017106623+1016235974+1016869052+1017165961+1016709709+1016753267
1207+1016728895+1016211231+1015767573+1015141976+1014999893+1016429690
1196+1018314036+1018941485+1018271070+1016723932+1014538010+1012476838
1184+1010447964+1008234560+1006709496+1005263402+1003025106+1001809471
1173+1002831835+1003738116+1002247500+998963136+995161775+992266104+991570280
1159+992345813+991798147+987832109+983103651+981590810+981801713+980998253
1146+979915738+978403786+976435213+975443592+973982089+970631128+966132981
1132+961016423+956884374+955369830+955967869+956410713+954939876+951993090
1119+948201952+944790839+943149768+941932651+939596720+935869216+931184242
1105+927366954+925108139+924065330+923718048+922343365+919606297+917154506
1092+916095696+915654852+914450329+912417084+910430139+910453844+913121575
1078+916077547+918056195+919410136+919702896+918919141+919052409+922272176
1065+927687124+931985702+933132518+932399729+932590779+935422002+939741693
1051+940753389+936931434+933847750+933683814+933545730+934131695+937356277
1038+940153942+938900082+936017819+934946267+934881744+934763736+934875003
1024+935201024+935195024+935050348+935376888+934405194+931267359+928994395
1011+928762972+927546522+924519805+922723464+923115490+923876799+923832722
997+923668934+924477505+926568606+930067798+933400832+934867225+935947592
984+938167589+941949245+946750745+950096224+951332083+951655290+950969245
970+949306098+946915349+943913522+941634336+941208900+941512179+940993997
957+940041416+939889332+941194973+942588917+941516031+938943344+938006023
943+938194036+936991809+934898930+933335420+931940588+930052909+926574532
930+922419000+920591028+920339530+919234050+917545791+915622554+913293438
916+911113962+908565202+905432848+904000902+903819779+901524665+898271415
903+896929993+896315434+894496871+892619784+892172718+891383407+890044578
889+892175015+897853239+902291975+903107362+901367840+900331846+902457764
876+905983625+908994489+911776672+913931109+915999986+919788012+923622709
862+925447495+928207010+933933682+941654337+951964569+963962246+974238994
849+982086473+989230868+996782993+1004383270+1010358032+1014217026+1017890008
835+1024377323+1033918912+1038663965+1034436798+1030708405+1032662978
824+1035938601+1037777536+1037924361+1036518565+1035602653+1036946444
812+1037186386+1033267166+1028473222+1025478136+1024935804+1027908147
800+1030795967+1029298016+1026794519+1025918461+1024751644+1021891308
789+1015602080+1007215752+1000802368+996931003+992945482+986211410+977270897
775+969668843+965257220+961845588+957610570+953465779+950407800+949134458
762+948921184+947349451+944644089+945242943+949356917+948971706+943029242
748+939370039+938432644+936640230+935497192+935535268+934835963+934192662
735+933745892+931241357+926346591+920433462+914338544+908834479+906686560
721+908608019+909555711+907397199+905165201+904192396+906025850+911708593
708+916982865+919250199+922591530+927024636+929053880+931546784+937436801
694+944578084+948974077+947802740+944972258+945151381+945762236+945096266
681+944716093+944706611+945205237+945438956+944572751+940146238+931232690
667+931633309+938963864+936124122+930950153+932193938+934899227+936604450
654+940177425+943799737+942824932+938545466+934788553+933316012+935716021
640+938487092+934809517+928130190+926452820+928759120+937169672+947920896
627+941394616+923040152+909666533+898627660+891026791+891260140+897175343
613+906204676+914449218+919533699+922260101+923800646+924325496+921453085
600+920728296
##END=
