##TITLE=Sample description
##JCAMP-DX=4.24
##DATA TYPE=INFRARED SPECTRUM
##DATE=13/9/2023
##SAMPLING PROCEDURE=Instrument type and / or accessory
##ORIGIN=Default
##XUNITS=1/CM
##YUNITS=ABSORBANCE
##RESOLUTION=4
##FIRSTX=4397.6552
##LASTX=599.8556
##DELTAX=-1.9287962
##MAXY=1.6762228
##MINY=0.26737154
##XFACTOR=1
##YFACTOR=1.5611041e-009
##NPOINTS=1970
##FIRSTY=0.30310312
##XYDATA=(X++(Y..Y))
4398+194159449+193642325+192779260+191836646+191718628+192949624+193832352
4384+192805987+191525489+191839185+192745718+193205457+193479520+193675542
4371+193641408+193840427+194901880+195527420+194578487+193290352+192962568
4357+193313127+192809080+191588049+191281378+191623118+191266278+189966689
4344+189216202+190005233+190731437+189899815+188663034+188993071+190190411
4330+189856556+188444715+188290807+189206084+189623766+189667903+190018864
4317+190372630+190176971+189380972+188648888+188901800+189887769+190467510
4303+190290465+190002637+190444525+190814214+189855945+188940114+189141195
4290+189318947+189252283+189669927+190261390+189939810+188543585+187620462
4276+188176206+188974000+188989444+188800391+188691498+188412795+188160552
4263+188066627+188150816+188999543+190526061+191357511+190822346+189692549
4249+188986695+188861442+188986371+189429462+189918409+189896398+189616645
4236+189796096+190377861+189955082+188149938+187108320+187977378+189409913
4222+190077261+189743387+189263737+189507581+189741325+189517374+190153528
4209+191352300+191096486+189776815+188749209+188152114+188392598+189216736
4195+189419802+189213166+189587742+189952887+189357109+188425357+188082949
4182+188396874+188657097+188357204+188091406+188303235+188620730+188357318
4168+187618915+187509966+187786358+187590509+187436753+187393036+187037016
4155+186995456+187549254+187918274+187814345+187658242+187563018+187460235
4141+187769330+188616911+188701101+187424879+186559295+186859704+186828090
4128+186025829+185561852+185861803+186641728+187735959+188577680+188443608
4114+187555726+186886029+186712573+186529361+186625291+187359895+187847219
4101+187618438+187461170+187821351+188086175+187887023+187654137+187373678
4087+186746077+186246076+186182638+186162479+186226948+186651655+187184739
4074+187449983+187153679+186454392+186154938+186421938+186775323+187366653
4060+187980643+187786435+187235348+186993528+186768508+186704879+186712248
4047+186196956+185669828+185854014+186467679+186696518+186286663+186208296
4033+186837310+187143484+187027280+187361384+187881086+187912203+187522852
4020+186707246+185774464+185639646+186440036+187288630+187518079+187503895
4006+187712898+187885496+187871178+187514910+186719197+186287216+186538181
3993+186958268+187585698+188297374+188663779+188723742+188666165+188659121
3979+188415506+187671032+187151732+187462907+188330191+189050152+189269235
3966+189452657+189739053+189951894+190036465+189534059+188548586+187889524
3952+187702226+187833531+188458212+188395538+186798518+186253560+188101123
3939+189915030+190091293+188841874+187613054+188233039+189621437+189242489
3925+188264347+188859361+189151275+188025219+188004754+190485398+193124131
3912+193887218+192832237+189402277+183677196+179395588+179334021+182556008
3898+187533371+190511228+188954184+186685770+188047364+188606851+186239872
3885+185283627+185062043+185033502+187632699+188542439+186053644+183129908
3871+181116696+182478195+184624850+184054769+185140715+188954375+190371676
3858+186713508+177587504+171270788+179541650+190401037+195050023+193120962
3844+187856402+183013074+179344903+178442875+181861151+186036672+189229890
3831+191917971+192999260+192538319+189832024+183456433+180759149+184546770
3817+187081841+190665766+195913679+197136371+193035417+188579570+187818679
3804+186091577+185049787+189230291+192623138+194968220+198872312+201755728
3790+202271535+200855533+199019309+199183240+199586298+198683144+200129443
3777+203730702+204998676+202618124+199655349+200184787+203208652+206662379
3763+208584205+207019964+206181717+209639243+212289087+210751687+213683498
3750+232836656+256577672+279011883+303444549+316819668+314642239+302741711
3736+290285076+287667744+294082185+301091277+304448043+306600311+311900647
3723+320982551+332089352+343082678+352101737+357353163+360682400+371102934
3709+391801853+417270085+443639239+467849099+486681459+497429243+498953966
3696+492839839+481201214+465902246+453205089+450045146+451498051+449291299
3682+442101457+432837849+422097320+410867042+406636654+405134152+400276411
3669+399317264+401285079+399301572+394483998+389057397+381655650+372994005
3655+367051119+360044013+346794223+336112645+338610451+344755315+345710987
3642+342191646+338111463+334321685+329520261+323607234+315598790+305522249
3628+302852971+307099776+307246296+301328381+293272822+289194834+288679504
3615+286819379+283740820+280452302+277367137+276738085+277174456+275218249
3601+271481428+268268108+265497574+263500685+263398760+262171620+256478649
3588+251258589+252066424+254089258+253787226+252341156+250573678+248434506
3574+246383399+243852108+238556831+231672457+230058161+233473192+235309301
3561+234959620+234485067+233662245+231862905+230130419+229417502+228234251
3547+226113998+225274664+226109455+226551401+225684786+224498442+223771684
3534+222854098+220993419+218732755+217216222+216584172+216362130+216297528
3520+215952943+215249037+214775859+214367302+213501031+212848344+212915066
3507+212532090+211265395+210840974+211541921+211585066+210662038+209711138
3493+209085885+208524814+207999118+207713370+207479244+207281848+207472219
3480+207742025+207498736+206935927+206523514+206438180+206457346+206126049
3466+205556750+205132807+204822986+204528534+204434475+204684866+204918630
3453+204651458+203652068+202282532+201688548+202189351+202894880+203344195
3439+203572498+203756417+203954500+203841141+203480234+203230816+203030442
3426+202657451+202191241+202157622+202682192+203129598+203372811+203806835
3412+204279688+204303227+203989665+203968322+204381575+204871495+205123032
3399+204990009+204691452+204559670+204844730+205525976+206094073+206232040
3385+206167953+206309681+206675666+207028574+207441254+207848646+208091573
3372+208292959+208413249+208415692+208594972+209134528+209822952+210323906
3358+210548278+210708753+211050454+211542188+211691457+211264287+210901224
3345+210959030+211100109+211179239+211166811+211070652+210847350+210133917
3331+209147586+208685480+208608240+208130308+207432835+207169939+206786773
3318+205437854+203781158+202674957+201973265+201504248+201168999+200597371
3304+199588723+198185530+196899782+196691867+197376243+197548631+196952815
3291+196615123+196736539+196663937+196497869+196683085+196675239+196198873
3277+196121460+196463754+196626978+197080226+197947929+198508847+198770426
3264+199217946+199659186+199745265+199790071+200041932+200414159+200789823
3250+200914484+200837645+200848526+200948542+200984356+201057072+201368228
3237+201858378+202484815+202942091+202871895+202924165+203498160+203939171
3223+204325105+205255368+206525805+207540792+208014371+208342347+208935833
3210+209711883+210782385+212158546+213383318+214244779+215047498+215970220
3196+216764272+217537267+218839280+220513884+221617107+221792243+221862287
3183+222645381+223802554+224744557+225557566+226184442+226533131+226974352
3169+227819528+229131602+230496900+231344597+231822452+232498792+233485162
3156+234469164+235323161+236040965+236605071+237059655+237400231+237589952
3142+237713793+238251974+239115019+239185406+238427569+238055055+238316634
3129+238677044+239172959+239781967+239855141+239154728+238265471+237666009
3115+237177769+236672175+236321386+235852389+234868386+233553868+232314415
3102+231303590+230582063+230163999+229937986+230008335+230441557+230927392
3088+231271079+231493197+231692789+232017844+232295210+232325984+232458587
3075+232995928+233699052+234163869+234275567+234309701+234584529+235095315
3061+235286259+234882055+234653713+234946027+235159536+235075709+234785094
3047+234285628+233805176+233337993+232546957+231595656+230760579+229690802
3034+228076181+226351103+225124956+224318285+223401633+222280732+221483397
3020+221169166+220814159+220164546+219320381+218430781+217683711+217044655
3007+216412701+215878395+215533906+215345368+215327022+215677200+216882729
2993+219348540+222650516+225874889+228366568+230089966+231434914+232402174
2980+232928558+233264685+233413438+233202736+232354982+230815960+229210713
2966+228001919+227131887+226552833+226083072+225456043+224914330+224772983
2953+224698740+224442736+224265633+224403982+224863205+225178982+224961941
2939+224573163+224205975+223594314+222906310+222407341+221844437+221228576
2926+220939927+220856807+220622623+220070926+219287813+218572166+217968618
2912+217702381+218259004+219304593+220147059+220716816+221225216+221742551
2899+222126061+222191694+222163631+222484104+223038741+223455870+223813054
2885+224243393+224748643+225265023+225561824+225651759+225694121+225698015
2872+225731577+225716991+225478398+225171193+224935157+224715540+224564056
2858+224474064+224376148+224105120+223438364+222606722+221976734+221699578
2845+221823189+222148912+222520987+223037424+223740510+224462361+225141202
2831+225862175+226465302+226795473+226955128+227056785+227199181+227468816
2818+227742708+227873383+228095635+228619021+229238375+229764682+230206934
2804+230623146+231150904+231858189+232505874+232920540+233231544+233582447
2791+234038673+234435412+234517750+234284635+233936061+233732212+233765583
2777+233944155+233944175+233462749+232959809+232949271+233097643+233097681
2764+233098292+233085177+232907272+232656441+232561275+232630478+232686872
2750+232752123+232892687+232941291+232814129+232677899+232651115+232513701
2737+232105603+231741603+231608122+231567460+231568051+231581357+231632348
2723+231743417+231723276+231563928+231507897+231517595+231472293+231399539
2710+231294083+231241298+231253344+231281941+231347059+231248743+230911852
2696+230603101+230471567+230404750+230230816+229964140+229774610+229739120
2683+229744523+229545638+228996975+228353261+227927409+227601915+227195306
2669+226771954+226468662+226255917+225987943+225671919+225282033+224828880
2656+224545634+224447203+224333939+224214432+224186846+224204410+224191161
2642+224110618+223990214+223932503+223959249+224009801+224117319+224343962
2629+224539888+224595899+224607678+224631083+224862289+225434910+226042504
2615+226390277+226575493+226878689+227342494+227781595+228145900+228548558
2602+229065568+229682288+230354943+231075344+231868403+232543941+232966987
2588+233402576+233827570+233970749+234041135+234348111+234738207+234941197
2575+235082925+235328945+235565343+235791967+236062270+236170609+235999500
2561+235813940+235803918+235789428+235661350+235690272+236014105+236292846
2548+236370735+236373675+236284140+236224597+236396507+236678780+236811574
2534+236837709+236967162+237071434+236999749+236970846+237125709+237331772
2521+237485298+237588864+237688345+237847274+237985680+237930089+237845327
2507+238050779+238370908+238524549+238699533+239011434+239240272+239390897
2494+239666717+240027566+240415868+240923008+241511760+242074893+242562981
2480+242855906+242778170+242431314+242168399+242077623+241963080+241777863
2467+241740904+241905942+242044711+242091082+242091063+242100742+242181705
2453+242194877+242195641+242450366+242778399+242916882+243071820+243420891
2440+243806863+244091427+244295429+244434942+244432155+244251501+244063975
2426+244039787+244136042+244252570+244394738+244638218+244888056+244936661
2413+244885193+245027303+245385117+245683177+245794571+245917552+246140739
2399+246350143+246553992+246800069+247028870+247235028+247437655+247495213
2386+247078104+245803390+243491469+240205853+236138327+231695481+227320158
2372+222964460+218443304+214178745+210610494+207799602+205968037+205651401
2359+207373196+211032566+216157460+222664013+229149948+232429607+231060377
2345+227153784+224482311+224052716+224958085+226514842+228100312+229527826
2332+231062820+233219879+235950361+238651272+241114811+243576975+246368871
2318+249503137+252527633+255071390+257289062+259624026+262160509+264573897
2305+266693654+268611280+270402583+272053457+273568673+275067414+276602790
2291+277935081+278944245+279953333+281150558+282247328+283070646+283872773
2278+284717244+285374684+285903167+286512384+287148042+287653235+288126031
2264+288733531+289297313+289670093+290069525+290544631+290897959+291172786
2251+291489918+291744643+291827974+291885913+292147129+292539650+292787331
2237+292850272+292978122+293293898+293666336+293952789+294085697+294183708
2224+294384121+294585870+294738021+294949869+295267421+295641023+296017908
2210+296411536+296852604+297273760+297647687+298143659+298831950+299513234
2197+300030855+300508595+301140569+301857056+302525626+303211262+303967935
2183+304851942+305916717+306929183+307727893+308560623+309554419+310567745
2170+311568548+312549057+313470271+314404295+315321404+316225971+317377933
2156+318693156+319780000+320712153+321794739+323049179+324333514+325545076
2143+326718343+327920512+329115007+330318246+331634921+333015587+334277395
2129+335489301+336941900+338577425+340103064+341555053+343091689+344692011
2116+346298480+347913234+349618668+351449298+353372021+355530780+358006250
2102+360553730+363041113+365534949+368078687+370799471+373733000+376824751
2089+380222562+384016043+388070683+392306187+396703044+401192986+405777503
2075+410573811+415729937+421297617+427066740+432788404+438635150+444901314
2062+451576131+458589805+465725276+472713102+479630788+486743275+494371511
2048+502279539+509717633+516732109+523914085+531471763+539252418+546825140
2035+553973707+561050036+568205285+575136221+581836886+588508114+594952699
2021+600766761+606035407+611367089+616879292+621927938+626264622+630470803
2008+634866934+638855521+642135849+645322442+648511478+651142537+653226689
1994+655013488+656763097+658996920+661607208+663854088+665454792+666698349
1981+667628288+668168627+668527987+668678191+668692700+668657574+668216811
1967+667801630+668163892+668816865+668969131+668562579+668240102+668412298
1954+668466515+668162670+668263087+668798614+668620156+667467927+667415543
1940+669737411+672691481+674996626+677033510+679500695+682753494+686538156
1927+690088538+692966857+696506778+701522856+706936170+713175188+720524130
1913+727358543+733244157+739375275+746696956+754753317+762717890+770008110
1900+776190696+781933283+788303262+794735629+799693825+803933299+809470701
1886+815581431+820906394+825428866+828638521+830265646+831417569+832929158
1873+833350066+830741077+827629395+828443950+830831948+830756884+828692051
1859+826505268+824412868+821786239+818180112+813378535+807807228+801553931
1846+793735819+786908431+784862536+784086391+781043741+776798463+772201384
1832+765638285+757874467+753354820+751533277+749714254+748565080+747203161
1819+744434116+741323656+738707335+735884913+732845317+731236978+730890675
1805+729659335+726500538+722716029+721118915+721557921+720424706+716897156
1792+715954389+720174238+724103377+724743826+723819081+722836147+722649976
1778+723602747+723011933+718604767+713853207+715182673+720761081+725648947
1765+727606109+727006361+727455752+729553039+731354499+733049663+732641965
1751+729247056+727721722+730617604+734400127+736581947+737359238+738761171
1738+740497875+738693896+736473513+741575498+749232638+755464325+759705403
1724+761895928+762729268+760165332+754110806+753538318+762808227+773464414
1711+780008804+781548113+780747074+781806370+782553573+779448840+779226016
1697+786217354+797783701+810189269+817145786+819148002+818401333+814494110
1684+815695363+828165686+839618789+845082807+847487070+850823257+853435301
1670+854670535+861562831+872308133+878766616+882493090+888682396+894472328
1657+893962534+885532456+882375645+894047067+900394061+901431899+909243825
1643+919766073+924891348+923506368+916991072+914543282+923468187+931989135
1630+934630884+935597476+936457238+935561815+937046372+940875018+940884029
1616+939948440+944525740+949653078+951794655+953264856+954768503+953660564
1603+950924050+951376648+956431976+962069031+965125350+967195758+969692495
1589+971506707+972280180+973617129+976702084+979849121+979601937+974837090
1576+972417403+977322068+980328599+978220316+978656497+983920370+989051907
1562+988701023+978023913+970117527+983048848+999171345+1010778165+1018579170
1549+1024025855+1025852208+1022345811+1015024359+1007995909+1014661791
1537+1030913569+1040563074+1045068747+1050269163+1052712752+1050438992
1526+1047324332+1044251290+1042556890+1045455369+1049360453+1054626159
1514+1060951313+1062297044+1056104454+1044133769+1040938012+1055339000
1503+1067373295+1069960216+1066653047+1065457445+1069869040+1072321410
1491+1068685961+1064981174+1067115725+1071660114+1073741823+1072214580
1479+1069043030+1064321252+1057089908+1050302075+1050499242+1055773806
1468+1057171615+1052443346+1046921675+1043893839+1038200428+1026925631
1456+1021040018+1024726172+1026167737+1021327139+1013651902+1007078723
1445+1000022019+992350905+985988104+976592046+962092245+952805308+949531662
1431+944144006+937889334+933947366+931471018+932219672+936065576+940441357
1418+947331897+955860635+962025199+966158836+969879506+971587269+971631178
1404+975019520+980644051+983741301+986032547+990602365+998580989+1007786448
1391+1012594210+1012099459+1010278451+1010031954+1010592223+1012154822
1379+1015679165+1018383912+1019280404+1022190643+1026723348+1030139486
1368+1032810558+1032847364+1029002759+1026986416+1029181981+1030148344
1356+1028363149+1026847436+1026297782+1025325157+1022961901+1019267499
1344+1015325379+1010655603+1004684006+999874106+997315210+995257402+993428146
1331+992630925+992580068+993068710+994723554+997611800+1001305820+1005414563
1317+1009661750+1012911571+1013567827+1012805275+1013905348+1017873737
1306+1022144444+1024841937+1026685167+1027173121+1025927120+1024587269
1294+1023730257+1023380365+1024348256+1027281937+1032433787+1037774175
1283+1041205203+1044299322+1047176648+1047871009+1046838135+1044929004
1271+1042569566+1039523403+1034586284+1028391861+1022162312+1016146425
1260+1011552401+1009035045+1006924013+1003590500+999152789+994946379+991632490
1246+988699190+987043582+987845461+989346131+989209824+987849890+986918119
1233+987217688+988418254+989274350+989490455+989723512+990032703+990555936
1219+990921864+990448648+989702284+989608358+990366940+991518100+992388705
1205+992591981+992736534+993346821+993880440+994087686+993761620+992808467
1192+991672809+990373965+988866729+987655396+987402255+987178591+985166142
1178+982015974+979040217+976118066+973959613+973204620+973007224+972730487
1165+971257919+967996186+965149710+963627048+961939826+959993431+958022524
1151+955473173+952534146+949723484+947387107+945733026+944596681+943838405
1138+942896248+940661662+937439561+934372704+931070040+927039110+923577537
1124+922336041+922301602+920337262+916255017+912243101+908298614+903784923
1111+900026224+897976053+896111518+892651548+888246291+885618135+885460905
1097+884808085+882668341+881763602+882718434+883226014+883983832+887068252
1084+890013846+890367098+889932444+890990900+892721878+893444875+894462324
1070+896266609+897584620+899062610+901288720+903387458+905052153+906889350
1057+908191248+908567179+910299837+913434809+914649731+913473372+912442483
1043+912172390+911500632+910607042+911080793+912815130+913609449+913032610
1030+912369099+911445804+909712077+907168606+903451831+900985027+902063490
1016+902344198+898957077+895309791+892733332+889961691+887040685+884380839
1003+881885858+880417871+880364342+880761119+882146405+885725805+891819888
989+899696340+907417318+913588984+917464899+919565393+921457571+922456693
976+920994511+917977060+915430458+913506666+910623307+907258485+906215607
962+907412507+907821503+906223243+903795537+902159783+901519792+900963722
949+900506084+900366876+899770716+897486037+893755974+890423911+887795678
935+885231589+883010214+880599766+877660586+875493734+873142161+867860037
922+861397507+857391625+855323203+853084569+850510401+847931498+844410439
908+839784648+836296500+834678768+832439142+828392329+824236624+821316153
895+819674367+819031550+818373003+816710980+815183049+815608539+817587541
881+819767757+821810369+823727059+825794565+828504124+832019761+836806676
868+843067610+849574964+855739529+863062279+872307904+882996622+895138053
854+908532206+923377392+939412454+954316439+968013215+981243876+991543299
841+999286881+1007470308+1015775610+1022405679+1026697079+1029387242+1030308704
827+1027938270+1024882943+1025937658+1030005241+1032498924+1032529087
816+1031531110+1030166060+1029820903+1031035519+1031275984+1029044452
804+1024735106+1018686765+1014000953+1012769537+1012200792+1010566794
793+1008417810+1005450453+1002120604+999127360+994480264+985581552+972967439
779+960945438+953916378+950807139+947077000+941021557+933590144+925450701
766+918210957+914951744+915089348+915315762+916191407+918370478+918400259
752+914948002+911329428+908935627+906435148+904331294+903623188+904853229
739+906650260+904789238+899758346+895863494+893401501+890957301+888593663
725+886271260+883185389+879600644+878525999+881166144+883598508+883919611
712+885257324+889337048+894630321+899580880+904177806+908607346+911443818
698+912380248+913427708+914548170+914802226+915353790+916776952+918395906
685+920536796+924261971+926534967+923709262+919970876+918142384+914640491
671+907050016+898224612+900283183+910830554+915632741+916602617+918530533
658+919807537+918886915+919429010+922545503+922162699+916037384+911246575
644+911696348+914311829+917916810+922790091+925791276+924947322+924816819
631+928674177+930075194+927221921+925407327+923276594+922200117+922562760
617+916318626+909142416+912584440+923547680+936083521+945734401+946580952
604+943702633+945835428+947624899
##END=
