##TITLE=Sample description
##JCAMP-DX=4.24
##DATA TYPE=INFRARED SPECTRUM
##DATE=13/9/2023
##SAMPLING PROCEDURE=Instrument type and / or accessory
##ORIGIN=Default
##XUNITS=1/CM
##YUNITS=ABSORBANCE
##RESOLUTION=4
##FIRSTX=4397.6552
##LASTX=599.8556
##DELTAX=-1.9287962
##MAXY=1.6892815
##MINY=0.29953471
##XFACTOR=1
##YFACTOR=1.573266e-009
##NPOINTS=1970
##FIRSTY=0.33258009
##XYDATA=(X++(Y..Y))
4398+211394702+210847288+209784057+208421149+207764074+209215674+210561894
4384+209474586+207655702+206849830+206674797+206415468+206532990+207245871
4371+207456895+207465647+207946590+208335981+208736246+208550946+207279324
4357+207050398+208454489+209033537+208024711+207098494+207226757+207825715
4344+208431530+209072067+209069737+208413648+208594742+209896370+210815313
4330+210627891+209822190+208546930+206772486+205162656+204799784+205767031
4317+206153108+205392813+205384080+205822193+205757181+206280007+206759908
4303+206211812+205915923+206147103+205977488+205642519+205867656+206531986
4290+206631475+205796374+205203781+205712172+206500332+206231967+204878777
4276+203749264+203835095+205079572+206230168+205910827+204903516+205089044
4263+206159075+206101015+204967657+204623710+205035397+204677981+203533353
4249+203090296+203814485+204388476+204442274+204976030+205544054+205399879
4236+204857996+204036383+203713841+204494841+205391051+205789232+206041969
4222+206047501+205464436+204978549+205254908+205166804+204040020+203808575
4209+205087490+205569058+204984554+204856121+204717136+203600126+202545250
4195+203106586+204481978+205054662+204727271+204141820+203858982+203401187
4182+202349493+201640230+201858245+202544757+203060688+203225359+203030739
4168+202590694+202492929+202868436+202936952+202302060+202029054+202880275
4155+203524374+202716267+201259098+200651105+200968380+201106115+201230551
4141+202168701+203035948+202743904+201883742+201216325+200793291+200787702
4128+200876696+200848623+201884311+203709541+204116038+203037729+202032975
4114+201229149+200268551+199391625+198753455+198529170+198801854+199545972
4101+200671203+201557526+201844871+201746046+201444152+201050195+200649873
4087+200589445+201084349+201646879+201832009+201937105+202109334+202026042
4074+201889065+201779272+201607743+201933903+202674024+203007477+202716172
4060+202233088+201956048+201807819+201574555+201270975+200933866+200390771
4047+199950954+200389730+201435760+202072168+201955972+201617537+201715775
4033+202015983+201890069+201709221+202118673+202557146+202308500+201665557
4020+201203103+201118143+201247922+201625209+202034263+202017726+202243128
4006+203106378+203399956+202692095+202055991+201897590+201761011+201658643
3993+202232861+203576486+204324468+203680142+202767867+202461995+202654115
3979+203136687+203496111+203425018+203251690+203347749+203601869+204078436
3966+204947426+205643978+205727156+205349528+204840341+204489802+203908518
3952+203201453+203242521+203930605+203998497+203004863+203035418+204764778
3939+205609805+204565138+202557203+201280276+202615206+205149547+205817230
3925+205020868+204857883+204419239+203024336+202875350+204862239+206858601
3912+207455115+206734467+203950344+199107045+195617353+195933283+199197611
3898+204015849+206899783+205261519+202086470+202216324+202960328+201898802
3885+201860083+201924811+202022784+204714087+205694593+203109561+200208389
3871+198267663+199159914+201240932+201429755+202784651+206167258+207482487
3858+204417212+196391173+190390382+197195339+206504992+210327077+208256838
3844+203396130+199322672+196729418+196781246+199952090+202945003+205291373
3831+207836077+208811166+207944127+205301451+199431500+196355048+199767093
3817+202925245+206745341+211578562+213017773+210122701+206168395+204471882
3804+202698782+202259419+205914161+208921868+211353387+214703015+216791648
3790+217348665+217020422+216207068+216150011+215955600+215204814+217011462
3777+220644931+221818864+219675013+217356186+218073348+220534455+223139170
3763+224640495+223858018+224097135+227423065+229896164+229787469+234945638
3750+254456817+277888696+302917525+333320719+353250574+357874893+352492477
3736+343667631+340841644+346420461+354064364+358014617+358873832+360358430
3723+364099173+369961035+376420132+381735414+386049713+393282819+409814193
3709+433749917+460139211+488623444+517705215+541768123+555801753+558916772
3696+552967772+540067196+521442813+503523185+495196615+492789305+487818141
3682+478741240+468392471+456867685+442698006+434287708+431068351+424625394
3669+421367242+423079194+421935910+416899998+410494207+402539715+393597461
3655+387774053+381970042+370424153+360490462+362253825+367651661+369538645
3642+368517165+366920083+365370473+363207565+360025147+355000829+347755978
3628+344858651+346757987+344970074+337013877+326170166+318943804+315661651
3615+312186753+309736102+309367472+309598727+311070823+313023104+313120566
3601+311450611+308801456+305444706+302693316+301163558+298312982+291960080
3588+286130458+285132543+285118355+283205589+280501859+278339842+276402374
3574+274192943+271407683+266540799+260563403+258967212+261455163+262633491
3561+261801610+260714606+259566700+257634537+255377956+253810539+251952595
3547+249480462+248404748+248731514+248531988+247555762+246665708+245963132
3534+244979253+243474746+241787042+240672835+240073935+239352568+238750901
3520+238513754+238212428+237677687+236718908+235310650+234283335+234136243
3507+233921468+232993850+232576745+232991899+232762954+231785175+231123762
3493+230942876+230512189+229721756+229286901+229168185+228816737+228441723
3480+228306489+227986713+227254264+226618652+226646706+226931533+226673927
3466+225966351+225110621+224445534+224462904+224767526+224819089+224894728
3453+225199577+225046821+224154001+223777681+224243147+224362545+224146102
3439+224046311+223772433+223502875+223658416+224048982+224189993+223949398
3426+223571941+222972604+222104032+221785487+222495223+223489804+224205867
3412+224666882+224640608+224170482+223937938+224288023+224760612+224752448
3399+224473626+224544454+224941498+225476069+226107362+226566540+226689423
3385+226543259+226489555+226847653+227259113+227409843+227561973+227909956
3372+228305182+228457748+228187167+227778529+227739223+228089043+228563810
3358+229048011+229511792+229965968+230336947+230487961+230333178+230084665
3345+230089647+230105900+229952292+230103892+230504877+230352253+229444563
3331+228418953+227687679+227292434+227282565+227350570+226987282+226102551
3318+224982946+223848092+222601247+221230155+220241825+220030080+219835214
3304+218506838+216451621+215019988+214263444+213508017+212965926+213069677
3291+213680929+214207732+214285417+214369733+214769846+215100704+215164920
3277+215137264+214981931+214766152+214974449+215498222+215804264+216037736
3264+216471057+216736997+216561187+216516046+216971757+217523869+218062758
3250+218489051+218325194+217845217+217746752+218088445+218678859+219176832
3237+219328849+219512066+219889902+220277191+220869386+221731196+222393878
3223+222612328+222788896+223299200+224128410+225098914+225863377+226282187
3210+226736401+227460648+228134809+228663772+229582146+231124577+232833062
3196+234394568+235797939+236881117+237736884+238692292+239476360+239698845
3183+239722903+240191836+241127467+241884598+242463779+243547582+244824091
3169+245606891+246200904+247048715+247976637+248635132+249239962+250404651
3156+251919312+252954924+253295613+253199913+252944202+253028706+253738821
3142+254419897+254720256+255105215+255034293+254159279+253701220+254084000
3129+254568978+254690175+254569489+254642098+254709800+254311960+253671706
3115+253056496+252365210+251592868+250959150+250511698+249839829+248601679
3102+247231098+246488686+246465499+246595524+246525624+246382832+246293100
3088+246352031+246642351+247107628+247705980+248256178+248438106+248196773
3075+247857997+247858470+248262353+248697284+248937045+249154984+249350343
3061+249333010+249318992+249530263+249722231+249530680+248936874+248432291
3047+248216663+247787264+246998062+246138676+245120359+243913674+242860388
3034+242039968+241238605+240265240+239093257+238030822+237324250+236977612
3020+237132206+237585625+237502579+236399473+234716447+233175172+231975684
3007+230936208+230189325+230027192+230202869+230325923+230674909+231753389
2993+233806465+236779582+239956886+242472266+244174518+245312896+246125701
2980+246837009+247418918+247619296+247293155+246413766+245113161+243795110
2966+242678763+241573895+240560409+239941675+239546411+239172628+238974466
2953+238932697+238967533+239214814+239534458+239552264+239206119+238757380
2939+238404946+237926124+237162401+236433040+236036715+235996954+235957174
2926+235528816+234850677+234266760+233857649+233458805+233098472+232943765
2912+232897923+232960453+233224992+233486746+233803586+234545790+235378239
2899+235606880+235317356+235227547+235762705+236689509+237675945+238390568
2885+238526616+238460884+238688029+238974144+238949348+238771814+238876853
2872+239277042+239403467+239077762+238808222+238645862+238359180+238200608
2858+238172440+237939100+237433967+236871020+236588562+236451926+236082178
2845+235769922+235913112+236373010+236848194+237329876+237955619+238607351
2831+239181247+239704926+240133416+240391476+240425762+240420326+240745273
2818+241484826+242134797+242189883+241996475+242160767+242640953+243141824
2804+243644627+244219489+244905887+245626288+246140457+246451576+246808651
2791+247301225+247701073+247809730+247788703+247784991+247756803+247538770
2777+247080047+246668473+246480351+246465613+246375804+246022367+245841234
2764+246082870+246221950+245998158+245779916+245798953+245948830+246171183
2750+246382056+246349966+246076676+245747883+245498954+245481261+245578741
2737+245581583+245505621+245272471+244998973+244949968+244910907+244723220
2723+244618617+244655291+244719829+244735628+244694825+244729888+244845194
2710+244867035+244801038+244788384+244785372+244628808+244370616+244081224
2696+243734776+243548889+243630192+243657641+243475523+243347753+243273060
2683+242936141+242452356+242053796+241643947+241143208+240552983+239946524
2669+239508014+239286172+239076512+238774807+238528738+238361756+238166548
2656+237965317+237765431+237495058+237301063+237374638+237527356+237517222
2642+237429535+237405799+237329516+237096271+236912051+236901443+236906349
2629+236929402+237171986+237500268+237587121+237617657+238020934+238732659
2615+239300815+239524304+239738682+240211802+240675828+240935214+241190016
2602+241632789+242273933+242971943+243592136+244178610+244832976+245495373
2588+245975142+246232766+246368227+246442143+246618596+247028409+247467677
2575+247837425+248249548+248523331+248570612+248587225+248532385+248336023
2561+248169968+248135928+248103782+247998686+248002778+248236780+248538807
2548+248778606+248981675+249021341+248823444+248680084+248766634+248902834
2534+249028634+249282337+249588209+249759132+249770535+249679514+249680045
2521+249902303+250176521+250357426+250395426+250289724+250290539+250629087
2507+251117286+251422760+251498929+251591996+251944847+252429825+252744316
2494+252901637+253020656+253214310+253735487+254491047+255100877+255553235
2480+255915501+255967556+255711049+255468125+255310046+255159828+255102544
2467+255088489+255041889+255166477+255473656+255587579+255412376+255167159
2453+254923496+254875210+255175835+255477786+255604457+255813739+256157516
2440+256569810+257043516+257345884+257327509+257167138+257028495+257016939
2426+257129839+257175833+257173655+257362592+257633514+257720140+257777992
2413+257958992+258083561+258141507+258335180+258655582+258931012+259215744
2399+259681798+260416577+261774806+264756694+271389138+284457643+305954934
2386+336053393+373368307+415468251+460036805+506040781+553677641+604103852
2372+657542449+711079133+759891593+800345280+830095813+846593772+850296743
2359+843123269+819947309+780096463+732437933+688213610+664529524+672765546
2345+706649738+733194969+731158146+717317961+706010375+699682439+698999962
2332+702413939+703552032+699498389+692538365+682822594+668775249+650954086
2318+629790323+608390910+595691660+593817670+590474654+574019430+546108108
2305+516748216+494920806+480462171+467557049+453602600+438182988+420710527
2291+402620753+386295024+372203958+360073262+350646371+344244975+339857860
2278+336231760+332932502+330238622+328226766+326617675+325173046+323758878
2264+322396689+321202639+320092278+318890839+317657860+316554319+315575498
2251+314606130+313615621+312651083+311823446+311183420+310593290+310039019
2237+309626460+309295886+309013371+308903293+308947317+308963740+308921460
2224+308879331+308825021+308779501+308835932+309024036+309321005+309744096
2210+310221913+310624338+310949266+311332482+311812668+312234660+312665423
2197+313365119+314269475+315097302+315756726+316394744+317157842+318018250
2183+318914404+319835070+320782597+321788507+322729820+323496404+324284280
2170+325234762+326317163+327460447+328518374+329461620+330355197+331203463
2156+332117575+333268815+334570916+335791753+336887490+337953259+339027742
2143+340173602+341554998+343109306+344555223+345894074+347307371+348840879
2129+350467285+352083498+353582152+355031100+356682623+358630945+360575137
2116+362410824+364393205+366463634+368447758+370560921+373024075+375742997
2102+378624979+381645056+384688357+387915936+391672780+395888461+400357296
2089+405081672+410032870+415288861+421111929+427532457+434363859+441370483
2075+448363013+455504890+462952885+470456838+477752190+484956806+492467199
2062+500356376+508202514+515635090+522947946+530657543+538439844+545824986
2048+552896395+559750755+566535595+573232805+579698304+586258291+593113939
2035+599873395+606121164+611830346+617444132+623345093+629143004+634253475
2021+638745648+643159359+647852062+652601215+657046144+661170330+665134335
2008+668891407+672182330+675181760+678254308+681117121+683402400+685160232
1994+686380007+687421340+689091503+691467784+693813227+695308130+696076229
1981+697004965+698164047+699042243+699601894+700231861+700758930+700459858
1967+699915362+700353929+701431557+702109412+702142600+702088650+702513276
1954+703380258+704421136+705373512+706005752+706471749+707089972+708318158
1940+710572598+713410482+716057572+718220858+720469161+723675978+727464040
1927+730530073+732891503+736202506+740982347+745944343+750916568+756681821
1913+762930651+768992779+774931701+781371628+788298918+794944641+801228023
1900+807562853+813369327+818360647+823325219+828022392+832532409+837831590
1886+843089627+847599038+851494696+854635061+857708747+860752578+862446079
1873+861782848+858846688+856425626+857849606+860847444+861878472+861098931
1859+859398232+856676128+853641465+851010514+848121863+843830069+837927669
1846+831322560+826391251+824705403+823115103+819100786+813995733+809417673
1832+804238136+797750473+792362488+788597535+785808752+784757948+783498468
1819+780298471+776902906+774325223+771136289+767562964+765239495+763640103
1805+761637377+758811693+755638443+753860835+753555323+752147254+748338279
1792+746124831+748956274+752181655+752425489+751130017+750103915+750214087
1778+751062504+750025491+745867358+742274560+744173554+749033410+752800938
1765+753893265+752566121+751913119+752984609+754418289+755750434+754765324
1751+751414237+750962486+754856856+758644161+760348346+760617488+761163575
1738+762194224+761085530+760130578+764738871+771178039+776690518+780697561
1724+782633532+783027470+780913132+776332723+776536853+784337414+792323086
1711+797775099+800526603+800656172+800910463+801353046+799752669+800783166
1697+806845445+815465176+824859599+830897631+833684596+834275768+831627239
1684+832643112+843574112+854279918+859547048+861650020+865154393+868728476
1670+871395948+878854930+888280419+892954255+895731597+901669155+907820997
1657+908982428+903550950+901296358+909887675+913909115+913531619+919977228
1643+930565361+937001877+936727280+930169377+926394044+934381307+943387248
1630+946776902+947554170+948876692+950714311+953745791+956263387+954601407
1616+952691653+956556321+960520932+961412313+961809888+963306912+966026743
1603+969358886+972059623+973034807+972402187+972870685+975489588+977364259
1589+978265111+980743912+984056960+986250025+987790619+988026269+985229757
1576+984003162+988225777+990029905+987851312+989607704+995058201+998926885
1562+998265018+988704806+981677118+993765457+1007505093+1017148351+1024454046
1549+1029263589+1031119697+1029704278+1024658554+1019013778+1025559861
1537+1039361857+1045519684+1046857739+1051709563+1056925925+1057318954
1526+1054370671+1050762642+1048297481+1048803334+1050730288+1055334034
1514+1061625145+1063597941+1058992073+1049047546+1046078350+1059658410
1503+1071793198+1073741823+1068448173+1065971722+1070671244+1073440175
1491+1069148533+1065380853+1068577516+1072390432+1072634796+1071089126
1479+1069265146+1065268635+1057808743+1050700888+1051024661+1056630112
1468+1057556650+1051476110+1046611860+1045772156+1039180913+1023792482
1456+1016595519+1022202485+1024935879+1021335958+1013615866+1004706460
1445+997481461+991741364+986033621+978142133+967874364+961236976+957298810
1431+950468810+943107725+938767968+935790816+934414874+935075832+935744292
1418+940812368+951963258+961309793+965365709+967542711+969424202+970402417
1404+974161004+980845597+985116706+987770615+992550001+999236034+1004775412
1391+1006916800+1007455690+1008529453+1009875085+1010133316+1010247883
1379+1013624959+1019206011+1023385057+1027102121+1031552809+1034588836
1368+1034521929+1031894691+1029227370+1029754364+1032209144+1032297494
1356+1030322577+1029640782+1030291889+1029830135+1028050103+1025543949
1344+1021262308+1013722174+1004248570+998271534+998234558+1000213188+1000497863
1331+999000460+997324386+996273658+996337306+998002241+1001078730+1004876567
1317+1008377303+1011153508+1013233143+1014875498+1016960512+1019779528
1306+1023289811+1026855105+1028646730+1028710606+1028791834+1028605814
1294+1027614187+1027409224+1028805700+1031329585+1035694195+1042269374
1283+1049091949+1054053717+1056650874+1056649737+1054291944+1051563551
1271+1049998028+1047900285+1043017773+1036577771+1030767812+1026168991
1260+1022931107+1020302733+1017225486+1014049130+1011570178+1009835684
1248+1008409203+1006403219+1003529874+1001475017+1001209664+1000829592
1236+999123437+998206067+999399398+1000392995+999622622+998446491+997663313
1223+996802242+996519916+997690137+999553897+1001569959+1003425764+1003847737
1209+1002645465+1001037738+1000136431+1000471267+1002049747+1003861527
1198+1003832886+1001337718+998262214+996948254+997869261+998707601+997703624
1184+995937837+994031189+991883209+989990806+987800772+985238850+983027524
1171+980687613+978616995+977720008+977175284+975939976+973919671+971914823
1157+970530698+968965024+966448262+963566128+961068687+959401252+958921388
1144+958196403+955782236+953397923+952066763+950030242+946619524+943008388
1130+939963345+937432716+935367099+933661020+931589645+928577713+925755060
1117+924393061+922653793+918268194+912520292+907077599+902383608+900076052
1103+900803462+901346216+898259043+893903828+892759445+893557854+893100495
1090+891770774+890705649+890122964+890649275+893342737+897117919+899814260
1076+901716134+903235284+904130680+904908251+906282904+908866649+910620767
1063+909588451+909147535+911771515+914757153+915937906+915983748+916163252
1049+917353400+919359991+921039095+922366163+924094898+925420754+925049472
1036+922818370+920068836+917779011+914904378+911981857+911786820+914674941
1022+916892480+915870924+913519723+911401142+909606258+907830393+905465705
1009+903095561+900995619+898893329+897068364+895144289+892630330+890813851
995+891423663+894525612+899051238+904180235+910997278+920171507+927887129
982+930388282+929789533+929327021+928831246+928219615+927574191+925721114
968+923121685+920787608+918372608+915304832+912847627+913362496+916094072
955+917978670+916980224+914236752+912589169+911096387+908601599+907237933
941+906233652+903689157+901341518+899684993+897341446+895263478+893964976
928+891659693+887727512+883400408+879766314+876710965+873899526+871840729
914+869840503+866393263+861910599+857188042+853356259+851854234+851304433
901+850053591+848438969+845910007+842218326+839412040+839116832+840599385
887+842331454+843533877+844230903+845112357+847164107+850380092+853161298
874+854484123+855431044+858021760+862707416+867601369+872652549+879860347
860+888860756+898880221+910628723+923312933+935155090+946775008+960335291
847+975401920+987922462+996079151+1003435159+1011747711+1019010065+1024231807
833+1027104546+1027511138+1026701061+1027571679+1030969820+1032582094
822+1031267982+1031718825+1033805127+1033294273+1031989785+1032398498
810+1030534208+1026661129+1026079504+1027913107+1026615666+1020216126
799+1013501072+1010277358+1008587418+1006935061+1005326728+1002629401+997079567
785+989048583+982590623+979517999+975291975+966536385+957671001+952450320
772+947533408+940268629+933292996+929500690+928009500+925848487+922186660
758+919469936+920510283+924479592+927036438+925003933+919633224+916013905
745+917563212+920487779+919113656+914872933+912324876+911518967+909375154
731+905439109+902485597+901201567+899604524+898155690+898307688+897831917
718+896332922+897369557+900541140+903327953+906656080+911922528+917635802
704+921417803+924509219+929328082+933215406+933123116+931895536+932602260
691+934801993+937313072+938857985+939537734+939937582+938927013+937683369
677+939507425+944449872+949791031+953528023+953647440+947226684+940351448
664+939221311+942393803+943989407+941865446+939457643+937722771+936666359
650+935646470+933454011+930662424+926999613+923845457+924467999+928259093
637+932152554+934812374+934081251+928739410+924513083+925474098+929523346
623+934871324+936723264+930287960+920960671+914728133+910096274+908260928
609+913894566+926314862+943078780+960185642+969612949+971547860
##END=
