##TITLE=Sample description
##JCAMP-DX=4.24
##DATA TYPE=INFRARED SPECTRUM
##DATE=13/9/2023
##SAMPLING PROCEDURE=Instrument type and / or accessory
##ORIGIN=Default
##XUNITS=1/CM
##YUNITS=ABSORBANCE
##RESOLUTION=4
##FIRSTX=4397.6552
##LASTX=599.8556
##DELTAX=-1.9287962
##MAXY=1.8500259
##MINY=0.47470459
##XFACTOR=1
##YFACTOR=1.7229709e-009
##NPOINTS=1970
##FIRSTY=0.48944363
##XYDATA=(X++(Y..Y))
4398+284069589+283565519+284466159+285653827+285430331+284537388+284692923
4384+285247917+285419884+285746885+286612983+286825028+285284725+283963645
4371+284504852+285992572+287302409+287378827+286619210+286850299+287926556
4357+288012384+286645138+285204691+284809142+285355210+286262354+286839211
4344+286478689+284903480+282135346+279251443+278440124+280178288+282473365
4330+283846008+284341914+284567693+284289383+282749686+281475585+282200487
4317+283328082+283406161+283085543+282305584+281312612+281047379+280883022
4303+280410674+280544328+281479476+282248503+282352303+282624092+283511880
4290+284404305+284666372+284411639+284493627+284709027+284026312+282614198
4276+281545551+280913966+279760218+278733119+279087501+279720573+279378109
4263+278770567+279172620+280875463+282330543+282310583+282167813+282323140
4249+281538321+280684504+280397182+279894738+279857791+280649287+281403629
4236+281599622+281126409+280460074+279852118+279592402+280585374+281852539
4222+281340754+279775682+279341803+279957387+279714398+278404268+277798698
4209+278195976+278639456+279622015+281640789+283361655+283430117+282304511
4195+281443568+281516181+281847091+281406639+280464606+280175417+280808610
4182+281948348+282763748+282527142+281715270+280662433+279314525+278612524
4168+279176823+279848243+279592039+279299823+279641561+280020868+280268873
4155+280300008+279924973+279397067+279121438+279613141+280599714+281047033
4141+280688776+280089139+279700924+279938309+281053225+281947466+281542023
4128+280578110+280009884+279911862+279795228+279449840+279463747+279666728
4114+279348462+279052994+278933592+278398144+278334612+279153835+279704245
4101+279865384+279805900+279036285+278121063+278150969+278975814+279749702
4087+279805796+279059722+278540776+278812893+279286833+279636769+279709123
4074+279482549+279047165+278201702+277325796+277157565+277786019+278961734
4060+280072361+280224246+279554591+279068561+278752942+277723248+276626788
4047+277204872+279112288+280473843+280804874+280654701+280346813+280146150
4033+280074610+279755012+279487945+280101022+281348417+282124587+281911764
4020+281256085+281030877+281541798+282236932+282140777+281451697+281567086
4006+282381276+282493257+282282112+282543730+282243107+281147114+280511983
3993+280840558+281777401+282464284+282489711+282887353+283931230+284106813
3979+283432850+283498769+284068655+284387354+284753290+284753913+284305711
3966+284271446+284628059+285075828+285429276+285461535+285201768+284340496
3952+283079869+282402292+283066862+284652223+285780943+286261991+286563444
3939+286395974+285608318+284203088+282878877+283530112+285642774+286162325
3925+285229547+284967255+284193782+282731282+283535058+286554450+288733740
3912+289341472+288955904+286623759+282175199+278875076+279330508+282167069
3898+285492255+287218968+286073886+284737100+286426244+287646620+285904461
3885+284275355+283606962+284214002+287373102+288630996+286623292+284448983
3871+282683473+282972558+284570789+284235555+284312111+286685198+288376106
3858+286492077+279887905+275515158+282202770+289809358+292276229+290171143
3844+286313363+283545575+282174870+282410369+284644042+287069366+289204566
3831+291618215+293224765+293167788+290618549+284842647+281698838+284723228
3817+287708803+290449487+294178248+295896641+293800100+290509750+289611358
3804+288492671+287811254+290653073+292825065+294209486+297120166+299618103
3790+300683912+300777420+300236472+300143241+299889424+298993195+300129127
3777+303474239+305797406+305165925+302924711+302475092+303983153+306344893
3763+308279776+308100786+308234077+310663656+311952114+310040927+309061914
3750+314967509+323276011+334378576+354399537+373984162+386434583+392941873
3736+394688876+395726561+398931532+402504135+404034025+404697851+407513016
3723+413448881+421869641+431398589+440021828+445261590+448387860+456402520
3709+470545907+485416946+498775946+511847158+526237270+539192384+547395893
3696+551517124+552398409+549648004+545338719+543640564+544616602+544781754
3682+541539179+534434863+524168438+513940413+510933078+509401527+502824391
3669+499377296+499811729+496687292+490188028+483613279+476528854+467903782
3655+460983645+454120485+441993519+429832513+427534738+429559082+428979665
3642+425543778+421090305+416411486+411433221+405803064+398664292+389782393
3628+385425957+386651903+386568289+382815554+376211262+371400328+370280205
3615+369014441+366331357+363000498+360143128+359996483+361068728+359337085
3601+355204403+352002891+349770672+347722251+346900952+345962310+342267936
3588+338353785+338464002+340028659+339992508+338658905+337226847+335788182
3574+334067644+331986670+328684662+324632723+323518482+325355879+326303204
3561+325817502+325314919+324789435+323442513+321879862+320993976+319510131
3547+317128707+316272572+317384773+318187322+317458666+315717579+314294170
3534+314009183+313777852+312336523+310549495+309633305+309275602+308963771
3520+308823146+308878704+308771289+308087467+306872003+305854071+305462224
3507+304904567+303810182+303375403+303878090+304182415+304082230+303856953
3493+303354128+302611704+301975380+301590451+301378631+301424607+301775426
3480+301993300+301603943+300837960+300283347+300148396+300188006+300026728
3466+299710088+299586068+299544659+299285895+298931479+298610653+298307090
3453+298010030+297340461+296332769+296030624+296524697+296795604+297013028
3439+297769255+298462348+298555890+298375932+298235065+298339712+298713467
3426+298700252+297829968+296623533+295788189+295675965+296288385+297095915
3412+297595592+297807724+297863005+297857989+298004875+298431490+298832678
3399+298930233+298931825+298990462+299252028+299898038+300568437+300720859
3385+300433244+300303239+300612510+301176775+301625287+301630373+301250322
3372+300914794+301024076+301277340+301181826+301016431+301106964+301122254
3358+300837856+300722900+300846851+300758913+300520974+300256191+300127189
3345+300249826+300018080+299080268+298071331+297576773+297397610+297293966
3331+297206513+296877730+296506466+296208715+295312727+293999777+293343665
3318+293403859+293134198+291615032+289302364+287679537+287244325+286956001
3304+285746452+283920333+282748371+282907279+283659545+283912636+283945656
3291+284783837+286386011+287752669+288208204+288104127+288107241+288154410
3277+288339108+289565608+291685500+293254620+293619172+293152429+292644829
3264+292804585+293159936+292963925+292687000+292845510+293417454+294483956
3250+295539803+295894669+295710802+295481719+295755532+296427107+296520131
3237+296259741+296616890+297202084+297776312+298700632+299445443+299875725
3223+300467492+300899261+300866050+300950253+301764978+302880708+303604071
3210+304144880+304787846+305305893+305711405+306411729+307230744+307692022
3196+308024541+308658097+309880618+311181945+311625614+311633882+311825050
3183+312035520+312261904+312660186+313548321+314787136+315350397+315043063
3169+315136329+316286894+317751090+318714743+318890758+318735673+319023150
3156+319696420+320248300+320528167+320873623+321728790+322661447+322977499
3142+322867317+322754471+322842167+322877833+322403133+322102406+322649547
3129+323133207+322866625+322450354+322534763+322867109+322666325+321848901
3115+320908840+320243111+320094529+320081833+319746478+319130149+318177739
3102+317253903+317025132+317082801+316694828+316157443+316018928+316157443
3088+316283884+316471073+316939893+317525675+317816611+318020820+318567788
3075+319266173+319789928+320006038+320057548+320282721+320435662+320041324
3061+319408805+319185327+319518365+320036273+320362634+320502325+320505127
3047+320305346+319967777+319529192+319179135+319031210+318444978+316971512
3034+315274601+314289153+314038450+313737654+313039649+312216344+311488241
3020+310898515+310367323+309901271+309621163+309376651+308880883+308263413
3007+307935910+307974379+308057716+307945043+307884746+308504741+310078773
2993+312293385+314838785+317409300+319727901+321827037+323402660+324080290
2980+324238177+324304944+324158161+323513223+322463396+321493930+321030819
2966+320913614+320533771+319910316+319409635+318802889+318048322+317779838
2953+318137368+318242672+317871408+317967718+318597711+318759889+318101459
2939+317224810+316643248+316211963+315579998+314655263+313828394+313504490
2926+313444019+313372825+313330205+313192658+312779432+312199081+311801180
2912+311742543+311886938+312125776+312475246+313054420+313786190+314201942
2899+313982027+313505562+313454121+313834068+314206612+314583515+314982350
2885+315232016+315621027+316235176+316633285+316935672+317293790+317233112
2872+316883850+316687459+316451804+316167164+316088462+316102335+315997445
2858+315764246+315497111+315200224+314722099+314012124+313198401+312543846
2845+312515583+313105966+313748309+314376711+315085821+315666864+316230679
2831+316840919+317298080+317627485+317916519+318200571+318376655+318242672
2818+318023311+318111976+318445740+318790435+319160143+319695037+320458079
2804+321353513+322155716+322653525+322804286+322869358+323131823+323621503
2791+324326081+324955244+325071411+324944589+325083139+325349133+325389677
2777+325202246+324961056+324691326+324354898+324071641+323997506+324110145
2764+324289480+324524167+324879656+325220616+325303503+325301185+325546423
2750+325906305+326131686+326184200+326048868+325774744+325490830+325305440
2737+325251681+325413201+325884546+326286841+326191638+325913985+325917860
2723+326209938+326482574+326430890+326214850+326164204+326368206+326819486
2710+327266650+327519014+327717030+327822127+327759927+327650471+327496424
2696+327308647+327219429+327342411+327650091+327804969+327614943+327365762
2683+327121908+326748361+326520904+326579957+326530902+326130994+325640208
2669+325408462+325446930+325444958+325214700+324899651+324644070+324420281
2656+324154045+323814227+323478145+323296076+323352222+323481154+323435975
2642+323253837+323065575+322959060+322984971+322970926+322835663+322789964
2629+322927718+323068516+323048417+322921941+322861020+322981892+323189734
2615+323348451+323553595+323918597+324380048+324827453+325199167+325447622
2602+325643079+325959995+326362913+326789285+327381779+328063144+328481560
2588+328625748+328837672+329195271+329580165+330013630+330504900+330944938
2575+331210586+331330800+331452018+331590706+331643254+331606861+331546875
2561+331458695+331424654+331561059+331731781+331760148+331742090+331881815
2548+332152722+332299228+332265222+332236267+332278195+332384295+332492678
2534+332514784+332637420+333073409+333688666+334168451+334322291+334205052
2521+334001293+333955559+334245700+334758212+335200325+335432001+335620885
2507+335922580+336215869+336467334+336823964+337252274+337596901+337864313
2494+338197627+338633271+339115029+339602287+339981922+340331427+340872859
2480+341398690+341599474+341569585+341513542+341474831+341387896+341275396
2467+341214372+341227864+341356346+341553118+341697894+341692740+341585256
2453+341623205+341873321+342235590+342606059+342769205+342723160+342734576
2440+343004825+343571200+344146673+344328880+344151654+343929699+343820070
2426+343865077+344004941+344075720+344092498+344211156+344389800+344410868
2413+344288266+344480956+345270497+346180426+346594344+346511076+346369241
2399+346447285+346731130+347165113+347581799+347801091+347937219+348056015
2386+347780265+346597908+344254122+340838403+336760588+332464830+328183221
2372+323838685+319090920+314102795+309792715+306884111+305398329+305234629
2359+306577158+309639567+314527957+321219565+328154784+331855939+330389252
2345+325924018+323062427+322858703+323624755+324829840+326180568+327187637
2332+328252997+330217250+332849205+335307635+337455238+339872017+343014131
2318+346600779+349761712+351954252+353701566+355810285+358331607+360878287
2305+363094178+364763898+366109090+367613761+369337343+370925386+372338866
2291+373756810+375039905+376186527+377396041+378541002+379465184+380192110
2278+380840196+381668033+382719763+383706353+384489459+385225864+385978494
2264+386690717+387480916+388381297+389089750+389516987+390126639+391180133
2251+392192495+392738010+393084159+393557233+394115755+394735163+395429916
2237+396053613+396593281+397133953+397628164+398214638+398992729+399589097
2224+399811641+400015746+400383654+400610834+400634635+400890389+401485961
2210+402142350+402727232+403203386+403695971+404371663+405092432+405705266
2197+406264376+406805290+407379345+408028088+408637809+409294094+410204680
2183+411227317+412123615+412859916+413533360+414218427+414910621+415675324
2170+416671392+417903945+419102631+420094444+420958432+421813218+422818073
2156+423938680+424969931+425995888+427165342+428395682+429615159+430813360
2143+431978905+433173647+434467744+435819889+437109142+438326786+439691835
2129+441324331+442952503+444323848+445610230+447120297+448905665+450831277
2116+452812862+454729307+456364605+457845475+459663188+461904333+464235422
2102+466437199+468425184+470389611+472611729+475092196+477734736+480498217
2089+483490296+486676691+489692259+492464977+495427271+498902319+502645574
2075+506362296+510272434+514563660+518956801+523324238+527969259+532996648
2062+538221120+543346099+548200275+553293635+558948734+564581555+569892270
2048+575418610+581560068+587959840+594211341+600251542+606181457+612515362
2035+619409484+626123578+632264033+638233315+644399162+650683667+656794370
2021+662515613+667757867+672964903+678769033+684622080+689887996+695090604
2008+700446879+705284866+709205139+712998038+717350669+721544167+724855238
1994+727471106+730117833+732943480+735769749+739038962+742197127+744822751
1981+747379463+749017425+749680871+750989497+752942612+754072317+754143511
1967+754369688+755662193+757632673+759274164+760273173+760937656+761260212
1954+761493584+762123335+762870983+763509313+763876634+763404632+763079239
1940+764629263+767429864+769566811+770320271+770860908+772297809+774451015
1927+776434572+777587802+778752655+780591816+782560567+785459968+790077659
1913+794830060+798345652+801687097+806215120+811170242+815948796+821169116
1900+826594510+831358604+835612641+839697722+843043526+846602291+852944152
1886+860744363+866497018+870857259+875658438+879964367+883494972+886508189
1873+887417322+886107174+885750647+888897050+893259783+896084253+897711422
1859+898528673+898018064+897249245+897480333+897896224+896901643+894092809
1846+890471082+888274079+888317737+887907313+885767252+883108902+880350990
1832+875917755+870162541+866746718+865319573+864078336+864031634+863603151
1819+861433478+859238828+856962743+852968161+848651300+846515875+845647909
1805+844072216+841301366+838084045+835807060+834388979+832315615+829496679
1792+829276868+832851063+835365501+834571013+832445897+830811325+830312755
1778+830701246+830054060+826818611+822647322+822664550+827092320+831348295
1765+832378161+831111809+831317852+832943152+833923273+835430746+836154316
1751+833536441+830892275+832175786+834981506+837270737+839097514+840465572
1738+841066887+839374682+837603325+841303234+847326761+852475748+855912396
1724+857260944+856866571+854048535+849973141+850636103+857092055+863674830
1711+867844735+868931544+868274048+869217706+871028016+870844736+871459958
1697+875062865+880914459+888637525+894608330+897592003+898324499+896551966
1684+896999752+904623671+912622452+916934954+918634009+921142290+923352715
1670+924272503+930020730+939102306+944494006+947145160+951386260+956098116
1657+957012023+950848252+944655976+951110268+958382642+962725379+969458085
1643+976219504+979195289+978378799+973938645+971066157+977485095+985660098
1630+989067203+989636345+989990174+991279773+996232058+1001592139+1002239741
1616+1002457338+1007250075+1011049823+1011006788+1010272770+1011617512
1605+1014328445+1017538225+1020908037+1023739427+1025915742+1027045586
1593+1026779972+1026721301+1028391643+1030345864+1030780158+1030507280
1582+1031125408+1031612078+1028591735+1025814381+1029948239+1033692014
1570+1033183757+1034212378+1037436619+1038713557+1035938002+1026902643
1558+1020370998+1028355941+1038999719+1048701291+1056546751+1059740410
1547+1057766609+1051489300+1042668424+1036132144+1042323106+1055003716
1535+1061108953+1061654364+1063426413+1067134625+1068284118+1063619725
1524+1053910334+1046907102+1051039784+1058665710+1063331763+1066563753
1512+1066652106+1060910660+1050275531+1048588653+1061472953+1069465783
1501+1068926046+1065843227+1066374177+1071266960+1073741823+1068986032
1489+1063690643+1066969749+1071792099+1071397311+1069057711+1067104735
1477+1064171501+1060663104+1055932983+1051442736+1051708903+1053441169
1466+1052758835+1050663123+1047223016+1038330461+1023729048+1016606882
1454+1019644314+1019826556+1015206859+1008726967+1002710428+998108581+993615014
1441+987056386+975577506+961826555+956567005+956008033+949211951+939844627
1427+937146840+940255190+945634920+951316795+954825883+958094750+963170951
1414+967519016+970400636+973501929+977416391+980994252+985073382+989604034
1400+992036969+992759571+994287108+999599310+1008136860+1014291706+1016562256
1387+1017159904+1017126970+1017127316+1018163756+1020540163+1023755548
1375+1027540351+1031465744+1033677484+1033926908+1034301977+1034367706
1364+1032261340+1031085970+1033500985+1034154330+1029668442+1025232093
1352+1024164312+1023454717+1022040787+1020809790+1018263940+1013912970
1341+1009475929+1006040526+1004369769+1003500281+1000792807+998670113
1329+1000812872+1003904063+1006142164+1010086238+1013722633+1013875470
1317+1012231627+1013225931+1018429507+1022774597+1022660090+1022373305
1306+1024494754+1025747476+1025718279+1028222616+1032710856+1034874164
1294+1034983827+1036409450+1039423635+1042908853+1047338837+1053376409
1283+1060935844+1068679874+1073297496+1073228862+1071526209+1070957274
1271+1071864539+1073457252+1073263317+1070175516+1066277383+1064151229
1260+1063692857+1063012390+1062384784+1060661306+1055526156+1049671379
1248+1047449815+1049251684+1050537547+1047554635+1042596469+1038365194
1236+1035426009+1034546212+1034806013+1034396765+1033391460+1031774255
1225+1028815420+1024995746+1022220330+1022618162+1025765880+1028820817
1213+1029265697+1026775129+1024823952+1025474736+1026509515+1027465420
1202+1027980180+1026328727+1024534607+1023745515+1022277341+1021397544
1190+1022434398+1023908938+1024025520+1021308844+1017137902+1014726139
1178+1013240045+1010077590+1006823599+1006606140+1008465850+1009362806
1167+1009371109+1008847769+1006179041+1002807361+1002236420+1002908652
1155+999985658+994378506+991003781+990798361+991112130+989909016+988120293
1142+987091256+985580739+983292131+981573773+980100133+978827277+978897088
1128+979002600+976568351+972059493+968093140+966471921+966648213+965882161
1115+962543760+957640737+952265919+948147559+946524404+944652793+941387870
1101+938884779+936647578+934427258+933470593+932951612+931730855+930065010
1088+928567154+927272574+926837103+928905208+932978042+936156341+936182010
1074+933822830+931971838+931972737+933846492+936110885+936136692+936281572
1061+939459456+941842229+940306943+937604520+937650807+940760956+943933374
1047+945845598+946874358+947355008+948955885+951165826+950981578+949162205
1034+947684413+946241839+945348204+945346267+945601571+946162480+946856991
1020+945603854+941344351+938725715+940344650+941799678+940906458+939886555
1007+939847948+939615199+938090152+936350968+937267504+941840845+945383006
993+943967207+940720481+939908488+943275809+950254271+956951968+958953168
980+957761609+957985709+959440322+961239908+964102917+965028655+961661057
966+957736562+956944080+957401000+955832572+953163844+953138175+956461839
953+958930059+958268897+956946710+956999431+957866775+957026069+953702405
939+951133861+951003372+951158769+950613427+950183008+950040272+949823090
926+948463819+946525580+945886903+945676156+944228185+941208257+937841766
912+936388260+935736576+933755372+931769739+930188580+927970752+926564363
899+927666946+929864641+930050342+927115586+923002969+920095126+919093004
885+920571625+925028800+929579586+930787058+929977487+930427280+932591211
872+935076521+937590682+939753852+941565338+944502170+948803048+954361769
858+960187901+964138341+968595861+977051077+987958738+998271658+1005887551
845+1010188083+1013675031+1018439540+1023671207+1028042173+1031365076
833+1034156959+1036839524+1040210029+1045015081+1049465475+1050301892
822+1047028943+1042232746+1038337103+1036890170+1038868607+1042801888
810+1045322277+1046684870+1048683302+1049543935+1046867596+1039518492
799+1031753429+1030905320+1036199672+1039293631+1033403291+1022727272
787+1016641061+1015539931+1015087232+1012393250+1005501827+997579914+992920641
773+991017619+989030948+985511966+981975272+978016460+972224161+968604579
760+968987882+968460529+963463963+956887969+954647793+957088753+959702615
746+960053883+956543273+951734969+951748253+954430334+954327520+952748230
733+952468294+953792557+953795601+950654802+945515155+938294949+932993886
719+934256363+937420341+935029403+929639572+931161644+941281943+950500651
706+951286767+948800004+951480425+957265598+960666960+962085319+963542630
692+963955892+962714101+961809535+960339354+957345095+954730196+953610800
679+954279365+957033333+961996274+966053955+963934512+956135409+953128765
665+958685410+964400564+968908454+971180041+969049598+968469731+977728430
652+988845385+983035581+965559536+957798417+961214239+962900771+962295651
638+967148098+975255158+975869135+962093898+946869099+947057983+956902706
625+958201715+953846939+958313454+965881123+959094796+936281088+918804143
611+928439779+959395350+974467104+960764170+956986147+980617038+1006086121
##END=
