##TITLE=Sample description
##JCAMP-DX=4.24
##DATA TYPE=INFRARED SPECTRUM
##DATE=13/9/2023
##SAMPLING PROCEDURE=Instrument type and / or accessory
##ORIGIN=Default
##XUNITS=1/CM
##YUNITS=ABSORBANCE
##RESOLUTION=4
##FIRSTX=4397.6552
##LASTX=599.8556
##DELTAX=-1.9287962
##MAXY=1.8753626
##MINY=0.47844216
##XFACTOR=1
##YFACTOR=1.7465676e-009
##NPOINTS=1970
##FIRSTY=0.51359355
##XYDATA=(X++(Y..Y))
4398+294058797+292992268+290186470+288418876+289065510+290463136+290633940
4384+289345485+287515132+286404853+286972961+288989168+291064790+291292142
4371+289563521+288484741+289293578+289877043+288939445+288139071+288845938
4357+290143505+290409147+289840323+289505744+289378827+289735520+290654245
4344+290509753+288393759+286409870+286394069+287136803+288252406+290078425
4330+290411536+288491873+286418435+285138512+284467598+284819666+285937538
4317+286128460+285214291+284633846+284505700+285148068+286645344+286847374
4303+286062937+286541701+286912147+285537078+284434444+285344416+286918563
4290+287256929+286159908+285069337+285031115+285041132+284744110+284854731
4276+284988815+285068996+285512166+286084164+286343186+285860224+284850090
4263+284313396+284699404+285263177+284780301+283440588+283273469+284645261
4249+285546634+285451386+285270992+285215058+285250977+285011458+284032362
4236+282944812+282640026+283288195+284120222+284130340+284198662+285290956
4222+286083208+285920663+285671094+285465020+285109470+284808933+284894387
4209+285548784+286132334+285718138+284557010+283873827+284186189+284975369
4195+285324656+284409292+283212928+283377982+283842584+282788904+281331197
4182+281628953+282885534+283098723+282589552+282299868+282219909+282349966
4168+283004994+283956328+284047276+282750409+281440010+281863847+283283195
4155+283659937+282931127+282107922+281735343+281823475+281942595+281984195
4141+282320190+283011256+283412007+283139095+282445742+281345616+279997729
4128+279320501+279679310+280164541+280596022+281371484+281256136+279651684
4114+278301784+278140791+278510060+279325893+280817812+281941366+281738090
4101+281022129+280805560+281309936+282459785+283661831+284003559+283200404
4087+281927886+281120840+281160120+281542578+281836614+282281746+282754367
4074+283082598+282826392+281288471+279767323+279657332+280149883+280623614
4060+281353192+281958993+281674956+280798001+280463935+280932136+281462892
4047+281672209+281726487+281773753+281665383+281036428+280522326+280908299
4033+281066033+280478609+280541607+281417640+282073368+282195542+281877157
4020+281536845+281764624+282298264+282629634+282766687+282619055+282447790
4006+282703416+282792879+282485824+282581584+283100993+283335938+283066559
3993+282999210+283570747+284035024+284129436+284342489+284636593+284584874
3979+284113567+283829035+284182810+284823864+285191306+285131073+284866642
3966+284293790+283373580+283201121+284352778+285603250+285958953+285572092
3952+284847957+284608541+285649406+286536411+285880513+285479694+286181528
3939+286465906+286041181+285194668+284325443+284299694+284696486+284289132
3925+283798390+284818062+285770266+284738956+283789414+285046916+286922863
3912+288040172+288209645+286392738+282500499+279476819+280030798+282962421
3898+285884233+287356545+286555591+284650125+284463468+284560286+283356278
3885+282856441+282698058+283403799+286311380+287223724+285087663+282491830
3871+280187218+280466682+282285807+282275928+283092086+286369498+288238619
3858+286021524+279395444+273932812+278704292+286337009+290071634+288955041
3844+285513138+282651288+280656358+280794333+283642703+286263534+287863225
3831+288864981+288785056+288170434+286696602+282770697+280972235+283960509
3817+286082492+288558489+292315569+293033288+289906426+286982926+286836351
3804+285986050+285584753+288683392+291094958+292668678+295247260+297094847
3790+297527847+296985983+295901197+295487717+295138157+294334063+295626442
3777+298415859+299420072+298396611+297325817+298017498+300056229+302664637
3763+303842317+301687555+300269555+302925331+305027333+303573671+303067401
3750+309559022+318013716+328188294+346452375+364715740+375675336+379710003
3736+379048490+379304884+381956327+384378540+385220071+385074521+386392939
3723+391042672+398673648+407472168+414946162+419115049+421163541+427150905
3709+439571466+453629701+466145714+477967454+491728956+506127605+516173765
3696+519451433+517084982+512342561+509482673+509363809+509140518+506889450
3682+501796616+494616658+486984487+479650584+475323860+471518696+464530291
3669+460517807+460486956+459031758+455190078+449404914+441537200+432749976
3655+426435677+420310406+409836537+400391554+399831910+402436291+402247468
3642+399132926+395103309+390954966+386304209+380789807+374023943+366587011
3628+363996588+365626549+364843545+360065359+353319937+349591523+349566440
3615+349036179+346998164+344278127+341541436+340341028+340254483+339391725
3601+337747226+335606456+332665960+330503486+330305892+329370717+325432936
3588+321787381+322108514+323654899+323790177+322657681+321484575+320971889
3574+320679696+319518363+316382458+312057986+310236711+311415482+312318066
3561+312175587+311769274+310824203+309156293+307975747+307786104+307162711
3547+305887464+305272193+305354916+305087806+304193242+303382698+302992800
3534+302618191+301804678+300421214+299127879+298612565+298838280+299401780
3520+299399391+298383985+297329093+296806340+296435587+296410709+296628130
3507+296070704+294753514+294283419+295225248+295838813+295311725+294858113
3493+294694543+293879085+293021583+293337392+293964914+293644635+293159182
3480+293378856+293530822+293055061+292884530+293550240+293939728+293479768
3466+292775461+292052827+291484003+291619111+292445387+293068063+292924526
3453+292475214+291988328+291458954+291467997+291948604+291940311+291428683
3439+291127447+291508233+292577765+293503589+293665315+293658865+293878369
3426+293693743+293131368+292957186+293179863+293556451+293918229+294093947
3412+294189946+294189638+294232979+294442074+294594245+294969332+295789568
3399+296476812+296818352+297004275+296941994+296832652+296826236+296904693
3385+297298174+297798506+298239492+298851384+299298649+299174018+298829270
3372+298609392+298324570+298161820+298675188+299566510+300208024+300746885
3358+301286839+301321784+300804287+300277233+299861979+299394614+298947826
3345+298619493+298444457+298557383+298849268+298625431+297719674+297045739
3331+296906911+296540561+295547848+294504185+294018902+293598939+292513640
3318+291160311+290153367+289518917+289251910+288884979+287680544+286030619
3304+284523037+282952985+281655265+281509322+282231324+282933925+283726758
3291+284600163+285055499+285323257+285784617+286570299+287552808+288428090
3277+289336749+290172922+290647249+291119188+291573756+291639689+291629246
3264+291764593+291943622+292178345+292327172+292616703+293214945+293492088
3250+293352578+293483249+293991465+294210183+294090159+294440299+295051168
3237+295267122+295734487+296732933+297484438+297811577+297910510+298018112
3223+298506192+299282200+300270954+301350417+302056704+302432473+302724291
3210+302961949+303461258+304594709+306079870+307085790+307411017+307811153
3196+308629547+309496673+310247188+310797823+311298257+312167601+312940128
3183+312890098+312567294+312997018+314313866+315889975+316890434+317012949
3169+317056802+317752237+318820130+319538430+319787623+320488484+321915630
3156+323177397+323869078+323960231+323714825+323880033+324210687+323943850
3142+323457271+323511020+323977294+324107522+323860444+323818059+323832426
3129+323678514+323791201+324114108+324060870+323673225+323360863+323065291
3115+322521243+321687151+320850057+320359178+320086027+319696710+319078879
3102+318364334+317928979+317772235+317571160+317565359+317932528+318095040
3088+317642997+316922855+316621925+317146180+318119474+318779895+319106488
3075+319614669+320129402+320167693+319979654+320133498+320657172+320876402
3061+320361703+319785371+319916895+320660483+321324521+321249510+320659322
3047+320163461+319813764+319630333+319532116+319024106+318139711+317324799
3034+316398361+315257641+314460031+314015496+313321187+312409048+311782515
3020+311336445+310676741+309828214+308815844+307832551+307348600+307263897
3007+307238882+307205540+307026921+306880927+307169468+307743548+308536039
2993+309970625+312170741+314826006+317431684+319522663+320903124+321534502
2980+321669644+321683158+321429733+320692425+319827005+319031375+318227315
2966+317614706+317227777+316776519+316120945+315524785+315214300+314964082
2953+314661856+314482452+314491598+314588313+314713387+314887434+314875285
2939+314378331+313580960+312922826+312511360+312219679+311941682+311571885
2926+311363473+311596286+311780775+311248705+310242444+309575403+309256182
2912+308865294+308847923+309451182+309925782+309939774+309933631+310154295
2899+310526754+310910407+311338868+312092215+312908322+313140964+313028721
2885+313209764+313767463+314548419+315250508+315515229+315368723+315062333
2872+314791026+314710453+314670968+314465354+314417952+314590599+314440169
2858+313886804+313506564+313612459+313696479+313324737+312791199+312479076
2845+312424951+312418262+312516786+312841912+313286958+313949495+314724410
2831+315179081+315346234+315672144+316098728+316203122+316130159+316236975
2818+316622539+317208973+317718656+318029550+318293009+318657039+319132902
2804+319660092+320307612+321176069+322005656+322428520+322527863+322550012
2791+322695528+323113171+323526923+323666570+323706942+323633023+323424100
2777+323534568+323933202+324068515+323889929+323674522+323617291+323624731
2764+323448125+323317010+323528903+323798538+323908187+324077353+324380604
2750+324665698+324788930+324766440+324822340+325020582+325173982+325123952
2737+324951510+324811146+324704466+324737262+324952738+325117912+325097640
2723+324988264+324978402+325110267+325291037+325495251+325766729+326188331
2710+326600991+326607032+326209387+325942379+326151440+326522193+326595360
2696+326405001+326349034+326645458+327011365+327004881+326567069+326039470
2683+325770756+325650255+325335777+324950520+324787190+324717707+324475101
2669+324059266+323694656+323495117+323364241+323201491+322933767+322545268
2656+322234544+322227958+322332863+322242530+322140457+322229766+322217447
2642+321817174+321303055+321146379+321302714+321387621+321246268+321088739
2629+321242753+321620741+321857887+321828572+321602380+321464611+321601357
2615+321819904+322095580+322538954+323019356+323336769+323439286+323481569
2602+323630498+323908665+324297096+324867524+325564050+326142806+326623720
2588+327093884+327477980+327813753+328159150+328489053+328637504+328617574
2575+328932598+329630012+330056323+330140787+330234669+330122699+329810440
2561+329906814+330354283+330392335+329935651+329643458+329876850+330389229
2548+330711761+330765886+330801583+330852909+331002487+331361739+331754845
2534+332027551+332152626+332202587+332343770+332632448+332962760+333202603
2521+333250142+333167077+333304847+333751702+334065702+334079933+334160916
2507+334524058+335037461+335470461+335632904+335677269+335847868+336040480
2494+336250427+336628381+337040188+337329481+337668325+338240118+338907637
2480+339417661+339621807+339586281+339517038+339549390+339692586+339680676
2467+339398277+339323369+339708762+340087535+340044399+339859841+339948093
2453+340101527+340091289+340196945+340501833+340713760+340812762+341049021
2440+341389128+341586210+341594230+341596414+341782746+341968123+341893044
2426+341852672+342055078+342198990+342236086+342426342+342693213+342777677
2413+342849275+343175697+343561500+343729267+343691557+343665586+343761482
2399+343893689+344140869+344492545+344741636+344985745+345286845+345430757
2386+345349911+344931313+343798271+341878574+339596212+337275014+334952622
2372+332549588+329989537+327388363+324746237+322057324+320049512+319718551
2359+321339502+324308869+327684822+331644172+336039729+338420751+337266858
2345+334266913+332444853+332387145+333264953+334652784+336051093+337165263
2332+338274450+339873492+341863285+343709644+345399770+347327863+349536749
2318+351814914+353790647+355190355+356529522+358310698+360268413+362038191
2305+363461344+364697687+366004570+367290124+368427978+369422465+370357538
2291+371441164+372679316+373774852+374574032+375291785+376173791+377082859
2278+377721063+378270674+379107427+380121298+381034632+381834187+382625313
2264+383483020+384386730+385217273+385989799+386796453+387530860+388105145
2251+388609197+389166009+389836906+390513264+391087310+391728312+392461013
2237+392912066+393079697+393391001+393927097+394510630+395073141+395540268
2224+395910646+396343577+396807018+397151459+397422938+397749053+398191847
2210+398633276+399026655+399581112+400315485+400929084+401251206+401491868
2197+401935072+402602113+403322289+404032160+404826630+405724027+406621321
2183+407359380+407950625+408685613+409634472+410532688+411310539+412014710
2170+412610358+413380734+414532853+415682139+416535512+417289099+418221850
2156+419374822+420616182+421845836+423103884+424506220+425909341+427016651
2143+427967899+429138719+430514402+431916635+433323066+434705984+436128796
2129+437676989+439170580+440413373+441615521+443150030+444937076+446611026
2116+448117142+449766452+451763037+453863640+455745012+457415311+459194543
2102+461310195+463593001+465876147+468134484+470374767+472816603+475561826
2089+478446866+481518920+484881598+488311676+491584942+494833363+498252998
2075+501894764+505865546+510053135+514170525+518302590+522699717+527404122
2062+532201180+537065639+542313443+548070179+554115457+559888983+565179685
2048+570601194+576746839+583388242+589680393+595577833+601722625+608039893
2035+614249456+620497788+626694179+632410953+638024254+644371486+651045582
2021+656868627+661794821+667044604+673074184+679029777+684400505+689324788
2008+693970529+698485086+702948931+707086797+710909264+714806469+718071100
1994+720179928+722437548+725585466+728930159+732001428+734379447+736099093
1981+738074007+740605119+742983069+744642721+745819684+746715852+747072339
1967+747332044+748187942+749140146+749752653+750563504+751789609+753175155
1954+754397916+755128023+755447586+755371347+754883130+754649566+755507990
1940+757145527+758535987+759765095+761422494+763243770+764628428+765814536
1927+767318433+769061832+771247854+773712145+776123881+779674563+784538441
1913+788961607+792274289+795345764+799099772+803781960+809331718+815185681
1900+820429663+824781095+828748259+832887559+836934785+840658898+845086774
1886+850669361+856175641+860636278+864520447+868656675+872650390+875863149
1873+877841339+877809806+878033473+881862014+886494718+888589349+889110532
1859+889510361+889366688+888579179+888253610+888313059+887275674+884351901
1846+879903822+876479682+876451630+876710993+874983976+872752361+870534737
1832+866904199+861708745+858086602+857359156+857098223+855835534+853682684
1819+851399946+849380804+846914738+843281538+839281680+836905709+835998347
1805+834479844+831239715+827411515+825558843+826035047+825999282+822959956
1792+819466129+820128734+822745094+823881582+823302042+822002359+821252732
1778+821641230+821469982+819370096+817172539+817922713+820711618+823144445
1765+823872027+823333234+823849230+825024145+825519529+826690758+827562901
1751+826233870+824900470+826115518+828407196+830287511+831955421+833798401
1738+835069008+833574939+830662154+832979087+838862740+843874592+846942244
1724+848792254+850080334+849046362+845469198+845481279+851396192+857729909
1711+862264533+864606924+865167148+865732082+865216905+861856923+861003141
1697+866323021+875489052+884756098+889524217+891094046+891546635+889683930
1684+890103211+898115826+906349310+910961743+913046955+915223489+917893702
1670+920845391+926731979+933697246+937686797+940164671+944259469+948604826
1657+950038490+945367018+939870089+945236723+950941620+953822531+960349405
1643+968824916+974268880+975389671+972716797+970429213+973861066+978772449
1630+981371336+982939323+983659192+982655184+983906679+986825197+985773753
1616+985648917+993403330+1000774090+1002479949+1001585351+1001666231+1003459386
1603+1007466342+1012813933+1014897507+1012121024+1009356963+1009874325
1591+1012232004+1014364447+1015779478+1017520965+1019962733+1022520054
1580+1024230827+1023103484+1021487515+1023425368+1023619822+1020267007
1568+1019072230+1021047212+1023617297+1023390627+1015535881+1011031221
1557+1023533140+1035377232+1040318510+1042189474+1044564422+1045470964
1545+1041137347+1033569880+1029416452+1036862769+1047987811+1050704640
1533+1048558205+1051024135+1055856685+1056921917+1053394919+1048256798
1522+1047522186+1052357739+1055072930+1056364559+1059970321+1062311893
1510+1058293811+1046996702+1041836467+1053950024+1066127193+1070151281
1499+1068115144+1064156238+1060743428+1057691747+1054495506+1054466089
1487+1058628390+1062003797+1062635756+1061616322+1060296163+1057962441
1476+1052982736+1047535905+1047162490+1050698839+1051040720+1046450333
1464+1042736799+1041460459+1034856663+1019811688+1010464171+1013885171
1452+1016751339+1015046231+1011870329+1007962955+1002089880+994842181+987352592
1439+979368097+970393653+963178511+957862112+952157283+946819793+941631643
1425+936492225+934740022+936520345+940731721+950448557+961585612+968419831
1412+971933998+973767559+974942952+977681281+982718659+987348497+990286809
1398+993245255+997062535+1003380553+1011977214+1016950776+1015867184+1011913192
1385+1008753262+1009136368+1013750371+1019166829+1022703587+1025159347
1373+1027426113+1029638754+1031583363+1032431686+1031035083+1028660682
1362+1028069811+1028842987+1030093595+1031567802+1031627319+1029553164
1350+1025642991+1021026190+1018133267+1018143164+1017866328+1013089404
1339+1005695233+999704422+995524921+993583314+995342138+1000727541+1006116221
1325+1007783038+1006285899+1003829115+1003330387+1007396656+1013504727
1314+1017428004+1019445167+1022376926+1026466060+1028500013+1027868737
1302+1026692661+1025629887+1026969020+1030661805+1032541915+1033736828
1290+1038058433+1043818207+1046781363+1047902221+1052016813+1059028833
1279+1064568011+1066861669+1067948810+1070406071+1073527917+1073741823
1267+1069026328+1061308567+1054672692+1051675136+1052241162+1053655033
1256+1052288940+1048713345+1046445146+1045984230+1045452331+1044333725
1244+1042959237+1040454676+1036488262+1032559866+1029586745+1028040531
1233+1027992071+1027032564+1024447600+1023085056+1023325581+1024005318
1221+1024299763+1022441631+1020156368+1019923351+1020297926+1020304205
1209+1020176093+1020704375+1022470161+1022870262+1020447947+1018107263
1198+1018523063+1021234909+1022881729+1022016548+1021792677+1021625660
1186+1017631809+1012958426+1011967454+1012358341+1011901111+1010812332
1175+1008288524+1005850169+1005432799+1004996796+1004027187+1003908289
1163+1004066774+1003737929+1001886007+998986941+997476151+997104101+997116250
1150+997508981+996192849+992923099+989690273+986663095+984152665+982710401
1136+981091360+978467151+975747660+973522938+971498813+969963793+969071379
1123+967757022+965574071+963022074+959627898+954712761+949795713+947722446
1109+948361844+948360479+946350210+944428875+944968350+947069601+946968313
1096+942680835+936348551+932161474+929880102+925973001+922941728+925027963
1082+929793011+931721308+928938546+924940394+924102515+927531842+933821535
1069+939075619+939683621+938767932+940371206+941660787+940542590+940430996
1055+943728594+948788974+952454322+952279320+947227813+941105408+940894096
1042+945625631+947705996+946021023+944072933+942764650+942477440+943452577
1028+944780243+945342174+944323286+942196031+941903701+944872386+946571624
1015+943995192+940662170+939204754+940090479+941896261+941509674+940536106
1001+941606798+942599477+941178917+937328057+933549136+933166575+936765102
988+942548628+948513298+953489727+956534924+957615922+958715758+960711490
974+961701233+960465914+958544988+958436260+960733194+962390934+960856733
961+957937191+956130522+955430787+954415653+954554617+958003260+960029774
947+956829574+954553048+956959255+958417559+955727417+952079883+949248593
934+947656581+947360497+946937258+946417781+946525075+945835647+943264402
920+939879098+936617538+934651429+935176230+935374370+932240239+928450738
907+926433712+924937254+923127514+921347122+919766850+917862441+916081367
893+916152078+917240516+917996082+919375553+920803279+921078681+920915487
880+920252064+918903989+918664078+920606094+924130703+928924622+933733829
866+936479871+938518466+942920951+949342851+956496292+964817072+974390098
853+983607866+989688294+993915299+1000748632+1009454702+1017211436+1024249870
839+1030092366+1033104324+1033638407+1033921386+1035866814+1040565656
827+1049295616+1058929934+1060492801+1055132720+1053609712+1055004540
816+1052880765+1049985590+1048444631+1045718042+1043018959+1044585444
804+1051304315+1057410543+1057036582+1050520424+1042159170+1035959571
793+1029483750+1021988701+1019114615+1020288848+1021671049+1021916898
781+1018736218+1012656541+1006731867+1001416287+994286393+986455264+982075575
768+979548491+977036217+976460840+976008115+973522665+972769215+977246779
754+982608703+982669517+978155779+972897463+969289585+966603061+963372965
741+961131521+961959846+964019394+961205781+954589154+952178646+952228471
727+948435489+943608536+942077611+941235977+937641818+933154767+930838927
714+931910643+937145001+945894549+954426983+957786760+955787207+954143117
700+955847065+959218377+963485310+967622494+971479839+975585626+975764723
687+971240747+970915861+979003555+986794552+986471645+978876672+970630083
673+969026059+968492248+962354078+963022893+974742355+983934868+987547865
660+988131910+987987076+986646169+985128689+986906078+985576842+978983966
646+980887555+986160340+981494534+977294079+984301184+991077047+974813543
633+949838098+945047319+951032602+949505021+944986574+945171472+954793778
619+972758841+984465607+991414561+1005633873+1020904153+1030481275+1031854398
606+1031594762+1027468089+1015822956+1019045611
##END=
