##TITLE=Sample description
##JCAMP-DX=4.24
##DATA TYPE=INFRARED SPECTRUM
##DATE=13/9/2023
##SAMPLING PROCEDURE=Instrument type and / or accessory
##ORIGIN=Default
##XUNITS=1/CM
##YUNITS=ABSORBANCE
##RESOLUTION=4
##FIRSTX=4397.6552
##LASTX=599.8556
##DELTAX=-1.9287962
##MAXY=1.7139567
##MINY=0.33084106
##XFACTOR=1
##YFACTOR=1.5962466e-009
##NPOINTS=1970
##FIRSTY=0.35341245
##XYDATA=(X++(Y..Y))
4398+221402165+221938076+223305840+223953642+223007153+221558641+220623149
4384+219804477+218750990+217880247+218328295+219817584+220514451+220137573
4371+219698412+219834051+220341135+220897322+221424084+221189212+220674474
4357+220710339+220230458+219577447+219795740+219951132+219709632+219261005
4344+218417838+218170924+218747629+218855637+218892417+219977551+220986958
4330+220505639+219168326+217876830+216810217+216177707+216033908+216752844
4317+218050295+218323815+217372173+216357837+215947260+216542299+217692629
4303+218093704+217803605+218033567+218662512+218787079+218299842+217734581
4290+217759936+218359699+219071819+219735379+219906958+219085131+217639923
4276+216653313+216753889+216941227+216402945+216390417+217319262+217837959
4263+217664773+217105618+216424695+216613806+217223745+216812943+215964212
4249+215700252+215544281+214721371+213659613+213290371+213586985+214839647
4236+216775136+217571833+217277702+217316536+218066314+219093962+219308278
4222+218668542+218346966+218169262+217522431+216905436+216330317+216139899
4209+217297978+218399765+217595283+215684980+214347537+214378380+215225804
4195+215748216+215999518+216588844+216872651+216163480+215156201+214739351
4182+215038672+215496560+215805702+216083142+215962532+215484891+215239769
4168+215060740+214745493+214904116+215612857+215843136+215501900+215739030
4155+216492039+216353674+215064306+214167556+214505636+215019535+214674079
4141+213787000+213402803+213795625+214165222+214153609+214343355+214940429
4128+215167105+214798143+214492829+214185703+213780129+213817656+214375019
4114+215262155+216141972+216251846+215368277+214312549+214011584+214242647
4101+214022189+213614617+214162216+215063261+215134843+215099089+215216674
4087+214448543+213421474+213415219+214094816+214472646+214260309+214384149
4074+215467061+216263590+215633693+214376345+213820644+213906079+213551008
4060+212844955+212740850+212961009+212936010+212973836+213282268+213513817
4047+213549272+213639019+213885093+214499550+215122277+214989009+214404910
4033+213970902+213961137+214199444+214165987+214031113+214225452+214406479
4020+213841050+213281559+213977679+214939160+215155716+215509144+216285061
4006+216387915+215641422+215189733+215300056+215252596+214983875+214981448
3993+215352911+215692280+215884173+216357968+216850900+216727583+216274269
3979+215648218+214945788+214900923+215387246+215860256+216177501+216320329
3966+216817275+217492242+217558969+217257071+217167155+217455443+217775189
3952+217822201+217813314+217801234+217506543+217099252+217421276+218387779
3939+218938047+218618524+217727412+217368159+218156342+218804910+218229399
3925+217357480+217389051+217507084+216906593+217015235+219203127+221594264
3912+222104036+221054301+218413133+214043641+210681148+210471182+212672797
3898+216300781+218962953+218545038+216837551+217503332+218500622+217853679
3885+218096448+218406057+218344277+220322614+221262549+219389512+216864753
3871+214595571+214734067+216540040+216958534+217923562+220542438+222060553
3858+220444494+213976951+207261878+211792382+220097021+224101939+223131273
3844+219495653+215751521+213256839+213302040+215800325+218150872+219708998
3831+221355732+222282374+222218895+221023533+216978754+214322575+216422623
3817+218298348+221298751+225690218+226911121+224013891+220179357+218448102
3804+217010362+217354194+221392998+224243068+226003710+228425278+229818994
3790+230186219+229979614+228975901+228736736+228907923+228427220+230008870
3777+233532581+235324832+234217051+232032109+231889469+234027007+237231625
3763+239645931+239548453+240165580+243784341+246431371+246288021+250090199
3750+265673640+284836411+307417892+338251006+360803249+368912560+367304753
3736+361260185+359115720+363418765+369046351+371458734+371772656+373361905
3723+376840434+382015939+388110917+393488285+398433548+406469224+421938497
3709+443895233+470092730+499922039+532408684+561940576+578761762+581099688
3696+575599955+566596264+552419197+534660055+520845975+512608212+505197990
3682+495972983+485242368+473644559+461751610+455363248+451801076+444016291
3669+438105664+436570222+433670844+428742757+423091683+416093626+408100780
3655+402467555+397258928+387684899+377853145+376783975+380644759+382668763
3642+381703287+379568904+377482802+375283895+372308716+367428761+359964992
3628+356029154+357270502+356101446+349404203+339345606+332340453+329204524
3615+325248298+322241379+322791666+324497978+325941188+326500138+325218425
3601+323319175+321515779+318915386+316538327+315368786+312932038+307097865
3588+301529276+300409509+300533536+299034539+296438049+293851603+291689737
3574+290048585+288315948+284831538+279833457+277479269+278738110+279873262
3561+279498064+278408058+276806729+274440331+272235374+270979893+269367251
3547+267235855+266450061+266951824+267150569+266491192+265320605+264167306
3534+263101421+261695477+260064183+258849739+257939415+257004091+256530670
3520+256567581+256410303+255928965+255079095+253657486+252456840+252264406
3507+252244989+251720635+251427138+251304848+250569072+249597155+249036469
3493+248720027+248185460+247588871+247395634+247488108+247368823+246836161
3480+246197825+245752708+245447599+245103935+244862156+244884037+244815723
3466+244490804+244102295+243738823+243582553+243762123+243896101+243575085
3453+243056238+242488140+241648352+240926710+240845158+241354314+242227839
3439+242940035+242914251+242244176+241593406+241461668+241612561+241558754
3426+241173474+240606702+240263991+240447631+241008597+241452688+241329184
3412+240946706+240912240+241009811+240855165+241024168+241967520+242804974
3399+242799821+242598126+242739591+242930606+243293892+243915723+244170386
3385+244024440+244026233+244269095+244659546+245088178+245143796+244793001
3372+244705494+244989412+245112580+245099921+245397114+245954925+246338618
3358+246578232+246808847+246934908+247047956+246874902+246177549+245673397
3345+245914206+246368677+246407978+246136568+245922663+245680547+245058791
3331+244271354+243605554+242691160+241391151+240317611+240145677+240496809
3318+240155404+238940998+237913014+237513751+236842555+235451379+234165260
3304+233246796+232061179+230673121+229891024+229781037+229460992+228710018
3291+228501210+229076011+229459106+229413364+229444674+229496316+229516219
3277+229916378+230391891+230495137+230787140+231249845+231211533+230871753
3264+231008177+231817514+232420880+232341027+232266272+232479617+232614602
3250+232678081+232684299+232363730+232201841+232753117+233581553+234332546
3237+234772697+234703579+234665604+235017352+235702344+236808986+237791695
3223+238050315+238167490+238607622+238963309+239265786+239880634+240581665
3210+241138766+241947375+243230675+244345942+244889956+245430777+246542235
3196+248225807+249947465+251392374+252768241+253665309+253551738+253154099
3183+253495018+254487864+255477444+256323934+257246692+258194021+259059107
3169+259922867+260655301+261072376+261488050+262436592+263630667+264372156
3156+264968353+265759243+266487271+267188302+267644341+267567457+267568839
3142+268030106+268291508+268113730+267925889+267856547+267958039+268139420
3129+268174726+268213354+268483364+268591539+267942879+266915212+266205294
3115+265676292+264884430+263875677+263062793+262652141+262296902+261454481
3102+260232794+259386266+259332234+259341887+258691564+257999029+258115158
3088+259326316+260815940+261218975+260797195+260724829+261052044+260907051
3075+260243716+259932296+260452878+261498861+262065353+261997524+261970751
3061+262164119+262764591+263109132+262357804+261423377+261144630+261086304
3047+260724101+260100795+259554335+259070739+258406936+257550737+256415866
3034+254912239+253346944+252084163+251192864+250567635+250014360+249726577
3020+250727303+252921281+253954063+252472093+249740356+247299426+245633368
3007+244586881+243967720+243621013+243532330+243823735+244349153+245170700
2993+246971334+249906372+252943051+255132903+256631788+257882153+258927799
2980+259712323+259990920+259597576+258848880+258028883+257183923+256180453
2966+254891870+253684969+253019543+252711185+252312407+251861128+251502585
2953+251189466+251267769+251823750+252062487+251783852+251588132+251593359
2939+251496200+250788746+249478095+248511069+248301197+248491055+248644786
2926+248407468+247959961+247659258+247477242+247105050+246265244+245335671
2912+245037376+245509061+246386638+247132346+247438333+247509093+247649120
2899+248089308+248701991+249046588+249149330+249292270+249585505+250063557
2885+250542000+250829298+251044417+251427437+252017641+252379470+252195811
2872+251900821+251737344+251519425+251332648+251056833+250433676+249909714
2858+249970075+250147349+249781113+249001275+248370034+248136096+248146103
2845+248279857+248519882+248857944+249318558+249897690+250559158+251259106
2831+251985640+252598510+252878806+252922420+253081453+253441210+253715028
2818+253799044+253829551+253838886+253882220+254205327+254906993+255757087
2804+256574862+257189468+257538957+257899535+258401783+258883009+259310539
2791+259853675+260236565+260052794+259681349+259522745+259371311+259027405
2777+258691471+258548924+258427026+258246260+258066036+257929482+258009466
2764+258302066+258446107+258228524+257991262+258078863+258302756+258562609
2750+258972925+259187484+258992417+258766768+258602769+258318533+258047291
2737+257993502+258051810+257986725+257822894+257711675+257681859+257674260
2723+257622469+257579583+257606636+257613470+257545939+257454884+257351115
2710+257298260+257419840+257578911+257457144+257149943+257048284+257086838
2696+256985925+256775698+256524882+256272031+256064604+255857458+255667488
2683+255489000+255167499+254687692+254247914+253958077+253662957+253152531
2669+252605903+252340711+252137467+251683798+251209499+250957003+250803403
2656+250625158+250382295+250061036+249869722+249997445+250216092+250230879
2642+250066096+249908369+249926144+250054035+250082152+250083403+250136333
2629+250114694+250131255+250370122+250710985+250984243+251265678+251724499
2615+252250142+252607751+252882876+253246386+253629014+253960841+254246813
2602+254529126+254949878+255526546+256187380+256896028+257468327+257813671
2588+258061649+258273706+258505665+258830359+259220250+259519627+259550489
2575+259544365+259844154+260232663+260463520+260671638+260836029+260731140
2561+260446026+260334490+260408406+260468319+260581759+260750800+260913361
2548+261215838+261489787+261435214+261317908+261457898+261708695+261859532
2534+261972469+262065652+262040148+262110591+262325038+262336427+262267851
2521+262451958+262804284+263186352+263482164+263558133+263531677+263585466
2507+263715542+263876069+264094473+264487258+265022627+265361847+265395603
2494+265442092+265684637+266077721+266604968+267218155+267823706+268346623
2480+268684274+268735860+268516018+268205625+268005050+267955705+267936923
2467+267863679+267857294+267982870+268100437+268132363+268072525+267962128
2453+267920605+267980891+268134081+268365162+268583978+268798349+269086749
2440+269398990+269648313+269821124+269933874+269963896+269933071+269955457
2426+270000228+270010179+270106387+270261219+270329254+270380205+270503354
2413+270634251+270765447+270962885+271235396+271550008+271848863+272138289
2399+272515148+273114146+274465816+277974796+285674519+299624108+321411039
2386+351063316+386435112+424791908+464726863+506121047+549408992+595017313
2372+642470778+690229949+735667437+774958754+802077740+814744010+820063613
2359+818862742+798818661+760368700+717277614+678394131+656622752+662839199
2345+691150168+711118896+706563729+694143084+685090701+681012148+682671112
2332+686871246+686335858+680114856+672527714+664845056+655164158+641858618
2318+623728274+603997741+593065750+594291638+594740172+581135796+554875231
2305+526849431+506628355+493794911+482184294+469472542+455214408+438379593
2291+420667277+404925605+391491726+379602436+369637339+362236004+357136039
2278+353207295+349428288+345808276+342897285+340826119+339171562+337518610
2264+335870923+334427899+333103917+331738935+330476901+329375020+328330196
2251+327381448+326549577+325795299+325161817+324562278+323975883+323644822
2237+323407486+322949803+322475131+322219236+322178087+322247765+322288428
2224+322310273+322458962+322780165+323095058+323253382+323394454+323727083
2210+324258662+324816642+325282800+325783723+326393718+326955207+327448811
2197+328047715+328812336+329649585+330471337+331280319+332126119+332952315
2183+333694233+334505120+335488482+336498318+337368277+338104258+338861822
2170+339753551+340787883+341868554+342844075+343686999+344530110+345522733
2156+346583576+347521943+348421961+349421417+350437415+351404496+352401898
2143+353577527+354980521+356529106+358167271+359848117+361570485+363286803
2129+364831953+366248726+367765609+369495296+371368445+373249473+375101076
2116+376981170+378950844+381062599+383297092+385565490+387954087+390545592
2102+393200688+395926433+398808634+401871675+405310810+409197732+413239206
2089+417364808+421952873+427057693+432395629+438025344+444037650+450249130
2075+456715310+463733830+471190504+478680373+486109079+493669671+501621816
2062+509916896+518077998+525980032+533996328+542100336+550054572+557972215
2048+565680302+572902776+579850573+586665513+593424330+600366116+607260255
2035+613506275+619160149+624757565+630493663+636372477+642181314+647493299
2021+652018295+655681623+659210225+663809380+669183051+673791167+677313497
2008+680674366+684140460+687187669+689827941+692620712+695354932+697462281
1994+699026773+700379321+701856959+703441018+704836432+706245812+708088864
1981+709955217+711076030+711899612+713048728+713977088+714136382+713700395
1967+713337146+713547597+714020328+714439587+714938531+715467720+715974058
1954+716676582+717656845+718768546+719626033+719838202+719567782+719943950
1940+722019186+724970205+727367764+729276835+731818453+735196947+738670659
1927+741614808+743839629+746375572+750261075+755334678+761476593+767474971
1913+771727531+775070775+779684269+786044327+793010495+800199139+807535502
1900+814112956+819315160+823599011+827855305+832274778+836794770+841998766
1886+847334574+851601623+855055694+857971315+860406064+863085768+865846501
1873+867283886+866347386+864483871+864886850+867264095+869092884+869353968
1859+868118894+865913863+863491286+860623237+856863945+852853799+848687047
1846+843465651+838569714+836508593+835107129+832054618+828269113+824267107
1832+818645645+811887164+807548795+805419042+803114013+801087395+799022316
1819+796096016+792696238+788825372+784402390+780876999+779445962+778467566
1805+776555060+773979686+771143077+768980390+767802746+766289933+763694245
1792+762148647+763694544+765875229+766651015+766414127+765677100+765102729
1778+765224832+764469135+761272415+757964271+759137435+763219647+766367825
1765+767246970+766687982+767428967+769178668+770068493+770878408+770651751
1751+768020291+766137957+767939039+771223957+773367376+773528837+773742200
1738+775509974+775262631+773336608+776531834+783006826+788657937+792062868
1724+793362318+793631393+792647695+790748259+791925381+797860056+804268283
1711+808849663+811444679+812403359+813201624+813465397+812357355+814108923
1697+819746368+827941487+837249428+842903452+845102210+845593611+843528159
1684+844041068+853255583+863779032+870641618+873935573+876276598+878614935
1670+882049738+890164800+899045565+903396331+906087535+911546343+916554302
1657+916122197+909071639+905540348+914516705+920318299+922518849+930652058
1643+940064627+943807414+942415958+937855488+936131552+943736244+952601550
1630+955684083+954407710+953079434+953544846+957202796+960588011+959247412
1616+958429207+963286460+966691166+966683399+968305620+972450490+975460284
1603+976336815+976464370+977090122+979248478+982416446+984500493+985690834
1589+987578396+989513306+991432160+994821258+998031794+997469446+993082685
1576+990846586+993973255+995557538+994143603+995007587+998023206+1000151839
1562+999655957+994156597+991208640+999972529+1009887552+1018165120+1025076174
1549+1029910499+1032250479+1031453409+1026226187+1020191140+1028129432
1537+1043525592+1049155270+1047275474+1047818629+1048770588+1045805902
1526+1042741143+1041454389+1042012331+1045728308+1049622623+1055119966
1514+1061580172+1062807405+1058188235+1051300108+1051834749+1062628768
1503+1069744971+1070283346+1066454675+1062964309+1065104144+1068171143
1491+1065423181+1060375866+1061925945+1068545071+1073741823+1073644140
1479+1068921911+1062393597+1055418840+1050422308+1051914733+1056211579
1468+1055316676+1049041979+1043803480+1040805486+1033420879+1020588219
1456+1015612896+1020551178+1021472666+1016621687+1011607680+1008417532
1445+1003517039+995973362+987425972+976484608+964178823+958642870+956693770
1431+950514142+943180692+938274822+934627253+934170728+937094713+940409354
1418+944879460+950698081+955660185+960060016+965271854+969748905+972637641
1404+976957862+981745437+983917758+985317728+988327521+993933749+1001655615
1391+1008004023+1010505463+1009622211+1009034471+1011158025+1014743684
1379+1017748624+1019159124+1019815346+1020949675+1022204465+1024192996
1368+1027502709+1029168469+1027437512+1026112672+1027838699+1029584367
1356+1029387060+1028961154+1028716574+1026037692+1020862672+1017045353
1344+1015764648+1013881866+1009516686+1004291929+999783661+996228472+993927103
1331+992481353+991959930+993049825+995720492+999782392+1003257224+1005596606
1317+1009175842+1012131940+1012666358+1013411674+1014742863+1015953516
1306+1018407982+1022347405+1026115360+1028380360+1028564449+1027143717
1294+1025996169+1026164351+1027861402+1031471183+1036523800+1041611518
1283+1045470883+1049163335+1053768614+1056875194+1057001704+1056110461
1271+1055456628+1053912524+1050433659+1045139224+1038702917+1032921114
1260+1028976389+1026370993+1024450721+1021932552+1018109930+1015013656
1248+1014344589+1013714580+1010954146+1008581158+1008034567+1007490666
1236+1006899043+1006715328+1005370099+1002560898+1000515311+1000458703
1225+1001203422+1001394904+1000904772+1000250119+999793220+1000056844
1213+1001493035+1003283885+1003937941+1002820191+1001276833+1001364733
1202+1002495627+1002543498+1002126404+1002920114+1003693510+1002772096
1190+1000614189+998429769+996794554+994447405+990967420+988782777+988647305
1177+988596448+988058446+988271511+989567749+990036297+987758377+984213868
1163+981823105+980558905+979441976+977155543+973220526+969557274+967820044
1150+967135219+965569831+962861002+960124690+957760066+955697824+954304053
1136+954054245+954413983+953285105+949263384+943784786+938726119+935045317
1123+933379034+932570986+930731593+927779154+924085507+919709499+917078786
1109+917396703+916109651+910845387+905146704+901865819+900493406+899547198
1096+899830015+901420122+901052244+897808624+896339499+898935784+901054559
1082+900611701+899785057+899478118+900683245+903277439+905873126+908655442
1069+911411395+912618762+912862521+912879922+911292652+909835700+911725652
1055+916423012+920382450+921110216+920915000+921764571+922506900+923109576
1042+923456170+923075820+922652080+922194136+922445363+925694658+929311086
1028+927035481+921007903+918004158+918091087+918637827+919178517+918537082
1015+915486363+911049490+907584815+906829939+907990631+907809455+904245379
1001+900137028+898833770+899086117+899755259+902430108+907108499+911992487
988+916470061+921311556+926077772+928956650+930153039+930880134+931281395
974+931894376+931869657+929898004+927428751+925285257+923970498+924839934
961+926197261+926145732+925874789+925921016+925287498+923114953+919719208
947+917610216+917823281+917349729+914695865+911982555+910503423+909106664
934+906499476+903798638+902158269+900220372+896934707+893556885+891142449
920+888281345+884421308+881737721+879793028+875894306+871824341+870559170
907+870282328+869379733+869361735+869890477+868547488+864804701+860548929
893+857750856+856731237+856881644+858447331+861139208+862957989+863121615
880+863261343+865289380+868489162+870686203+872328289+874395981+876829910
866+880524453+885602612+891331616+898814652+909449450+922418403+936176958
853+949145612+959740531+968652065+978093835+988743345+998741189+1005842829
839+1010505164+1014720981+1018990046+1022401101+1024052148+1024877074
827+1027590758+1032223743+1036843136+1040222900+1039681014+1035376625
816+1032620000+1034439155+1037272104+1036030458+1031308751+1026024175
804+1021860186+1021472069+1023662836+1021966158+1016091975+1011662570
793+1009354405+1006776939+1002167777+995280397+990154667+988501155+985225049
779+977889209+970297138+964846546+959975851+954016979+948314338+944119954
766+940298752+936576277+933551772+932409078+934355115+937271109+937687232
752+934175657+929404064+928211483+929510111+928124479+924545094+922917944
739+922990982+921869572+919504350+916270588+912199204+910018445+910886760
725+911750521+911281972+910634861+908298392+903039804+898621900+898785078
712+902115552+905815697+911191907+919928464+928818639+933736906+936915030
698+941869517+945113286+943198615+940212495+941739722+947540419+952796094
685+955123154+955242046+953790397+950923618+947499942+945420225+945972566
671+947789331+945799605+942143746+944848393+944931139+937687904+933303607
658+937892381+942921922+945159813+950628926+954537655+949470699+940589336
644+939322372+948233608+952380345+944684244+939273830+944588354+951655342
631+945786013+927839273+915389950+919493671+931802892+940214213+945101412
617+948555632+952191552+956764344+955315084+943737961+933855425+938769434
604+951271780+954310625+947803371
##END=
