##TITLE=Sample description
##JCAMP-DX=4.24
##DATA TYPE=INFRARED SPECTRUM
##DATE=13/9/2023
##SAMPLING PROCEDURE=Instrument type and / or accessory
##ORIGIN=Default
##XUNITS=1/CM
##YUNITS=ABSORBANCE
##RESOLUTION=4
##FIRSTX=4397.6552
##LASTX=599.8556
##DELTAX=-1.9287962
##MAXY=1.6741862
##MINY=0.28944319
##XFACTOR=1
##YFACTOR=1.5592074e-009
##NPOINTS=1970
##FIRSTY=0.32246643
##XYDATA=(X++(Y..Y))
4398+206814325+207004507+204810802+202289868+201418185+201466772+201584207
4384+201955129+201894787+201525203+202636745+204196734+203985316+203050978
4371+202719966+202223620+201368929+201447066+202602588+203297928+203089951
4357+202288435+200428436+198305853+197127260+196815992+197346189+198276895
4344+198934046+199033552+198661827+198535524+198421510+197619821+196315861
4330+195001790+194493249+194672364+194147252+192864336+191937758+191861647
4317+192919804+194554107+195123564+194200446+192951113+192364760+192595272
4303+192969787+192706361+192712860+193519766+193644159+193116313+192778745
4290+192330317+191578381+190822891+191278869+192800955+193322321+192673370
4276+191774966+190437194+189292184+189439800+190367735+191260615+191457276
4263+190674319+190007306+189834575+189675568+189571379+189460117+189555992
4249+190154406+190497918+189662093+188528245+188354979+188243928+187617532
4236+187290132+187255211+187472783+187856836+187899192+188282901+189543473
4222+190616557+190724761+190180534+189464380+188923671+188457964+188129436
4209+188521154+189209746+189395781+188893509+187948716+187605356+188124390
4195+188864934+189596896+189774137+189142389+188507507+188361573+188088151
4182+187428783+186887156+186404266+186182451+186697854+187416933+188029739
4168+188815162+188989116+187902957+186912520+186998666+187245578+187172984
4155+187366740+187744351+187679537+187490425+187573321+187556788+187444208
4141+187453937+187570091+187517853+187019290+186752729+187018869+186668571
4128+185667469+185634823+186774806+187746989+188041647+187876485+187540904
4114+187751423+188780336+189368773+188484283+187087277+186468259+186906461
4101+187852000+188510775+188981203+189740039+190534445+190946576+190961542
4087+190593984+190371844+191258914+192586976+192886164+192426325+192216571
4074+192290464+192044107+191591436+191526277+191600725+191522722+191817513
4060+192837328+193609429+193377082+193400840+194092243+194081004+193430237
4047+193371233+193940995+194177547+193936465+193695001+193527851+193554037
4033+193878359+194538434+195241075+195298990+195068918+195340314+195566086
4020+195273569+195345131+196019388+196563614+196842369+196808729+196445242
4006+196246364+196479628+197018636+197346514+196996082+196603715+197066344
3993+198181862+199233845+199920641+200370980+200597230+200445141+200443574
3979+201347139+202395395+202192178+201353064+201421358+202266989+202914028
3966+202799135+202189999+202372096+203470181+204107377+203895577+203509594
3952+203273806+203020549+203226940+203482835+202750357+202749497+204274527
3939+205521394+205708575+204572988+203507166+204913003+207005215+206576684
3925+205255005+205883160+206433541+205540412+206126440+209367370+212223138
3912+212959649+212169620+208884652+202789139+198174293+198368393+202375077
3898+208446813+212334380+210860117+208003966+209495451+210944733+209267348
3885+208822761+208736654+208867908+212553137+214168499+211325078+208202424
3871+206318056+207885346+210619551+210604279+212378820+217567060+220091625
3858+216444528+206582819+199537180+207788477+218860125+223741761+222331395
3844+217616316+212895924+209327116+209035746+212936082+216892937+219641458
3831+222350126+223895359+223921163+221884993+216154266+213193678+216519721
3817+219466567+223959429+230160756+232490418+229329555+224912193+223469581
3804+221386563+220417209+224610119+228571752+232408725+237315362+240092879
3790+240918460+241246165+241286992+242042559+242374068+241721926+243826122
3777+248384754+250747330+249444918+247640637+249107809+252383908+256116616
3763+259131908+259062448+259571811+263857136+266479659+263809466+263516318
3750+276687422+293897760+312550080+341438947+367712421+380783368+382508653
3736+380479345+387022598+401185935+413393207+420592445+426475776+434788543
3723+446241281+460829249+477187955+491655086+499933219+504639181+516779058
3709+537076729+556925493+574652133+592962354+613859202+633566333+644830954
3696+646732161+644194389+640090243+637707904+643097947+652361700+656341339
3682+654326060+650439314+643614095+633898798+632535490+635352973+632278945
3669+632433537+638882750+643142138+642221772+636903138+628816907+621025143
3655+617284083+611188627+595942725+584487196+590727687+601510449+605480798
3642+602610255+598093940+595328599+592237330+586555917+577791454+566135613
3628+562689248+569407278+572247774+566398351+556997322+552933660+553806509
3615+552788663+549585196+546383258+543654386+542633061+542487070+541265204
3601+539675818+538994565+537882412+535041801+532780298+530650299+524632101
3588+519358384+521898565+526681020+528527333+527945281+526162311+524474718
3574+523851801+522970389+518937881+512147220+509787588+513657207+516221930
3561+514694129+512783746+512711305+512481367+511423458+511462297+511661960
3547+510917861+511142945+512002032+511202121+508960917+507345881+507747690
3534+508712859+507458193+504356144+502412045+502460556+502898108+503066921
3520+503517891+504106251+504003572+502804450+500866774+498977187+497525535
3507+495660146+493329223+492832991+494335524+494834470+493558741+492162518
3493+491450454+491047269+490415559+489525278+488708050+487888337+487097409
3480+486652785+486207128+485125289+483518663+482186013+481432701+480615168
3466+479049062+476957481+475430865+475089531+475129135+474184724+472270863
3453+470573522+469027601+467234424+465981632+465165627+464013985+462931037
3439+462301926+461782567+460798935+458990926+457186510+456295503+455639633
3426+454517579+453370447+452578029+452190096+452330658+452762668+452796270
3412+452043493+450734506+449220123+447622059+446324884+445955989+445686408
3399+444501049+443862038+444452959+444395197+443303725+442688605+442652863
3385+442046880+440886330+439982708+439156994+437905119+436831919+436486074
3372+435997947+434861672+433906175+433608115+433180502+432260136+432146944
3358+432835116+432491871+431378724+431033682+430977029+430289851+429835823
3345+430052726+429736011+428519534+426930913+424924197+422755052+421282108
3331+420283031+418507018+416142417+414189716+412237054+409612390+406316757
3318+402747797+399698387+397740258+396784685+396060273+394911001+393149400
3304+390553827+387388511+384464259+382453108+381891546+382826668+384198271
3291+385158738+385786319+385781694+385201935+384679059+384072503+383001903
3277+381884627+381295196+380756379+379861741+378905173+377736481+376220378
3264+374565737+372854864+371220599+370003091+369001797+367706725+366478207
3250+365425994+364116472+362717115+361433855+360271509+359102894+357737177
3237+356546351+355736845+354569606+353002812+352493660+353440250+354381144
3223+354402399+353736896+353013707+352789809+352676349+351946318+350762794
3210+349905006+349913225+350294354+350158187+349376970+348415509+348017713
3196+348220243+348109307+347496902+346851392+346469690+346425040+346275647
3183+345698143+344996057+344605333+344499634+344310140+344064184+343764404
3169+343307203+342968086+342794419+342739333+342973706+343326393+343461298
3156+343330330+343033035+342832608+342915256+342770641+342191685+342058348
3142+342442229+342176738+341033124+339939396+339333795+338805376+337923582
3129+336919192+336484889+336535196+336206937+335830319+336241876+336559471
3115+335826420+334713463+334006981+333654905+333256651+332472910+331314539
3102+330522465+330570555+330685200+330526746+330623691+330924236+331275700
3088+331895560+332680600+333394652+334208707+335323804+336609205+337850873
3075+338747079+339002401+338667490+338208836+338050344+337888795+337257544
3061+336206363+334990384+334048725+333708347+333844552+334162834+334397131
3047+334534406+334908003+335622017+336234804+336854473+338135745+339584797
3034+340333483+340743474+341241502+341398235+341066229+340661552+340457532
3020+340692134+341415552+342397388+343600179+345137116+347171738+349695405
3007+352560864+355818193+359524581+363750558+368655685+374468983+381611071
2993+390294836+400199091+410920575+421832660+431837034+440315708+447051169
2980+451759654+454835670+457319083+459924213+462474409+464729642+466984569
2966+469478418+472787775+477347708+482258837+486871676+491639604+496468505
2953+500595243+503974366+507430402+510798438+512809894+513184256+512192864
2939+509721339+505496777+499817581+494354600+490227823+487010174+484030071
2926+480650375+476758775+472856126+469135403+465303552+460844999+455516082
2912+449949924+445165099+441288866+437642228+434008587+430805005+428511239
2899+427520687+427649590+428280536+429514291+431895866+435246126+438887337
2885+442580880+446502145+450836382+455563943+460079340+463627351+465910376
2872+466694613+465785104+463497492+460430995+456980808+452979876+447898024
2858+441878411+435275600+427465640+418053296+407906066+398058541+388834735
2845+380083996+371921042+364756707+358410517+352327791+346583761+341661470
2831+337616997+334009045+330555838+327310741+324427392+322049525+319986767
2818+318029633+316439367+315374845+314535159+313910922+313770149+313729303
2804+313359012+312984784+312909094+312878741+312566212+311971774+311120848
2791+309792441+307920955+306017492+304568765+303353932+301953027+300397377
2777+299158289+298345170+297416719+296103183+294630563+293354433+292460176
2764+291677448+290741791+289862921+289212270+288578801+287855919+287187147
2750+286702384+286327028+285799125+285120376+284575557+284175927+283701581
2737+283125205+282466659+281780533+281272603+280926511+280643646+280437638
2723+280130575+279662250+279361781+279269041+279053648+278818434+278752970
2710+278645034+278438510+278211572+277871080+277299769+276539137+275839803
2696+275288161+274690894+274008207+273332593+272703903+272134485+271483375
2683+270667102+269826957+269015539+268143703+267229415+266408651+265666101
2669+264973303+264432728+263978355+263497855+262989161+262427809+261816493
2656+261182299+260499861+259842003+259421156+259239174+259074681+258788319
2642+258382954+257998117+257819767+257846832+257848323+257748281+257652350
2629+257537648+257472355+257574346+257762215+258014020+258431751+258975634
2615+259391167+259553347+259811784+260413906+260983171+261371200+261900403
2602+262511317+262974424+263370844+263794194+264217411+264629733+264998017
2588+265199438+265207963+265115319+264941135+264696689+264453180+264286374
2575+264211620+264080538+263756636+263308036+262802763+262301639+261863876
2561+261438327+261158158+261169970+261212919+261016429+260668291+260397774
2548+260322045+260368167+260373672+260283493+260182209+260162140+260247807
2534+260441181+260728060+261005420+261194321+261369327+261638869+261972137
2521+262282716+262629421+262993213+263219386+263352475+263547455+263909049
2507+264373074+264699403+264847630+265029421+265458506+266075957+266595374
2494+266889324+266962224+266972469+267139122+267347653+267474989+267695772
2480+268089153+268408696+268466554+268397477+268314102+268200261+268084336
2467+268035443+268021509+267914931+267836545+267923436+267980835+267958223
2453+268008492+268091943+268128106+268141008+268131910+268178701+268374311
2440+268573763+268654595+268722468+268802421+268773502+268686496+268650658
2426+268580185+268546354+268655264+268741410+268802421+268972323+269229652
2413+269456685+269589526+269764474+270046784+270379020+270805352+271224307
2399+271478673+271709815+272042147+272396745+272693716+272843338+272765220
2386+272271378+270988921+268613825+265112050+260859983+256501911+252374428
2372+248080884+243168322+238160286+234091558+231472935+229972256+229370765
2359+230320011+233245105+237902575+244371571+251448595+255416727+254109097
2345+249740016+246777344+246303342+247104362+248802256+250845460+252318616
2332+253330861+255129447+257968759+260734081+262796188+264809403+267735663
2318+271352445+274468696+276618478+278486103+280588465+282782342+284972665
2305+287086991+288966429+290682080+292317282+293839540+295306101+296687089
2291+297889594+299061955+300285733+301393796+302258713+302849520+303299630
2278+303791714+304326956+304853158+305329129+305677802+305935035+306309187
2264+306831528+307304995+307733144+308215155+308619831+308821462+308915942
2251+309058664+309285755+309496063+309642742+309819335+310120720+310454045
2237+310596959+310661850+310947696+311336165+311502760+311507615+311653205
2224+311879970+312026554+312269146+312658952+312972781+313175922+313467961
2210+313913904+314361663+314728265+315138179+315646643+316153903+316700844
2197+317349202+318012736+318593412+319041878+319517868+320206212+320974911
2183+321680017+322323348+322902840+323527783+324251010+324937538+325584195
2170+326334830+327203551+328052432+328911519+329890220+330812115+331636759
2156+332588128+333593053+334514260+335544148+336827675+338240412+339532540
2143+340578254+341618540+342885133+344327763+345871505+347364328+348685090
2129+349952791+351240026+352544617+353996422+355650986+357329098+358867603
2116+360313177+361795870+363441412+365320639+367234042+369044077+370984506
2102+373108848+375366527+377864735+380481906+383164943+386097262+389156802
2089+392149635+395328292+398877909+402564572+406392715+410596864+415019406
2075+419450474+424066295+428945580+433931864+439086655+444582435+450402768
2062+456383847+462427619+468611800+475140450+482058333+488962798+495624403
2048+502347670+509350876+516473926+523465970+530443870+537589130+544744979
2035+551786184+558700091+565524660+572381685+579116917+585306565+591078425
2021+596794510+602123275+607095185+612524411+618383850+623813765+628491056
2008+632731826+636810398+640599128+643826564+646737666+649944956+653167842
1994+655258506+656414430+658268082+661097378+663803887+665790572+667092601
1981+667979862+668952065+670239644+671314832+671690532+671400920+670594090
1967+670056687+670540342+671077362+670891194+670574517+670208145+669814707
1954+669708434+669489697+669097023+669095724+669132804+668311065+667822365
1940+669357965+671685486+673486385+675143319+676971665+678836327+681062775
1927+683825172+686242222+688351159+690964851+694396154+699872553+707047478
1913+713614738+719337322+725426508+732272217+739352185+746190249+752880830
1900+759563537+765743935+771682810+778130877+783797114+788704611+795212542
1886+802054887+806688369+810063936+813909549+818092328+821640531+824286182
1873+825185828+822756163+819198098+819319203+822112259+823792817+823387911
1859+821910035+820131538+817618689+814050150+809453672+803993252+798005139
1846+791167075+785766443+784518773+783470727+779871453+775678275+771575620
1832+765221976+757133796+751948002+749283620+746848374+745937870+745410331
1819+743260797+740436318+737749993+734156987+730235837+728422476+728304735
1805+727247133+724048712+720311283+718745636+718760698+717099482+713170763
1792+712105744+716808418+721054808+721099764+719306663+718235910+718611458
1778+719936271+719158035+714233794+709234092+710804861+716757423+722094903
1765+724110717+722745382+722530697+724946906+727307838+728962478+727922613
1751+723532564+721414988+724862499+729271051+731096950+731162855+732194539
1738+733842298+732191557+730017023+734845083+742709632+749677058+754488451
1724+756726137+756983103+753691636+747759183+748037020+757377993+767447047
1711+773878752+775810007+774924428+775120765+774895299+771350537+771732277
1697+779593691+791437650+803639800+810586506+813564507+814102063+810166539
1684+810140009+822508525+835585627+842690519+845498484+849345549+853736210
1670+857423332+866182099+876665540+882023816+886820300+896422367+905127004
1657+906160447+899022145+898412721+913293398+922575424+926697498+936777715
1643+948802948+956133077+957040980+951163957+948808224+959972496+971146250
1630+975058073+976243203+977103016+976702927+979407142+984958849+987805577
1616+991225947+999092637+1004856736+1006216719+1007054360+1010157747+1014623564
1603+1018628967+1021543969+1024714866+1029613494+1035584940+1040035465
1591+1041104230+1039972313+1038440460+1037110677+1037198983+1038294201
1580+1036438026+1030105253+1026094498+1028897111+1031065300+1030790902
1568+1032946782+1037884785+1042619264+1041962974+1031106585+1026726093
1557+1044090565+1060044747+1067665099+1069512941+1068478122+1064599404
1545+1056150127+1044742727+1035072615+1038740546+1050410187+1055027078
1533+1056185831+1061100591+1064361629+1062910894+1059955600+1054788997
1522+1049713375+1052065745+1057390763+1061621862+1065428712+1064680217
1510+1055825804+1041919012+1040738087+1058636368+1071142810+1071073542
1499+1064485562+1062208272+1067538260+1070179553+1064806674+1060230456
1487+1064102981+1070426579+1073741823+1073358936+1070212275+1065488347
1476+1059833272+1053784531+1053000866+1058039254+1059578371+1054727222
1464+1049082698+1044409459+1033989400+1017553321+1012071876+1019278988
1452+1022641482+1018230331+1009859114+1004124526+1002552381+1000591767
1441+994361980+982382085+967554697+959440293+957028365+952090821+946220144
1427+943257281+940910187+939343164+939618555+941226635+948779324+960609673
1414+968135756+970696159+973750615+978208174+983033788+990137533+995724333
1400+996328022+996637512+998569684+1002008174+1008702655+1015285817+1017802488
1387+1016970351+1016036453+1015617097+1016856357+1021207414+1025522155
1375+1029343761+1035380652+1040499700+1042553436+1042763687+1038933060
1364+1032509612+1031228072+1034352943+1035436847+1034606774+1033937563
1352+1033913021+1033854303+1032206468+1029964500+1029139550+1026733356
1341+1019471961+1011961246+1008911530+1008464956+1008121443+1006854889
1329+1005389398+1005447963+1007111166+1009543431+1012007501+1014069723
1317+1015713507+1017210115+1020043998+1024298492+1027506775+1028827307
1306+1028618050+1028336466+1031063235+1036044894+1039467404+1040340903
1294+1039693023+1038904542+1039844328+1043379686+1048244062+1053171973
1283+1059170560+1065533303+1068442876+1067207898+1064615842+1062901796
1271+1062643149+1061202429+1056359919+1050833824+1046922690+1043114463
1260+1038658433+1035420027+1034103700+1032837757+1030329725+1027088108
1248+1024488483+1022415328+1019026228+1015464187+1014006036+1013763597
1236+1013072826+1011552593+1010552714+1011011139+1011026965+1009668359
1225+1008724292+1008622071+1008984621+1010154766+1010907389+1011006093
1213+1011943585+1012923509+1012738870+1011967286+1011402665+1011054794
1202+1010220135+1008789431+1007920061+1008287733+1008564271+1007394050
1190+1005177924+1002570501+1000229906+999356942+999210301+997394493+994241334
1177+991924287+990696419+989428718+988351925+988576703+989104854+987902445
1163+984904413+981963493+980691511+980732032+979821681+976284182+971885723
1150+968892202+966971192+965388420+963383539+960099947+956615737+954400223
1136+952972272+951342632+948406299+943641544+939401882+937742042+937100508
1123+935347164+933035622+930843885+927962753+925293860+923465972+920774678
1109+916644270+912095041+908469619+906000962+903150182+899528659+897816754
1096+899446547+899839831+895988484+892657338+891838351+891510894+894033911
1082+899985861+905152617+908341786+909323469+907297410+905560199+906479418
1069+908085891+910235884+913140029+914313920+914626468+916162909+918070921
1055+919912112+921308105+922323963+923776533+925358311+926659806+927306616
1042+927770545+928509483+927635067+923805968+918751830+915857165+915922229
1028+915877349+915050106+915378633+915365712+912796211+908833775+905641088
1015+904710401+905639788+905029524+901319237+897991836+897589147+898388944
1001+898333285+898192989+899646171+901960618+903450804+904381873+906118856
988+909348164+914391063+920587898+925048974+926942995+928865381+931274098
974+932711147+932632781+931335185+930494180+931326393+932095607+931391227
961+930191800+928608186+927231919+928528444+931869530+934099877+934545074
947+933697035+931201695+927474129+924330985+922757922+921202750+919203068
934+918116489+917334201+915824443+912863721+908352031+905111102+904328278
920+903096052+899994576+897131870+896403941+897073535+897184089+896532615
907+896582387+897319873+897042417+895577539+894494629+894230400+894406400
893+895065825+895806445+896449738+897227439+897863086+898237945+898677256
880+899977298+903674970+909475844+914066741+916134774+917220665+917936819
866+918641964+920088112+922776959+926787180+931709815+937403423+944658243
853+952991385+960250028+967425641+976278142+985630660+994176424+1000378840
839+1004512841+1008960232+1014426921+1020316789+1025001267+1027795546
827+1029754248+1031167443+1033364838+1036959755+1039508308+1040348472
816+1039860613+1037600831+1035054648+1033552000+1031774420+1026772272
804+1020275274+1017791173+1019416837+1021314681+1020278715+1015491252
793+1009187991+1004736014+1003735064+1003027778+999431791+994256090+988837797
779+981936658+973529048+966598703+962325019+959522711+956257545+950264539
766+944263276+942686009+942932653+940113220+935640217+933845816+934727955
752+935537767+935534173+934458910+931772279+928414679+925924843+924730692
739+923508405+922375876+922760827+923100517+921592441+918654197+914082949
725+907813864+902950482+901833932+901659844+900101690+899384694+901725901
712+905260724+906296843+905385575+907205129+914439842+922099568+923744345
698+921658728+919826865+917837886+916768510+917753404+919023704+921420876
685+925577814+928658341+929687579+928488305+926472338+927231154+929907540
671+928591902+920813441+917060644+922791027+927049880+927135050+925968576
658+924568225+922735368+923666208+929922067+935955670+934754791+930006932
644+926522875+923233243+922547365+924597584+916055643+888411177+868667882
631+883105961+910146355+915597065+908324890+904327667+905339702+910473812
617+913641804+909228589+906295849+915076483+924896905+922208363+914889397
604+916464754+927389875+936289167
##END=
