##TITLE=Sample description
##JCAMP-DX=4.24
##DATA TYPE=INFRARED SPECTRUM
##DATE=13/9/2023
##SAMPLING PROCEDURE=Instrument type and / or accessory
##ORIGIN=Default
##XUNITS=1/CM
##YUNITS=ABSORBANCE
##RESOLUTION=4
##FIRSTX=4397.6552
##LASTX=599.8556
##DELTAX=-1.9287962
##MAXY=1.8578219
##MINY=0.48387918
##XFACTOR=1
##YFACTOR=1.7302315e-009
##NPOINTS=1970
##FIRSTY=0.49988854
##XYDATA=(X++(Y..Y))
4398+288914249+288532589+287686248+286425968+286948817+289483036+290927962
4384+290109834+288603727+287522753+286988157+286561628+286301108+286375035
4371+286373726+286149498+285558681+285095102+285624289+287165173+289369010
4357+290217108+288172460+285949539+286136545+287570913+287757454+286431962
4344+285817221+286886671+288175750+287903173+286524871+286288964+287358294
4330+287946441+287357536+286168961+284840627+283880449+284004965+284664542
4317+284955239+284733991+283741775+282458535+281533167+281164805+282626060
4303+285542060+287037316+286695290+285521924+283494897+282040841+282424706
4290+283441415+284052660+284938686+285939979+285490713+284130600+283629833
4276+283583448+283491262+283938100+284004431+283052882+282655824+282853699
4263+281922561+280278055+279712248+280532288+281841537+283080941+284076498
4249+284467408+284030733+283217411+283202150+284123779+284213622+282925060
4236+281796633+281701950+281895295+281589354+281272992+281257903+281205041
4222+281322702+281845964+282376701+282413613+282685071+283822575+284760999
4209+285063271+285072262+284540715+283942113+284003656+283785732+282674891
4195+282199048+282922063+283515549+283222475+282196930+281311712+281822297
4182+283219185+283510967+282428306+281505918+281354532+280955355+280213997
4168+280710578+282457088+283570374+283319173+283191333+284307444+285317142
4155+284887943+283371380+281683916+281078906+281999761+282927833+282939235
4141+283005739+283066628+282535390+282229932+282278918+281813254+280981864
4128+280659904+280962348+281132802+280855143+280892658+281940147+283332126
4114+283766199+283285482+282717918+281922802+280911019+280500078+281038567
4101+281897327+282046973+281485232+281164047+281633999+282589441+283248432
4087+283203803+282429770+281160947+280272491+280641233+281817716+282709874
4074+282949243+282500649+282097028+282377029+282349590+281641888+281108377
4060+280824708+280403225+279927261+279661522+279912069+280832924+281837868
4047+282155332+281790001+281321737+281165167+281158587+281090085+281459791
4033+282467026+283132029+283048077+282691599+282341736+282470661+282855214
4020+282529035+281925713+282110170+282374772+281698729+281197566+282028491
4006+283120661+283213638+282854508+282831221+282727529+282385486+282420503
3993+283174074+284149013+284339344+283932777+283926094+284181619+284258768
3979+284437179+284659116+284457176+283906338+283389965+283146773+283143793
3966+283106761+283090638+283405019+283954583+284537460+285005931+285063099
3952+284908285+285020313+285413617+285463947+284809572+284673705+285719541
3939+286549812+286303157+285474729+285138594+285904928+286827556+286499361
3925+285385782+285468356+286404317+286528677+286665440+288009827+289046154
3912+288802445+288311703+287572825+285455954+283004981+282897518+285197966
3898+287750702+288753734+287823337+286404627+286601640+287123645+286634918
3885+286679960+286827487+286660014+288101271+289441904+289070303+288190253
3871+287288449+287218931+287691501+287520342+288620744+290934129+291330498
3858+289039781+284540388+281522006+285279249+289853052+291288539+290350770
3844+289003403+287717820+285891406+285542439+287955794+289924017+290622021
3831+291953714+293548838+294026403+292852521+289560684+287040726+287758212
3817+288895165+290629703+293093319+294378506+293523483+291447487+290403133
3804+289613253+289537052+291591173+293000135+293606023+294895654+296431318
3790+297634620+297912278+297476706+297673375+298155040+298192658+299286274
3777+301356242+302150291+301093707+299816099+300313990+302124144+304118910
3763+305510819+305466380+305499486+307388080+309075665+308333497+308509910
3750+315179742+323265356+332227799+348868809+366934040+379272101+385366946
3736+385910412+385199455+386146939+387494960+387667825+387892363+390914741
3723+396670884+403562567+410862711+417722219+423171766+428366459+436470194
3709+447082880+457673690+468836043+482790207+498772277+511597997+518905616
3696+522614734+523643379+520555686+515095666+513515356+514777737+513078268
3682+507566471+500470919+492369079+483112890+477281649+474224925+469727788
3669+467230171+466114990+462523033+458087112+453624734+446778661+438221372
3655+432271454+427325895+419227224+410802804+407700367+407319947+405589715
3642+401710488+396646322+391445703+386856828+383202036+379347682+373528464
3628+369568075+369630945+368929840+365502859+360866514+358161514+357006441
3615+354913358+352086857+349208131+346335675+344400161+343431629+342032967
3601+339907261+337996206+336511491+335061294+333808420+332430221+330041635
3588+327919408+327752916+328125482+327585460+326056513+324453500+323153190
3574+321631064+319882470+317915987+315795310+315164377+315991393+316008101
3561+315112118+314284276+313437486+312227398+310955130+309949807+308562134
3547+306850401+306073129+306217436+306176407+305567109+304967594+304749670
3534+304383547+303426211+302121732+301151754+300961974+301168978+301106867
3520+300499325+299602033+299040240+298844191+298528914+298156866+297927849
3507+297349555+296281190+296152523+297384968+298005049+297286341+296210742
3493+295229602+294523536+294192688+294210946+294836746+295651946+295648570
3480+294782006+293839449+293370806+293502711+293891846+293896772+293646810
3466+293713745+293755807+293438360+293198251+293260087+293361298+293336425
3453+293313896+293287921+293164973+293103103+293167385+293231425+293426372
3439+293930808+294410681+294501902+294441203+294383329+294216768+294157964
3426+294324800+294616479+294950841+295239971+295657699+296013487+295799869
3412+295367397+295207210+295139483+295332845+296068916+296757998+296945055
3399+296861069+296797786+297158329+297999675+298547827+298413200+298173126
3385+298118662+298312024+299087952+300086179+300583691+300559301+300298178
3372+300007256+299927163+300067611+300391155+301067388+301585052+301104455
3358+299973634+299299124+299646438+300557578+301007206+300678597+300423331
3345+300701644+300685212+300005224+299292716+298689584+298112840+297851373
3331+297874970+297887303+297642130+296875710+295553180+294204780+293590900
3318+293491894+292850213+291423510+289775576+288151601+286575218+285374569
3304+284775760+284378615+283886805+283714974+283789969+283623495+283834632
3291+284805851+285806593+286646424+287331493+287789267+288446605+289097621
3277+289221120+289362809+290313979+291588314+292045830+291957779+292280497
3264+292731158+292733776+292408991+292143838+292484296+293639611+294760751
3250+294926658+294565288+294662882+295403500+296195205+296575349+296787452
3237+297233462+297841486+298044252+297658286+297710132+298752075+299727841
3223+300065544+300350643+300803613+301207079+301869532+303085063+303852068
3210+303643687+303877905+305099637+306214990+306537811+306299080+306442284
3196+307610586+309409303+311143290+312309594+312753882+312731662+312912691
3183+313706843+314520699+315037433+315846535+316790436+316968193+316594801
3169+316764255+317716458+318957344+320135601+321028621+321670336+322303989
3156+322990075+323646155+324011624+324019926+324246428+324906194+325506019
3142+325879583+326173880+326167025+325618115+325181957+325408494+325589557
3129+325342489+325068138+325022562+325367741+325767658+325671615+325043886
3115+324201851+323720392+323577911+322757303+321029758+319518035+318807663
3102+318529901+318501963+318473164+318039452+317604465+317712359+318092262
3088+318576580+319377483+320079380+320116723+319991914+320311290+320645204
3075+320648718+320550538+320410503+320418978+320843285+321248612+321140098
3061+320814521+320874255+321519690+322143182+322055750+321491615+320923310
3047+320380981+319835895+319540323+319472528+318992585+318089954+317338347
3034+316416424+314923717+313694682+313464598+313587305+313267756+312524348
3020+311603115+310908762+310909968+311235613+311049107+310272214+309354632
3007+308685014+308430470+308469915+308697622+308926156+308983583+309477305
2993+311270062+313938064+316385592+318553292+320534761+321810508+322470240
2980+323022250+323312172+323040439+322548543+321955917+320807355+319374107
2966+318369989+317750115+317293253+317055073+316828365+316518014+316402266
2953+316227851+315715939+315618346+316268363+316716233+316474953+316107968
2939+315937033+315670742+315177020+314639307+314191264+313797409+313346369
2926+313079631+313045147+312691047+311971512+311216666+310697831+310673854
2912+310651979+310241624+310035516+310372840+310994540+311615654+312031694
2899+312443428+313132717+313535252+313100714+312627282+313048730+314030766
2885+314763047+315001296+315180637+315656928+316104937+316248382+316204356
2872+316047476+315815566+315700162+315970689+316307979+316067388+315444275
2858+314947418+314614745+314429995+314264123+313775258+313094065+312814546
2845+313082283+313669603+314416112+314939322+315131410+315521992+316300779
2831+317002022+317354744+317630336+317946853+318212489+318472027+318632490
2818+318776625+318961409+318936502+318922102+319158525+319496297+320016821
2804+320753890+321405837+321870553+322395658+323064588+323605505+323870176
2791+324139636+324488845+324670528+324859378+325159531+325247204+325117125
2777+324987700+324882975+324908329+325123498+325068758+324595981+324360764
2764+324681277+325165146+325330570+325143375+324931858+324922832+325285270
2750+325884061+326174707+326092787+326062403+326062541+325910725+325827841
2737+325951306+326199924+326537213+326777012+326720861+326599531+326694059
2723+326898031+327003170+326855625+326563808+326474688+326615412+326825689
2710+327187506+327752606+328179773+328186008+328089586+328163927+328090861
2696+327733487+327429096+327391891+327657837+328055964+328264311+328193208
2683+327888542+327492241+327143136+326793789+326513512+326373856+326133368
2669+325665758+325208208+324867714+324610243+324485607+324313431+323944172
2656+323660279+323694831+323925536+324156068+324250182+324127923+323891362
2642+323703857+323550903+323372906+323234111+323234731+323262772+323060282
2629+322720477+322597081+322821068+323213683+323511046+323710264+323854330
2615+323913892+323997499+324101845+324256177+324507688+324735258+325027695
2602+325413420+325748918+326173053+326801850+327483181+328037224+328341787
2588+328556025+328919874+329216066+329360063+329706240+330216360+330589890
2575+330936860+331349007+331538890+331539854+331712099+331960062+331935225
2561+331659530+331565036+331858714+332194040+332457057+332745877+332689656
2548+332271756+332096411+332230108+332329837+332435974+332733889+333072798
2534+333287690+333571480+333961718+334279820+334457094+334456612+334500672
2521+334826524+335240463+335539238+335766498+335982321+336144644+336179438
2507+336177750+336422647+336988609+337559428+337926033+338152949+338250611
2494+338258603+338373525+338748502+339294587+339782280+340154467+340485039
2480+340807377+341095026+341312020+341485711+341530426+341346538+341130061
2467+341126099+341269682+341385396+341472207+341496735+341464284+341511789
2453+341524225+341481991+341706701+342145960+342445287+342618083+342828359
2440+343118522+343551752+344027423+344309216+344349693+344281209+344254993
2426+344321755+344448148+344553080+344577159+344608060+344715334+344826742
2413+344884961+344957062+345206438+345612591+345875609+345936721+346060428
2399+346335606+346691153+347042085+347291736+347488061+347708534+347841576
2386+347645940+346871735+345456572+343558263+341168264+338305592+335365202
2372+332300487+328795272+325363986+322603454+320573722+319391228+319303246
2359+320467034+322962274+326591401+331225335+335983389+338477940+337537932
2345+334737646+332828210+332491885+332805129+333534207+334915058+336388026
2332+337521741+338991849+341050759+343182529+345192486+347338828+349758074
2318+352183624+354358248+356222865+357924988+359777411+361780444+363569929
2305+364974585+366286538+367779865+369227341+370387685+371434864+372487072
2291+373442238+374419692+375614450+376828500+377766235+378522768+379373174
2278+380349871+381320056+382148898+382805977+383485345+384203605+384817864
2264+385537640+386539519+387622594+388583375+389408082+390143257+390722516
2251+391241765+391989066+392735471+393208662+393788058+394530881+395019918
2237+395337469+395833361+396448895+396962666+397414223+397875529+398201554
2224+398349960+398644567+399281803+399965408+400416862+400656695+400922917
2210+401492530+402235731+402793839+403110597+403405583+403896239+404569337
2197+405229172+405806881+406383315+407021309+407777223+408592216+409253084
2183+409720694+410293270+411237412+412377879+413423370+414331168+415157598
2170+416019097+416928894+417829665+418844531+419968496+421045026+422123209
2156+423239010+424299348+425395652+426600090+427763982+428881023+430086874
2143+431399723+432704167+433943984+435271095+436705205+438064732+439382852
2129+440724225+442017404+443461090+445198970+446876461+448317599+449792185
2116+451431369+453184821+455052091+457026911+459038281+460930321+462770066
2102+464899493+467241332+469527915+471885566+474341879+476805564+479360160
2089+482026543+484852906+487911076+491160369+494648084+498258195+501735506
2075+505354470+509476631+513874107+518184979+522394019+526774374+531408860
2062+536195540+541326675+546905854+552738163+558557244+564064114+569425403
2048+575054945+580925596+586784397+592496307+598391485+604949048+611860815
2035+618489342+624806245+630857891+636446129+641877625+647709073+654111064
2021+660736491+666674318+671626973+676637572+682111095+687031851+691426364
2008+696545339+702192486+707085751+710988196+714714814+718792466+722694567
1994+725796349+728424459+731571163+735212968+737736973+738899624+740589345
1981+743495182+746269080+747586476+748030110+749286807+751199343+752637794
1967+753852739+754963993+755614113+756452118+757775991+758681929+758926999
1954+759291538+759890605+760251079+760698708+761564410+762168231+762405791
1940+763142309+764344853+765223163+765759533+766857628+768893560+771489426
1927+774139032+776344522+778311281+780230156+782195881+785229731+789179302
1913+792658507+795550220+799038658+803942396+809206952+813990394+819421683
1900+825693458+830992463+835194338+839816008+844322550+848037455+852148178
1886+857067625+862050320+866443593+870215201+873975096+877881400+881499710
1873+884758166+887251581+888241988+889238251+891268534+892864554+893553119
1859+893513434+893230126+893835049+894596509+893925237+892345959+890697577
1846+888123759+884842980+883170621+882757992+881606708+879304417+876746583
1832+873535666+869235749+866035442+863726743+861081547+859955135+859394995
1819+857111306+854312812+852491703+850895546+848761434+846514191+844505818
1805+842534236+840135350+837140428+834802722+834195801+833517295+830798377
1792+828586549+829656808+831262129+831944011+832451720+831939051+830358947
1778+829999024+830062204+827108965+822937680+824254594+829255754+832161729
1765+832405490+831763844+831865330+832768650+833687059+834928117+835613375
1751+834943343+834629651+835938297+837731020+838769174+839072462+839984739
1738+841627885+841752796+840964467+843871682+848796985+852083896+853413074
1724+854321355+855580188+855610503+853462199+853680743+859605272+866206653
1711+869885800+870641955+870328814+871063059+871941231+872059391+874708032
1697+879774783+885753534+892210988+896342450+898638403+899890898+898011915
1684+898120773+906270222+913523860+916468004+918797028+923245075+927011240
1670+928976897+933247050+939159177+942782999+945139376+949266015+954248365
1657+957169084+956223323+955041104+959625983+963239263+964488589+969351057
1643+977096626+981892745+981212585+977229943+976572451+981702105+986321639
1630+987585571+986857871+986892871+988648527+992776957+996753192+996728871
1616+995962864+999842366+1004444607+1006478059+1007207275+1008120103+1008789170
1603+1009528031+1011544327+1015361132+1020651388+1024992850+1026019222
1591+1024721806+1023002666+1022440459+1024029795+1026775651+1028698316
1580+1028515805+1026925711+1027989839+1031952845+1032359274+1028950275
1568+1028261986+1029900997+1029922493+1028872352+1025534387+1023447126
1557+1030538923+1039297084+1045336535+1048348061+1050504152+1052435566
1545+1052279374+1049694808+1046669709+1050979754+1059401211+1061737262
1533+1060519699+1063361530+1067018492+1064699527+1058022702+1052124699
1522+1049925065+1053813110+1058688187+1061214259+1063740262+1066784170
1510+1068195819+1064520461+1060192847+1064433650+1069878719+1071989268
1499+1071600890+1070225964+1069109749+1068610102+1068206085+1067606398
1487+1067871654+1070120964+1072789241+1071270594+1064917589+1059357805
1476+1056065658+1052219571+1051260995+1054224706+1054519727+1050556927
1464+1046961285+1046364353+1044613107+1036282870+1026058631+1023379330
1452+1023514163+1022872724+1019797054+1012786763+1005279719+999543419+994051706
1439+986912163+976597736+967251256+960901489+953894781+949650672+950777772
1425+951228020+949898153+949588595+948938956+951715197+960888054+969606737
1412+973304280+973986300+974753753+977265977+981557833+985083957+987532726
1398+991847525+998100904+1003345617+1006671042+1008840154+1009919715+1010595259
1385+1011371118+1011505745+1012594676+1016808815+1022567162+1026358406
1373+1027359217+1028983829+1032233742+1033800686+1032938223+1032477296
1362+1032951175+1032619501+1032055710+1031880433+1030375290+1027113940
1350+1023540414+1020118669+1017478433+1016157730+1013062355+1005910685
1339+999779532+999207266+1000771730+1000074897+997526502+996071861+996121605
1325+995722135+995673493+998776654+1004353593+1009535403+1013430476+1016286431
1312+1018830623+1021940054+1025283668+1028039308+1029317432+1028891092
1300+1028020154+1027649966+1028087881+1030068006+1033546178+1037527649
1288+1042068157+1048188080+1055518333+1062761429+1069332083+1073445287
1277+1073741823+1072628984+1070964618+1067745916+1064666111+1062349902
1265+1060902633+1061914537+1063446963+1062038415+1057836609+1053218453
1254+1050600471+1049999475+1049126952+1047502133+1045622668+1042679557
1242+1039867007+1038913185+1038430073+1036950215+1035484137+1035855359
1231+1036759506+1034369163+1028972392+1024990507+1024195081+1024055425
1219+1023026711+1022740302+1023792098+1024564512+1024031380+1023301958
1207+1024582218+1027747043+1029623890+1028786850+1026729903+1024657731
1196+1022937626+1021465829+1020494507+1020615009+1021397689+1021594186
1184+1020410452+1018557994+1016389227+1013475191+1011051777+1010940989
1173+1012902925+1014081561+1012289458+1008210703+1003332458+999764305+998798426
1159+999005946+999280849+999731716+999092206+996424687+992801278+989456975
1146+988211439+989757439+990905691+989399170+986303932+982766370+979778269
1132+977052531+973307380+969377858+966723981+964767212+961404030+956748738
1119+954209093+954122627+953062357+950881257+950069295+949921923+947446973
1105+942602487+937640530+932869007+928285300+925830193+925959239+926359535
1092+924827109+922055622+921301053+922341411+922938066+925710655+930454412
1078+931576552+929056405+927503447+929403375+933150593+934905560+935000846
1065+936757328+939528057+941081704+942458766+943631821+942744830+941019145
1051+940735285+942273086+944203743+944788479+944710762+945837243+948098540
1038+949047953+947537918+946860652+948939301+950221077+949325749+947833697
1024+944886038+941624757+940417528+941132895+942574583+941987367+939045978
1011+936794120+936626560+937341376+937008668+936225092+935955081+935802748
997+937294663+940669075+943042744+943632993+944428763+945874379+947248891
984+949873074+953580607+955361342+955809798+957938880+960512699+960509323
970+959303196+959008038+958025761+955510506+953741828+955238359+958432258
957+959251867+958952161+960208790+960848300+959424319+957768289+956439111
943+954963387+954845090+956550519+957537343+955442021+951500855+949698900
930+949964915+948757548+946164714+944031154+941864591+939550311+939151805
916+940697323+940778347+938110827+935351674+933180357+929611447+926022005
903+924804441+924896282+924309548+922122040+919806589+919381351+919715919
889+919524521+919199667+918926901+919365573+920915362+923165223+926349545
876+929603868+930824945+929959863+928469602+927714206+929917422+936683745
862+945301286+950898688+953747615+957810386+963483989+969888667+977988716
849+986798757+994670271+1002574650+1011816750+1021586676+1029112874+1032269913
835+1031053728+1028828602+1031315471+1038015721+1043248860+1047165291
824+1049968195+1046865172+1040827926+1040179873+1044446305+1046790762
812+1047469958+1051126299+1053289486+1048309616+1043261813+1044100231
800+1044337860+1040386428+1036381188+1031777707+1026979176+1025386877
789+1023492736+1016655724+1007207826+1000767734+999265347+998971428+997005978
775+994107100+991385427+988955123+986317987+983260988+979683397+977350170
762+977021114+975370803+970103284+961669563+956183018+960237107+967565430
748+967897794+962741132+959459732+960934216+963390219+962468434+957806872
735+951335294+946289144+943337765+941015975+940206563+939393775+934957922
721+929047173+926103097+927010345+929405511+931057062+933881531+938581951
708+940964302+940566692+940904636+945054149+954056898+961849386+962704271
694+958757387+954254084+954669056+959472409+962227911+966039204+974404510
681+977718223+971090177+963149076+960297599+960516281+957577029+952242748
667+954900070+962069377+965146770+964878206+962175825+960259774+961238882
654+963624885+969067542+979608712+984706810+975339316+966751471+968237116
640+966288546+958791836+955052059+952866205+952218082+955943115+964169178
627+981005134+1001023690+1014840816+1025526740+1020596752+987240048+955604620
613+947126253+950811325+951201150+940360136+933785487+949022667+968347352
600+978476650
##END=
