##TITLE=Sample description
##JCAMP-DX=4.24
##DATA TYPE=INFRARED SPECTRUM
##DATE=13/9/2023
##SAMPLING PROCEDURE=Instrument type and / or accessory
##ORIGIN=Default
##XUNITS=1/CM
##YUNITS=ABSORBANCE
##RESOLUTION=4
##FIRSTX=4397.6552
##LASTX=599.8556
##DELTAX=-1.9287962
##MAXY=1.7997547
##MINY=0.4439294
##XFACTOR=1
##YFACTOR=1.6761522e-009
##NPOINTS=1970
##FIRSTY=0.44717047
##XYDATA=(X++(Y..Y))
4398+266783924+267361816+268513422+268647698+268765350+270167710+270891879
4384+269773683+268443297+268402722+270021503+271729007+271275078+269244099
4371+267875255+267939157+268301037+268080527+268385209+269607278+270309080
4357+269841176+269336379+270344231+271802510+271573519+270476658+269373344
4344+268004481+267422038+267856195+267876553+266984751+266426329+266907941
4330+266889432+265706373+265379110+266769184+268151133+268482893+268318284
4317+268202588+268710107+269887422+270976406+270993155+269374624+268091551
4303+268819561+269647070+269147642+268507252+268667967+268762291+268609008
4290+269763068+271359552+271420076+270892288+270587962+269835202+268727780
4276+267648753+266894268+266580732+265843654+264850292+265199566+266658911
4263+267542481+267774921+268301375+268382844+267528737+267197047+267607681
4249+268585378+270093317+270135812+268140002+266073018+265326392+266007996
4236+267515313+268779449+268484494+267067394+266812248+268173376+269012032
4222+268202500+267544757+268657939+270520380+271018688+269452643+267661750
4209+267191802+267208729+267214312+267311107+267105799+267375596+268657424
4195+269354728+268685285+267961347+267824884+267538462+267103399+267363025
4182+267620322+266857854+266385950+266995295+267597564+268206127+269348327
4168+270335146+270179409+269096968+268701519+269048997+268360423+267128682
4155+267138515+267960920+268015576+267176955+266876097+267797129+268944574
4141+269122785+268897954+269131604+268572097+267434555+267498813+267685256
4128+266887565+266566205+267512663+268303971+268060702+267732676+267582202
4114+267481264+267951959+268114203+266731739+265331104+265861167+267020241
4101+266961584+266575042+266903389+267034714+266590120+266401579+266638358
4087+267001020+267250281+267390122+267697791+268164290+268266668+267819603
4074+267704761+267680384+266835593+266331489+266820800+267186183+266984449
4060+266646803+266756667+267270977+267440085+267631506+268526579+269071791
4047+268494931+267686696+267934143+269337979+270090259+269322225+268768763
4033+269503370+270371951+270738863+270949025+270623896+269901184+269261204
4020+268657655+268558797+269088291+269541864+269825636+270820830+272360062
4006+272911052+272292088+271557517+271242327+271369296+271976614+272665757
3993+272614976+272234356+272550203+273197580+273126122+272626889+272863046
3979+273557149+274099712+274851210+275139018+274527344+274285604+274525441
3966+274482502+274551080+275148655+275850546+276162553+276096233+275792920
3952+275254945+274788232+274751552+274372905+273510103+274249510+276239630
3939+276779455+275961317+274659290+273510032+274428059+276534319+276719820
3925+275787533+276138710+276430607+275645594+275597712+276892181+278038649
3912+278561173+278606157+276708050+272169600+268266739+268287809+271925460
3898+277082518+279484446+277285871+274830140+276241017+277514773+276222401
3885+275579576+275679358+276116876+278274485+278413029+276012897+274953837
3871+274835048+274980383+274906595+274047687+275735935+279744819+281464911
3858+278566916+270875344+265760265+272460769+280484386+283388747+281775905
3844+277827740+273722505+270811975+270904468+274180665+277353204+279552277
3831+281570454+282548650+282380627+280382008+274992242+272471615+275986938
3817+278492186+281750248+286642754+287737552+284079330+280321520+279647348
3804+278517505+278286522+281867650+284338867+285981526+289101187+291309541
3790+291778299+291837827+291949682+292274064+291963728+291095290+292521546
3777+295754751+297311444+295954068+293506214+293259158+295209806+298012677
3763+299575290+298379500+298546314+301660658+302307075+298651893+296810540
3750+304195226+314268065+325954920+346839152+368272188+381868280+387370932
3736+386656275+387401230+392558662+397303948+398543797+398553718+400969977
3723+406648510+415250927+425065455+433508063+438519733+442026522+451995667
3709+468883266+484876627+497245068+509164665+524687989+540211633+550622403
3696+555777914+554755517+547691408+540742835+540606887+543781684+543530450
3682+539103998+533152254+524432274+512048863+505779528+504188236+499713991
3669+498143786+499162414+496232734+490095329+484102264+477930721+469787709
3655+461868870+452746454+438220279+425881069+426037890+430132670+429637776
3642+425137003+419767347+414180132+407958947+400989108+392833970+384355019
3628+382268228+384870218+383715430+377963144+371210757+367933368+367084897
3615+364925314+361963702+359171961+356893606+356854952+357498667+355260851
3601+350925184+347590828+345242028+343209929+342028541+340247641+336216229
3588+333362507+334839544+336592991+335898924+333864335+331855208+330139419
3574+328778664+327113655+323311857+317936512+315869528+317889643+319723137
3561+319705962+318476212+317231456+316464489+315613066+314336483+312434215
3547+310566512+310225488+311155285+311962222+311794341+310531769+308997516
3534+307840309+306598753+305076875+303986984+303515738+303108571+302563964
3520+302202208+302385379+302664635+302027286+300659349+299444712+298788196
3507+298626396+298339601+298030777+298002844+297652806+297197988+297038197
3493+296610637+295644852+294704102+294275368+294076123+294107291+294628376
3480+294941858+294478311+293524190+292606643+292573340+293446241+293755048
3466+292959437+292121119+291807600+291685593+291470968+291334896+291391864
3453+291283422+290708820+290081232+289997451+290049939+289916178+290105022
3439+290397577+290278023+289947471+289865647+290326403+291010674+291100891
3426+290273507+289437820+289564770+290215366+290519798+290514464+290695395
3412+290957120+290677811+289937017+289670723+290282610+291073065+291291032
3399+291093032+291263971+291750313+291849793+291884304+292277869+292471993
3385+292269921+292320524+292685409+292617933+292106432+292061751+292750022
3372+293314206+293228630+292958495+293013027+293388136+293771246+293827520
3358+293306151+292606518+292619320+293278521+293647282+293223580+292317092
3345+291703319+291704582+291765443+291570341+291148133+290137577+288744338
3331+287768863+287383673+287211650+286954957+286373669+285324584+284487670
3318+284380099+284133328+283260178+282146693+280775697+279467572+278747296
3304+277953001+276214116+274234770+273497994+273871112+274182497+274459174
3291+275119122+275984929+276928809+277809657+278449816+279091734+279862168
3277+280397548+280860544+281606033+282293077+282716708+283199565+284191398
3264+285379329+285803867+285608196+285628216+285908645+286118807+286289124
3250+286621667+286993540+287091953+286966905+286899821+287162843+288048884
3237+289066409+289470944+289664197+289833429+289777830+290130341+290991222
3223+291678694+292118967+292614288+292960895+293089286+293670539+294529109
3210+294889674+295380976+296748131+298060381+298100422+297685201+298464810
3196+299858920+300671012+301351354+302214974+302954844+303346577+303224747
3183+303128876+303921767+305411285+306389836+306648289+307247126+308135567
3169+308402093+308226211+308289224+308558132+308896702+309532273+310509544
3156+311766142+312858913+313242219+313411877+313869397+314330225+314780846
3142+315389711+315868994+315920095+315548346+314960426+314787603+315222435
3129+315250386+314512472+314045457+314216894+314524029+314775797+314701369
3115+313985716+312941200+312224302+312097352+312064672+311539444+310527182
3102+309641017+309322645+308919319+308061957+307568130+307640353+307807345
3088+308250072+308986030+309447391+309908822+310944306+311873819+312037326
3075+311976980+312077758+312128645+312489227+313343139+313751941+313589288
3061+313638077+313634485+313291292+313112174+313062034+312848814+312710448
3047+312763931+312670052+312153608+311411356+310726143+310016179+309180225
3034+308211240+307172592+306345635+305839468+305343756+304535717+303661038
3020+303231148+303158320+302938628+302323682+301633384+301347478+301269210
3007+301034795+300894723+300970538+300958412+301032271+301837500+303497460
2993+305649469+308164407+310810385+313066764+314916865+316645171+317878050
2980+318086505+317738511+317501039+317087720+316284660+315645746+315336833
2966+314770534+313819044+313059829+312639470+312258618+311962044+311853905
2953+311729764+311497945+311262464+311200909+311530412+311960124+311776348
2939+310912906+310067386+309563033+309095058+308567662+307976292+307390933
2926+307268996+307300182+306741742+306041060+305813509+305797791+305691110
2912+305444641+305159482+305143657+305433297+305803907+306334789+306902333
2899+307086109+307056451+307190087+307505330+307892974+308260420+308653042
2885+308990759+309149750+309367166+309672452+309765692+309764020+309804168
2872+309562179+309196121+309236944+309417520+309291209+309064832+308794537
2858+308284423+307913635+307912141+307735086+307117189+306298695+305650002
2845+305696159+306402922+307055634+307407184+307772140+308159677+308449779
2831+308834578+309490347+310137511+310381562+310362395+310353221+310512851
2818+310941887+311301652+311479987+311865604+312449471+313030350+313598925
2804+314073265+314508062+314976037+315401411+315953450+316653528+317286219
2791+317852802+318239593+318328707+318324831+318415830+318410069+317992057
2777+317445743+317356628+317610565+317649397+317466723+317426078+317682824
2764+318131240+318354844+318280487+318249621+318220355+318107593+318056386
2750+318223520+318571087+318734309+318732673+318882489+319037070+319105595
2737+319186282+319087602+318844795+318770332+318836368+318930638+319078569
2723+319272445+319523786+319750199+319796747+319697356+319701303+320024547
2710+320543871+320970347+321120483+320919176+320580996+320420548+320398749
2696+320327877+320270696+320392740+320550450+320545436+320481747+320329513
2683+319999157+319777189+319849021+319897917+319622110+319250824+318970786
2669+318609919+318329774+318231734+317956497+317440088+316894023+316535183
2656+316519856+316704344+316856507+316764725+316406988+316168733+316256247
2642+316412926+316429533+316328470+316147930+315910458+315689023+315539101
2629+315432668+315416310+315700438+316172147+316418438+316514451+316693178
2615+316756938+316684928+316861521+317403995+317978615+318337491+318569167
2602+318839888+319159363+319506574+320026894+320742334+321390387+321802781
2588+322062585+322322247+322658293+323046043+323323983+323329958+323273097
2575+323575929+324264734+324996603+325484136+325572610+325318175+325030527
2561+324958162+325031878+325023131+324920610+324961824+325171951+325233399
2548+325099159+325104102+325310387+325535983+325777758+326017115+326167891
2534+326395584+326800262+327129231+327276273+327379683+327498703+327714057
2521+328096580+328420500+328560573+328781652+329089178+329216164+329257592
2507+329508115+329870333+330031991+330163742+330596726+331110147+331414757
2494+331769863+332343168+332814059+333155510+333611323+334134416+334635356
2480+335045474+335188925+335063468+334874606+334728382+334634609+334602711
2467+334685247+334932605+335099384+335025525+335073744+335380168+335582294
2453+335679516+335912614+336084833+336098524+336179068+336335107+336461276
2440+336605082+336902687+337238377+337309996+337240297+337319917+337451668
2426+337567560+337812073+338002250+337961960+338044211+338410697+338766763
2413+338990580+339170018+339334841+339552044+339915578+340208275+340175275
2399+340131109+340467048+340928622+341103971+341211576+341645520+342054856
2386+341656437+340118094+337678295+334637738+331052788+327120163+323218334
2372+319180379+314653789+310121865+306281946+303189364+300964528+300210932
2359+301250967+304135236+309000574+315752214+322517545+325771641+323920260
2345+319312059+316588488+316861627+317957492+318983090+320312053+321860566
2332+323391762+325381686+328040786+330694517+332815090+334900281+337778931
2318+341220466+344331255+346921403+349333607+351638988+353690752+355460487
2305+357271613+359303606+361097059+362491738+363930761+365505802+366943474
2291+368250034+369678068+371208517+372582109+373584485+374194488+374827712
2278+375857470+377014321+377851662+378435422+379082763+379808693+380565383
2264+381358238+382154862+382980503+383701561+384265051+384969005+385883014
2251+386752964+387544894+388253115+388733323+389200017+389815034+390276004
2237+390637795+391242144+391988450+392690199+393248213+393601648+394018025
2224+394593641+395163603+395776629+396266082+396417747+396472830+396720437
2210+397315790+398153735+398849190+399267842+399563883+399877703+400360649
2197+401143013+402086822+402889847+403546790+404259171+405017284+405701466
2183+406379638+407133839+407859413+408572186+409424889+410396079+411348706
2170+412289457+413359149+414477808+415510020+416593936+417796589+418943234
2156+419858737+420698567+421759867+422941077+424062012+425153609+426307971
2143+427707806+429287506+430767708+432116051+433391034+434689060+436124491
2129+437595411+439087277+440707195+442344325+443949450+445600093+447224670
2116+448842668+450596543+452444297+454298558+456250931+458400166+460671942
2102+462906238+465054975+467293609+469721887+472207630+474784123+477537849
2089+480397510+483437640+486729502+490167446+493730064+497446269+501186476
2075+504845677+508628272+512732476+517020420+521427172+526200871+531312394
2062+536276484+541143920+546534130+552435486+558309744+563954068+569622965
2048+575643163+581785689+587635944+593625667+600219525+606951394+613516057
2035+619956757+626148961+632350979+638673405+644983811+651561419+657981209
2021+663613194+669017522+674618783+680260582+685834106+691341772+697079941
2008+702455678+706434673+709968595+714507738+719645078+724128675+727214180
1994+729259685+731641734+735050910+738584618+741618632+744592335+747618454
1981+750153839+751803059+753104855+755133718+757509010+758948495+759534175
1967+759976049+760461732+760963845+761616948+762507238+763369009+764187894
1954+764898461+765225546+765613297+766245845+766353309+765630152+765407331
1940+767055840+769261865+770403354+771319888+772961142+774679136+776361143
1927+778421513+779971093+780925463+782572052+785189795+789325470+794796082
1913+799461464+802520725+805471314+809942821+815645145+821551870+827108894
1900+831522722+834639306+837945428+842769694+847841959+852222502+857571995
1886+863640093+868558523+872530336+876540127+880761715+884867092+888366947
1873+890506687+890525748+889896044+892263798+897073342+900986906+903236742
1859+904681988+905848582+906511641+906168341+904461371+901148777+896372873
1846+890672185+887113016+888283380+890134583+889346920+886989764+884271598
1832+880330367+875335696+871667712+869305221+867591850+867085469+866128966
1819+863656736+860649535+857439924+854070718+851511650+850057371+848923848
1805+847772545+845793893+842495168+839519189+837772035+835486497+831775200
1792+829997963+832281794+834425446+834532696+834519468+834713770+834662421
1778+835008494+834499341+831068900+826500953+826769718+831433678+835316803
1765+836261287+835075561+834273319+834215426+834602537+836875629+838182829
1751+835736985+833600658+835088150+837744227+839804099+840837840+841666113
1738+842956315+841833389+839335555+842208622+848287246+853886729+857827035
1724+860106527+861303633+859165030+852779165+850433245+857788985+866925590
1711+872170322+872162855+868712998+867515679+868197799+866216089+867166547
1697+874154735+883043342+892189548+898141008+900775038+900699223+896454876
1684+896183265+907361037+917920414+922456996+923879910+926065452+927829888
1670+928185706+932839211+940780986+945085715+947356460+952443802+957241754
1657+956070323+947061522+942832679+953602147+960063898+962322695+971613988
1643+982120592+985056032+981308180+974532714+972581871+981204059+989020590
1630+990813119+991781358+993928708+994573631+995848614+997814037+997287957
1616+998898701+1005845141+1010818334+1012524664+1014318686+1016278491
1605+1017735756+1019758147+1022283363+1024198788+1024748907+1024123827
1593+1023985923+1025607264+1028942546+1032866707+1035237021+1035734084
1582+1035138803+1031844345+1025617150+1023395550+1027617209+1029563786
1570+1029296585+1032912651+1037949568+1039949912+1035509769+1020013542
1558+1009345351+1023460341+1039455338+1047736288+1051712937+1055024037
1547+1056381733+1052277778+1041402910+1029328803+1034635695+1051339055
1535+1058912211+1059762887+1063972883+1067635391+1065536687+1061558118
1524+1056235936+1049113329+1047117040+1049110058+1053709156+1060879839
1512+1063054358+1056394179+1044572409+1043707224+1060453755+1072691013
1501+1073741823+1068364166+1065398215+1069164061+1071904346+1066524200
1489+1059066046+1060454750+1065933968+1067802027+1066379753+1063827228
1477+1059024155+1051425751+1045285252+1046445233+1050980748+1050865888
1466+1047081266+1045972137+1044671480+1034172698+1015709240+1007881614
1454+1014041529+1017497644+1014029367+1007488956+1003242830+1001281674
1443+996374197+987095990+976012169+963578688+953643468+948421139+942351547
1429+935554034+933415432+934658197+936134949+937156315+939112137+946934998
1416+958354510+965863160+968095357+969343314+972089288+974703617+977887909
1402+982402871+985879825+988650193+992024520+996904545+1003779224+1008314099
1389+1007412643+1004801941+1005682985+1009806783+1014684532+1017609375
1377+1017806593+1019062657+1023646748+1028439081+1031113721+1031353470
1366+1028322585+1023373573+1022098662+1025519075+1027639968+1027374830
1354+1028317465+1029498995+1027468282+1022483994+1017105839+1013004445
1342+1008531658+1002673935+998790384+996752133+993890516+992157373+992891909
1329+994516735+996442544+998529797+999921702+1000935458+1002746763+1004524498
1315+1005707308+1008492328+1012114937+1014167270+1017386411+1023548175
1304+1028552804+1029277596+1027928932+1027895434+1028791200+1028672571
1292+1029857799+1035227846+1041210742+1043702672+1045349759+1049856897
1281+1057374224+1065845992+1071382106+1071359205+1068348519+1065824869
1269+1064736223+1065403051+1065884041+1062369465+1056121218+1052140017
1258+1050951233+1050941916+1051748853+1051550284+1048797624+1043713127
1246+1038157312+1036149856+1038453530+1040131341+1038022183+1033898172
1234+1030324921+1028991903+1029710579+1030942960+1031273032+1029540600
1223+1026927764+1025367232+1024324174+1023027144+1022487977+1023575628
1211+1025081113+1025487141+1024755095+1023662822+1022655538+1021977899
1200+1022164591+1022592383+1022329591+1021203962+1019440593+1018316884
1188+1018419369+1018998862+1018508128+1015954536+1013271504+1012885389
1177+1014927196+1015902618+1012663990+1008851132+1007251910+1005245450
1165+1002578349+1001170157+1001186870+1000991288+998118861+993462084+990175094
1151+988268203+986499785+985319464+984512456+982593048+979343041+976938802
1138+977324206+978451115+977109776+974341897+972138148+969586262+965869134
1124+961901660+958414109+954684676+949990561+945342603+942059667+940970808
1111+940841937+937715040+931686414+927699880+927692412+928692015+927041941
1097+923198857+920539082+920674780+922114123+922369304+921390540+920963957
1084+921682064+921843437+919606546+916334206+915079778+916977636+920173805
1070+921711010+920686444+918864542+918336542+919132597+920435601+922884290
1057+926793801+930519250+932575566+932937358+932235751+930707507+928486973
1043+927707703+929245050+930446138+930274168+929000679+926628587+924567008
1030+923156612+921669618+920505868+921074692+924034385+926502561+925650107
1016+924727812+927771356+931705474+931435144+928892504+927773205+926769477
1003+924865787+923978128+924814580+926545376+928582204+931001378+933971241
989+936472346+938173769+940527796+942824145+943692245+944510277+946656205
976+950072848+952332071+950648215+946993033+945393810+946907119+950213169
962+953643752+954130503+950562870+947210165+946431107+946411834+945484063
949+944231910+944828827+946775617+947932610+947475872+945433496+942779694
935+940650978+939517312+937942057+935013018+932642704+931609888+931276758
922+931437633+931434575+930159379+927964805+927062495+927262344+925846614
908+922825758+920487306+919613516+919470989+919023355+916983611+914125123
895+913026591+913389805+914063817+915262914+915861822+916689313+920012574
881+923230791+923426159+922394908+921400355+919951553+918905223+919365944
868+921534986+925486742+931220573+937574078+942045728+944618594+948761025
854+955201796+962511734+972819627+985095504+992211212+993181726+993420692
841+995816396+1000371541+1005861783+1011482104+1016249332+1017733480+1017785754
827+1020521843+1023412619+1023490923+1020310329+1014766890+1012485974
816+1013989184+1015632216+1017299359+1017455967+1016901652+1018392770
804+1018367878+1014254393+1011178987+1012113159+1013198889+1010892015
793+1005933402+1002091171+1001621347+1001161694+994662106+984380740+979388700
779+979422198+978125737+975539785+973398337+970268595+965112693+960567007
766+959750540+959873366+955875879+950103288+945830634+937449688+926605473
752+925365908+931670412+934629819+935721808+938735908+940970239+940745355
739+939741983+940601620+941480602+936836271+927449392+920941128+919854402
725+917616017+910146270+902965132+903085752+909349575+914120998+913716819
712+910990758+910823980+914680719+919442897+923036346+925494850+925917806
698+923843994+921470409+921268425+922692335+924079617+924521206+924485575
685+924462532+921893862+918738943+920155812+923245228+924626821+922735790
671+912567720+899151705+902619556+917463605+921995778+918677850+914395098
658+910480324+910720002+918552393+928004134+929425697+922828674+914214878
644+906906220+903369169+906049356+913533256+918462781+916725798+913234122
631+916111527+924551006+923812986+913326721+908940132+906143734+892171412
617+877012511+875194948+880437049+883772472+887329152+883288495+868941296
604+857290784+845640770+832162098
##END=
