##TITLE=Sample description
##JCAMP-DX=4.24
##DATA TYPE=INFRARED SPECTRUM
##DATE=13/9/2023
##SAMPLING PROCEDURE=Instrument type and / or accessory
##ORIGIN=Default
##XUNITS=1/CM
##YUNITS=ABSORBANCE
##RESOLUTION=4
##FIRSTX=4397.6552
##LASTX=599.8556
##DELTAX=-1.9287962
##MAXY=1.8597199
##MINY=0.47727865
##XFACTOR=1
##YFACTOR=1.7319991e-009
##NPOINTS=1970
##FIRSTY=0.49982846
##XYDATA=(X++(Y..Y))
4398+288584710+288485684+288995369+288701235+288472435+289907059+291186839
4384+289986452+287910699+287200742+287671471+288204265+288806541+289286166
4371+288725909+287890153+287251898+285601620+283935614+284835018+287464489
4357+288372445+286960327+285595339+285295130+285532930+285995503+286347762
4344+286355195+285957751+285302168+284779371+284931308+286196823+287345435
4330+286935894+285982701+285575964+284701768+283258850+283151805+284925045
4317+287405607+288825056+287894558+285756998+284314131+284158013+284357200
4303+283492278+282134844+282218039+283375461+283494119+282493091+281284393
4290+280201219+280061568+281371305+283142996+283949035+283999004+283790267
4276+283488063+283809814+283959118+283250779+282684036+282517628+282297759
4263+281752713+281286097+281277097+281149577+281226148+282177689+282722046
4249+282355677+282591446+283422143+283629761+283172626+283048289+283357617
4236+282733644+281805641+282680165+284493220+285124748+284343951+283021601
4222+282106108+281624229+281406424+282508371+284128365+283660699+282211741
4209+282636872+284001929+283709877+282177259+281586804+282318493+283617166
4195+284028531+282315430+280658647+281217183+281984111+280841918+279336280
4182+279514406+280421209+280635762+280804338+281433749+281586271+281125178
4168+281335566+282125191+282314036+282096214+282108070+282174265+281952846
4155+281329458+280378089+279740074+280099595+281071389+281806295+282152446
4141+282656849+283148089+282457129+281025257+280335502+280010601+279382446
4128+278998733+279637453+281237487+282293543+281959110+280889822+279820345
4114+279490385+280089323+281007775+281639130+281876826+281903136+281579268
4101+280789953+280086552+280019170+280097909+280057197+280497229+281267117
4087+281900004+282200987+281838971+281254591+281318635+281701144+281725612
4074+281466442+280899182+280650560+281550343+282257047+281465169+280351091
4060+280067711+280360176+281017411+281947357+282620112+282630196+282297638
4047+282304934+282654389+282781702+282367171+281635276+281416232+282131333
4033+283044555+283252810+282613643+281704052+281451265+282138251+282783544
4020+282344871+281272899+281198032+282269677+282690919+282163407+282356899
4006+283774093+284998398+284988486+284058867+282788344+281961828+282096145
3993+283000282+284200256+284889375+284984219+284695625+284118884+284309416
3979+285211987+285440959+285075966+284921242+284830630+284831473+285661551
3966+286674194+286712755+286623330+286732835+286404390+286545590+287412662
3952+287502104+286580984+286357450+286753948+286188254+285774325+286599499
3939+287107205+286286419+284459065+283471682+285070856+286832153+285884570
3925+284413879+285034239+285574450+284783828+284764091+286723423+289272056
3912+290424780+289465703+286187428+280993356+277098576+277043840+280062514
3898+284956929+288427611+287377818+284457120+285079717+286576390+285513262
3885+284466498+283953853+284298782+287056497+287876887+285506775+283248198
3871+281676332+282057361+283463164+283020087+283600733+287009780+289236335
3858+287199572+280501256+275565183+281298210+289013781+292368712+291266645
3844+287893784+284362930+281443367+280955328+283355329+285772484+287688403
3831+289661999+290811901+291024681+289642383+285323763+283086402+285834016
3817+288153797+291094541+294965542+295597035+292067281+288298404+287500331
3804+285924077+284892988+288675596+292629293+295491040+298287745+299457917
3790+299455267+299335542+298802025+298657521+298783579+298560578+300124134
3777+303139882+304268655+302664972+300923050+301635518+303323686+305368863
3763+307038930+306007652+305018978+306763344+307187942+303851628+302539947
3750+310525322+319942757+329195385+347364384+367065071+379120495+384218726
3736+385195836+387595200+392983676+397434273+398565213+398584450+400866325
3723+405577745+412401723+421372708+430475051+436380009+438845757+444737844
3709+458414192+474171232+487116906+499337964+514898983+529524738+537808274
3696+541123216+540822406+536324696+531346707+532187058+535482143+534290325
3682+527692824+519133186+509760661+500052635+496390664+494212065+487307421
3669+483974412+484985970+483286446+478514940+472338595+464515860+456466166
3655+451425647+444421341+430112984+417879847+418014164+421240903+420205634
3642+415685761+410158942+404844937+399989393+394970005+388465765+380911079
3628+378770851+380969238+379826494+374074368+366614147+362689978+362153914
3615+360752310+358181359+354719023+351541082+351698628+353026553+351939456
3601+349412279+346940475+344182141+341881063+340991192+339412769+335199696
3588+332013943+333106099+334461795+333778647+332485928+331461946+330606213
3574+330160416+328923447+324806629+319357344+317817671+320195320+322114577
3561+322355852+321557452+320278429+318740512+317193096+316062500+314531912
3547+312434667+311849702+313197552+314223048+313760768+312742774+312144697
3534+311843129+311113660+309750013+308468547+307473920+306394360+305729107
3520+305854373+306017425+305740773+304949875+303567370+302494830+302222549
3507+301478867+300264542+300546563+301998928+302284941+301564247+301536269
3493+301965099+301708062+301064456+300621860+300057440+299439368+299241076
3480+299204563+299028295+298840981+298638318+298413459+298214616+297990479
3466+297591761+297334036+298050015+299000076+298499080+297144382+296603500
3453+296960991+297131511+296520356+296013304+296472590+297338441+298094615
3439+298535456+298228072+297475201+297177522+297423409+297651469+297772055
3426+297579200+296702577+295995890+296499846+297494404+297959300+298444982
3412+298965628+298498392+297693660+297730414+298590346+299518038+299289255
3399+298057689+297676006+298791735+300101524+300402679+299895901+299642891
3385+300013149+300406017+300635144+300948344+301286907+301444281+301375144
3372+301355803+301585825+301735731+301298951+300602588+300528909+301046939
3358+301492254+301608366+301706652+302053818+302154168+301584792+300816952
3345+300265092+299746614+299172420+298589176+298132573+298156560+298380525
3331+298094959+297352000+296943852+296973965+296331941+294907864+293767701
3318+293229882+292978593+292247644+290663853+289040142+287957019+287202050
3304+286446392+285483185+284467737+283946815+284022164+284285705+284495268
3291+284744183+285408627+286171340+286769193+287913572+288985252+288945607
3277+288723432+289168677+290028781+291223765+292610021+293488399+293504332
3264+293250703+293232842+293214431+293366574+294218453+295182521+295731248
3250+296255508+296341474+295554534+294956250+295559386+296877812+297834172
3237+298100259+297828975+297358367+297474995+298378529+299428734+300247782
3223+300696228+300949342+301661225+302901773+303779497+303610801+303000851
3210+302975281+303691019+304505800+304884524+305369483+306462430+307609717
3196+308816918+310598623+312349940+313061342+312792743+312181932+311923313
3183+312688607+313983253+314780173+314863110+314555623+314608689+315171768
3169+315752638+316613705+317767186+318596627+319238135+320224572+321350659
3156+321961986+322090212+322238157+322529366+322896664+323375188+323998559
3142+324575197+325008742+325372805+325501168+325599454+325880925+325667387
3129+324820085+324312757+324434582+324397346+323823806+323062298+322422546
3115+321993888+321687570+321500050+321396361+321078722+320520427+319681694
3102+318581141+317883023+317585275+317109505+316932515+317443559+317840350
3088+317855699+318176263+318753898+319199110+319769931+320546857+320994270
3075+320562240+319745841+319678700+320460581+321366455+321814179+321658594
3061+321353585+321413706+321722845+321930532+321958785+321712211+321106081
3047+320336072+319873551+319906932+319853212+319381984+318759921+317861962
3034+316626507+315652769+315231613+314936618+314497808+313953588+313151472
3020+312142391+311573325+311771858+311924724+311241782+310219968+309491497
3007+309016793+308997418+309347269+309310825+309098354+309583864+310923558
2993+313118366+315941294+318595698+320712697+322403859+323715403+324528119
2980+324773936+324897619+325156549+325116388+324404917+323172904+321889511
2966+320701065+319600891+318915230+318667279+318480894+318355834+318441972
2953+318503710+318430787+318301529+318194399+318425625+318865296+318890452
2939+318306003+317444798+316732983+316075542+315182746+314411395+314230482
2926+314445568+314491786+314097094+313300690+312415051+311981059+312022459
2912+312232762+312657565+313149097+313293601+313231381+313404344+313743630
2899+313962570+313964153+313884692+314055901+314440371+314888439+315474265
2885+315946732+316159891+316367956+316654623+316921089+317129602+317381786
2872+317711298+317956772+318008599+317800224+317208547+316418132+315993775
2858+316022614+315943910+315567939+315205493+314953102+314729034+314547742
2845+314408504+314464908+314927671+315539307+315986686+316411214+316932824
2831+317364373+317619689+317936261+318413649+318807171+318942452+318911617
2818+318953946+319172611+319424417+319625221+319958243+320502910+321081337
2804+321740774+322470691+323060440+323656693+324320431+324843865+325182600
2791+325311996+325283949+325359797+325582867+325628706+325481862+325486370
2777+325647358+325710129+325554820+325294651+325069207+324922088+325026017
2764+325426628+325839181+326017788+326025497+326131250+326315020+326432337
2750+326734696+327177429+327240613+326982131+326854181+326903289+326969742
2737+326920909+326744848+326657713+326764498+326972840+327161806+327206957
2723+327227536+327382226+327545519+327533165+327235073+327014446+327384532
2710+327965161+328228736+328314667+328326093+328279256+328294019+328341097
2696+328443547+328594142+328567402+328335591+328137574+328113278+328137953
2683+328036122+327853695+327619440+327235073+326892587+326812024+326716526
2669+326412205+326141953+326040226+325999721+325883850+325584140+325115906
2656+324710133+324502721+324364447+324245169+324232952+324355465+324463008
2642+324405640+324209929+323966279+323828590+323807632+323705973+323440299
2629+323214957+323336335+323717502+323970134+323978290+323993810+324180299
2615+324374358+324493257+324640721+324873048+325203524+325607714+326047315
2602+326496794+326869116+327138783+327519847+328135303+328714728+329040213
2588+329302068+329670639+330032707+330302442+330565191+330903444+331176449
2575+331302059+331540203+332035692+332533006+332738215+332785706+332884474
2561+332915378+332846481+332697779+332517485+332548492+332781714+332953095
2548+333018619+333121619+333270115+333324179+333237628+333246128+333569446
2534+333979383+334232462+334468575+334721688+334756962+334683110+334925934
2521+335397816+335661770+335700107+335735381+335885562+336209981+336588223
2507+336790507+336881016+337069569+337350695+337721263+338153844+338457786
2494+338764138+339338263+339873191+340073686+340335334+340951822+341598526
2480+341969782+342037371+341880994+341773107+341972053+342342621+342530107
2467+342426453+342262162+342300258+342473497+342489327+342363992+342359759
2453+342534375+342843066+343206820+343421941+343522257+343715318+343871763
2440+343915778+344072705+344267625+344360473+344554705+344900942+345197176
2426+345244082+344968083+344643836+344601679+344812842+345105704+345390753
2413+345645725+345885107+346101191+346345564+346658970+346814830+346732409
2399+346854131+347385032+347840189+347956473+348115052+348351199+348211273
2386+347630850+346667780+344980610+342315124+338841707+334869668+330659519
2372+326509630+322569458+318551993+314287402+310567926+308575402+308388535
2359+309502475+312371483+317194748+323543471+330133746+333749981+332385027
2345+328012342+325066866+324770254+325592640+326995553+328709118+330121907
2332+331246550+332933858+335429614+337891163+339865517+341849816+344537119
2318+347978911+351373796+354003009+355947939+357751634+359812194+362013162
2305+364031875+365819086+367520331+369227840+370810564+372107861+373161542
2291+374058916+375018062+376242023+377553498+378648958+379456374+380133362
2278+380851956+381691205+382563939+383301392+383985125+384896436+386085364
2264+387166955+387866690+388418102+389116323+389944698+390699736+391348918
2251+392019539+392753241+393487975+394179968+394820580+395416558+396046881
2237+396658311+397254633+397988232+398642128+398922153+398954536+399052788
2224+399379753+399954773+400634858+401113382+401377404+401725190+402307712
2210+402957100+403450388+403826358+404203809+404579710+404970100+405487271
2197+406091852+406687383+407375108+408141159+408857103+409555944+410312393
2183+411019390+411573039+412183849+413041578+414029942+414974222+415846715
2170+416742540+417732693+418746833+419707769+420680922+421632188+422515624
2156+423591296+424938045+426114584+426978198+428011884+429343836+430632942
2143+431818015+433047516+434294809+435509926+436949110+438658580+440183868
2129+441445925+442814148+444404237+446081083+447755279+449393479+451006591
2116+452720535+454581667+456430444+458176978+459896704+461700640+463692716
2102+465778742+467774363+469800131+472017962+474407689+477066188+480034102
2089+483040318+485938716+488907662+492146068+495660197+499172812+502558131
2075+506167690+510324118+514826714+519116427+523139398+527478254+532285068
2062+537150696+542057344+547302487+552793963+558396803+564287686+570400503
2048+576282473+581825811+587492660+593549349+599788981+606118295+612663866
2035+619253968+625737044+632312692+638791018+644800353+650494802+656137080
2021+661726016+667188792+672488790+677711564+683068207+688432008+693563654
2008+698712507+703819719+708224684+711902347+715611052+719631271+723018275
1994+725005121+726760017+729784507+733941692+738087452+741204034+743584297
1981+745703636+747350473+748878101+750246462+751215072+752190221+752753231
1967+752965771+754252571+756339698+757812952+758820863+760125971+761621388
1954+762462943+762267059+761557929+760668677+759724913+759233966+760171948
1940+762512361+764817740+766719790+768424512+769604629+770513566+771683841
1927+773076498+774708744+777072902+779797097+782303247+785593687+789762848
1913+793739085+797816706+802177621+806409415+810811902+815378473+819828864
1900+824468599+829224447+833895430+838628702+842459300+845461903+850189325
1886+856566681+862377242+867160345+871155923+875008065+879251904+883058619
1873+885059230+884608891+883149334+884190557+888392756+892631158+894847199
1859+895853389+896805825+897779666+897926475+896305999+893552828+890369552
1846+886273211+883441163+884217056+884858942+882812561+879994278+877538579
1832+873370588+867133915+862578907+860690003+859897591+859715680+859055623
1819+857316626+854780537+851625963+847740233+844367338+843108826+842449664
1805+840789268+838132730+835126617+833802857+833886964+832012927+827847276
1792+826465218+830195879+833464294+833011890+830697976+829191891+829720900
1778+830876859+829224997+824186819+820027432+821558914+825906407+829315230
1765+831152789+831151619+831194430+832350251+833503319+834632848+833802513
1751+830252662+829038406+832283419+835441779+836035486+835323533+836288289
1738+838799257+838378583+836210789+839339691+845489572+850863009+854502473
1724+856273888+856179113+852576196+845670038+843471410+850886273+860876113
1711+867969344+870558844+870095703+869797267+869244513+866391885+865747522
1697+870081938+877587309+886697808+892926359+895785181+895824757+892244347
1684+892824907+902912345+912114247+916523547+917426358+918270942+920200729
1670+923133609+930890408+940374916+945247564+947055389+951243202+956541067
1657+956530605+947240948+939112618+946080721+952342309+954865115+963117403
1643+974261069+980412189+980535046+976733906+975606166+983248160+990596535
1630+991029185+987719543+986081791+987255370+991655654+995504216+993542562
1616+991516760+997618806+1004590350+1007193271+1008189000+1010108463+1011930054
1603+1013632435+1016006091+1017447685+1018102648+1020517257+1023616149
1591+1024716014+1024271663+1024764055+1028160627+1032530283+1034233421
1580+1032816399+1029575447+1028786751+1031700016+1031327521+1027543037
1568+1026956695+1029160898+1030012502+1026385082+1014988751+1009199526
1557+1022990300+1037636256+1046622659+1050281120+1050787966+1050719551
1545+1048989983+1042905902+1035487804+1041424250+1055632257+1060730728
1533+1056531764+1054126310+1056179436+1057375453+1056192789+1052541211
1522+1048648323+1049581901+1052974480+1057619378+1063566355+1065176163
1510+1059113074+1048078018+1046012709+1059169443+1068025693+1067088537
1499+1062586595+1061357541+1064322908+1065790724+1062049120+1059275300
1487+1064107959+1070089901+1070495364+1066345475+1061179002+1055933653
1476+1050864571+1046554658+1046239840+1050499166+1052992169+1050814121
1464+1047751844+1045750339+1038359978+1021919549+1011368902+1015529391
1452+1020313665+1019064582+1012623973+1005224941+1000865884+998538824+993661358
1439+982660441+968703518+961606225+959299676+954728011+949645576+946229458
1425+943230572+941660339+942240074+944294371+949748611+956985280+962394645
1412+966001554+969169549+972670188+977056019+983011393+988113925+991264713
1398+996116162+1002424553+1007751394+1011750207+1012458099+1010246600
1387+1010038465+1013258357+1014683638+1014909737+1019199622+1024900816
1375+1027480611+1029219883+1031173003+1031454990+1031595329+1031816954
1364+1030128614+1029958334+1032767669+1033407422+1030770706+1027838308
1352+1026878232+1027465537+1026321348+1022846037+1019478442+1015259794
1341+1008143918+1001131283+998762101+1000247812+1001653203+1001238104
1329+1000667385+1002117926+1005281654+1008588200+1011832663+1014941329
1317+1016616936+1016869051+1018041185+1021299964+1025226095+1027711802
1306+1028116922+1028381977+1029575860+1030187186+1029592516+1028877810
1294+1029705944+1033085859+1037223704+1040347718+1044063099+1049634003
1283+1056363619+1063151394+1068067472+1070186879+1071165951+1072137659
1271+1072726823+1073351227+1073741823+1072049353+1067776262+1062984487
1260+1060109422+1058271106+1055958568+1054000699+1052761184+1051146145
1248+1047837535+1044921586+1044642421+1043523078+1040047837+1037542651
1236+1036633645+1035706882+1034372040+1033000238+1031280374+1028391819
1225+1025225957+1024385848+1026405799+1027958343+1026304623+1023555856
1213+1022822911+1023616149+1024434715+1024972809+1025028422+1025206754
1202+1025891864+1026451776+1026623363+1026188580+1025468987+1024959732
1190+1024334227+1023360868+1021769781+1019776052+1018550509+1018088745
1178+1016753972+1014519691+1013641313+1014509023+1014471236+1011685303
1167+1008231054+1007472298+1008870462+1008935091+1006842044+1003931739
1155+999906565+995565542+993345508+992847197+991797439+989808047+988531502
1142+987676663+985105196+982110509+980925780+979843122+976590951+972990856
1128+971002909+969258750+967821561+967077122+965830448+964415491+961735414
1115+957208763+953772546+950094608+943564041+939166854+939329494+938562479
1101+935750185+934349062+933855431+932166333+930003289+928907210+928481580
1088+929107843+930949599+931619980+930901971+930198209+929631414+930508139
1074+934167151+938026037+939085431+938604602+937407966+935107542+933997835
1061+935187932+936201969+936200317+938791606+945156986+949796791+949445426
1047+946643800+942889393+940139801+941245309+944457767+946603811+948476884
1034+951436126+952257996+948504278+944973148+944572985+944231049+943268977
1020+944446824+946929847+945616411+940781411+937693669+937429922+937941311
1007+937898982+938160389+940014122+941414625+939981222+937650308+937441347
993+939268719+941167741+942019551+942738248+944437394+947080786+950924668
980+955843155+960213637+962507453+963159526+963016915+961661562+959681669
966+959323352+960802250+960978518+959891593+960305591+960196361+958207038
953+957292320+958287222+959412415+959365268+957524062+955008277+954981365
939+956835167+957277935+956701366+955242015+952576117+950616321+950245684
926+950658718+949970787+947840229+946650063+946588600+944780568+939786715
912+934455194+932474956+932743039+932498702+931905133+931037974+929429405
899+928162358+927955118+927171448+924993606+923318205+922691323+922494958
885+923080750+923849416+923541206+923248551+925110888+928000407+929702031
872+930213144+930625628+932360083+936331640+942084730+948447288+955693042
858+962821995+967676886+972094514+977826199+985319594+993522739+999851572
845+1006857943+1016202869+1023896346+1028097994+1029844700+1030536761
833+1033848813+1041640438+1048188555+1048479627+1046933829+1048736285
822+1049998445+1047231370+1046109550+1048581629+1051374033+1053762969
810+1053329975+1048737042+1044318450+1042126154+1040441255+1040475394
799+1042489632+1043143357+1041442903+1038507132+1035312087+1031336882
787+1025116934+1018801523+1015128471+1011947192+1006442707+998678957+991783398
773+990440159+992462657+991758138+988775014+984901329+978763631+971952592
760+968293443+970793329+981234127+991100904+984284290+968378720+962646623
746+966600147+971131066+973078749+972045716+968071268+962475724+958918577
733+958867094+956732476+949324840+943737968+943611395+943029251+940767646
719+941336506+943437949+944388802+945713457+945772580+941809420+939287784
706+943822833+952406457+960113217+965436961+966212648+964217199+967117180
692+973015152+972745279+967408940+961873483+957669770+956731512+959463761
679+964092346+966760928+965577714+962618954+957276214+951371221+954906962
665+966559814+977084789+982535657+979482810+971943438+970228668+980399180
652+990052453+988392264+989831173+994693359+978737683+946095519+929538221
638+939215102+955076554+962760188+967163157+970365772+968289107+964240669
625+973188184+981779792+959529560+935654652+939096444+953361095+960053337
611+958788287+955697378+960120651+968188274+967862307+962985805+959443043
##END=
