##TITLE=Sample description
##JCAMP-DX=4.24
##DATA TYPE=INFRARED SPECTRUM
##DATE=13/9/2023
##SAMPLING PROCEDURE=Instrument type and / or accessory
##ORIGIN=Default
##XUNITS=1/CM
##YUNITS=ABSORBANCE
##RESOLUTION=4
##FIRSTX=4397.6552
##LASTX=599.8556
##DELTAX=-1.9287962
##MAXY=1.8606917
##MINY=0.47944486
##XFACTOR=1
##YFACTOR=1.7329042e-009
##NPOINTS=1970
##FIRSTY=0.49958807
##XYDATA=(X++(Y..Y))
4398+288295271+288198498+286563063+284896947+284567521+285424493+285866066
4384+285186216+284506606+284521672+285447813+286568773+286798434+286720665
4371+287218131+287516223+286815804+286269013+286749368+287544307+288056942
4357+287894095+286693733+285149774+284976040+286794117+288406438+287671245
4344+286153529+285557742+284583601+282962424+282602540+283766649+284669918
4330+284459897+284143988+284633063+285087070+284596001+283903201+283774079
4317+284534880+285817276+285731648+283943375+282907373+283830006+284813469
4303+284266352+283205378+282633806+282224513+281962365+282050505+282251118
4290+282743013+283525105+283629582+283127816+283125064+283722433+284338376
4276+284240830+283192549+282279426+282483410+283192360+283328498+283104805
4263+282888197+282666998+283102225+283895771+284064207+283292211+281774599
4249+281033902+281446944+281719290+282209379+283170157+283377994+282915215
4236+282532459+281663036+280600790+280851879+281790283+281488821+280429860
4222+280325520+281021072+281631564+281982435+282367806+283096860+283784535
4209+283968226+283187923+281927471+281623274+281983846+282391659+282864602
4195+283015617+283330132+283874772+283348603+281706736+280288476+279837616
4182+280221318+280855680+281501513+282292772+282595162+281894554+281168957
4168+281387302+281696331+281528084+281749060+281952287+281312818+280407228
4155+279820160+279684915+280248525+281444244+282151852+282105933+282594371
4141+283334225+282691522+280892604+279766949+279795876+279838871+279621094
4128+279539421+279298754+279131779+279676007+280811224+282154225+282656215
4114+281838196+280963563+280560547+280299139+280020378+279754859+280169707
4101+281032045+281272661+281132119+280919484+280096513+279327044+279435167
4087+279684898+280134864+281277046+281775888+281237147+280960948+281008913
4074+280999953+280650664+279707961+279380977+279890482+279677899+279244064
4060+280460421+282736873+283537212+282076508+280290282+279545200+279029727
4047+278635585+279177732+279995510+280474454+280896697+281072786+280836986
4033+280764617+281420838+282252632+282100396+280965489+280563625+281737537
4020+282773057+282599685+282415307+282780332+282908921+283028825+283871883
4006+284440240+283572519+282039309+281301089+281215426+280514508+279834262
3993+281098205+283635773+284868915+283994264+282231289+281297374+281730899
3979+282503308+283117841+283646058+283931680+284281709+284701768+284931429
3966+285387655+286056912+286284595+286055037+285896300+285759216+285283539
3952+284647268+283947537+283847995+284738572+285319998+285669907+286297631
3939+286250749+285593720+284622899+283939832+285099143+287029367+287131230
3925+286001999+285798375+285720692+284778505+284672291+286555169+288539068
3912+288779288+287832011+286198038+283572708+281774943+282446710+284200690
3898+286259520+287895471+287493900+286030272+286606797+287628353+286763058
3885+285951764+285858379+286073937+287466796+287553009+285462586+283493099
3871+282555229+284125277+286391978+286054332+285613051+287026856+287867249
3858+286098909+280628599+276671309+281848567+287715925+289277959+287547024
3844+284841931+282704833+281317650+281864131+284251974+285849367+286857147
3831+288237503+289103607+289451004+288747163+285568973+283693421+285571397
3817+287465730+290380345+293819100+294318184+291697085+289200362+288903629
3804+287652533+286717586+289757574+292708184+294064239+295233215+295827781
3790+295791907+295577965+295691161+296601481+297300644+297345256+298727314
3777+301222764+302254776+301080159+298994707+298483379+299766686+301728004
3763+303321872+303008045+302792245+304944460+306217277+304542854+304411153
3750+310927199+318882468+328915176+347029937+364859109+376104407+381438578
3736+382336137+382843200+384884729+387131222+387823920+387583837+389232634
3723+394195537+401526076+409729821+418109879+425046757+429399478+435930899
3709+448662922+462554152+474005240+485822127+500652810+514466202+523543119
3696+528428288+528532197+523608643+518105726+515929022+515494465+513934580
3682+509473960+502612477+495145490+487876761+483611061+480525275+474836518
3669+471039564+470015050+467660244+463738537+458477698+451142103+442919027
3655+436759735+429753033+417873339+407647155+406895984+408622276+407016507
3642+403200739+399312671+395148267+390354076+385191952+379014258+371358266
3628+367846935+369343772+368744632+364216182+358460215+355433143+354597325
3615+352715324+350383907+348663016+346940714+346300883+346174788+344217804
3601+341257666+338965426+336791817+334829158+333699599+331972517+328518042
3588+326197666+327349135+328718467+328142027+326610622+325044272+323262844
3574+321791460+320585233+317916324+314205463+313165747+314586088+315242635
3561+314756278+313845202+312994525+312121834+311010058+310203373+309299176
3547+307934316+307336104+307854827+308221039+307785210+307164641+306700779
3534+305988098+304566932+302470988+300808914+300354511+300303880+300029195
3520+299890511+299900177+299777693+299523783+299239949+299026454+298697355
3507+297884273+296897388+296776865+297309759+297298099+296765721+296173975
3493+295634786+295069594+294540552+294471486+294564974+294319800+294053473
3480+293938385+293664766+293258414+293139370+293339107+293479992+293471393
3466+293370957+293212014+293388912+293901616+294075659+293837365+293491274
3453+293024420+292416370+291960385+292130197+292593750+292825784+293017712
3439+293124718+293235128+293467610+293341652+293186871+293566016+293954241
3426+293841767+293484498+293604264+294179018+294260949+293838052+293839944
3412+294365237+294530234+294414629+295041390+296206995+297025650+297345531
3399+297342091+297112121+296854359+296870284+296974710+296932609+297112534
3385+297480328+297478024+297370949+297929813+298760506+298994638+298853546
3372+298776500+298758924+298756413+298943629+299703605+300728015+301264727
3358+301054741+300274609+299780135+300099122+300412330+300091142+299631889
3345+299567191+299523577+299004991+298221248+297550805+297313233+297492986
3331+297593215+297356331+296713680+295548350+294458312+294150642+293877436
3318+292740620+291424086+290856314+290441328+289143403+287694290+286902103
3304+285760660+283907466+282772593+283046109+283587481+283686490+283746923
3291+283778275+283804209+284245697+285152164+286269650+287250223+287958845
3277+288610439+289039183+289260864+289946029+290971677+291690000+292006716
3264+292278030+293046123+293864640+293862817+293494094+293205857+292964089
3250+293154952+293433936+293264021+293240907+293833684+294811660+295685864
3237+295997078+296036323+296327931+296713198+296894189+296957340+297245714
3223+297978035+299156161+300683094+301929736+302490560+302794447+303045742
3210+303415532+304161508+304853070+305152383+305422046+305975922+306930921
3196+308103509+309008531+309833893+310923002+311925400+312281775+311992196
3183+311953019+312426925+313113637+314307929+315465313+315734220+315793243
3169+316501969+317454354+318147223+318784784+319378422+319715982+320111087
3156+321143064+322469883+323014540+322808750+322786806+323284341+324273840
3142+325324013+325578748+325221788+324978920+324978713+325127269+324916698
3129+324315424+324228506+324850417+325408592+325154373+324110976+322934742
3115+321943455+321276314+321265238+321393500+320829822+319932332+319012313
3102+317962862+317243370+316817929+316350145+316273408+316618742+316850329
3088+317215785+317980851+318413413+318071725+317605489+317865143+318635506
3075+318961991+319023732+319404322+319820305+320366304+321031450+321019514
3061+320404724+319995310+320194944+320756593+320791436+320176680+319827975
3047+319874168+319770293+319344817+318572321+317651511+317030529+316697062
3034+316201143+315406221+314567961+313886993+313315678+312601312+311695532
3020+311038641+310897034+310962523+310892665+310389455+309309116+308224376
3007+307744107+307601124+307352270+307217507+307537388+308218838+309100403
2993+310228104+311907204+314416379+317316358+319771978+321552581+322851779
2980+323593147+323631532+323108957+322307156+321386277+320281724+319119731
2966+318392156+318184681+317884749+317106750+316299205+315882018+315545215
2953+315141752+315081009+315498712+316079416+316345055+316121173+315788393
2939+315577375+315289069+314600155+313467776+312549787+312364256+312505966
2926+312487702+312356929+312140580+311558018+310731727+310240589+310112018
2912+309998305+310004497+310294178+310541002+310577324+310993342+311863693
2899+312264852+312097723+312167959+312676570+313344364+314142416+314925161
2885+315294538+315345444+315322295+315174806+315059890+315082350+315088679
2872+315035778+314988140+314979988+314970770+314937681+314875219+314779220
2858+314770311+314735331+314232155+313266595+312264921+311564278+311435122
2845+311741107+312056860+312334950+312803112+313482670+314053881+314416413
2831+314929598+315640457+316176481+316425300+316470049+316472251+316815314
2818+317460649+317908620+318048095+318144747+318492420+319110513+319685026
2804+320154185+320696572+321300769+321819114+322153785+322498775+323134685
2791+323857444+324275284+324370630+324303627+324263796+324431029+324612742
2777+324484721+324199958+324028357+323977623+324075651+324227199+324341393
2764+324557502+324651196+324436773+324266066+324257433+324343216+324572567
2750+324826409+324932004+324835386+324724081+324850279+325069656+325167890
2737+325327108+325619576+325719530+325512674+325332302+325477418+325787668
2723+325942415+326016125+326182773+326281386+326242725+326343952+326664555
2710+326956541+327001565+326843138+326792817+326948940+327125046+327182074
2696+327106335+327030045+326947220+326777064+326720620+326882487+326962973
2683+326796704+326589228+326412331+326159900+325804041+325425996+325111034
2669+324773164+324344007+323940716+323689730+323552456+323407031+323247538
2656+323110367+322906744+322575375+322401573+322572451+322661089+322374847
2642+322104358+322138101+322208303+322211433+322283939+322317544+322356480
2629+322529112+322558108+322273930+321953292+321866580+322118529+322663806
2615+323232885+323624516+323817270+323812110+323803443+324026534+324375479
2602+324678679+324984973+325488665+326289366+327028119+327406610+327736845
2588+328174050+328493793+328787499+329228832+329615303+329794643+329851327
2575+329917264+330089862+330267482+330427422+330703105+330959491+331010019
2561+330902635+330730415+330606487+330634726+330801374+331065843+331265167
2548+331269673+331311464+331492007+331641801+331808586+332069135+332296250
2534+332468298+332744634+333080509+333285027+333437985+333634522+333825832
2521+334081255+334378401+334708291+335154061+335432839+335395450+335339488
2507+335369413+335462557+335665010+335958613+336372670+336879182+337285053
2494+337592276+338016790+338580296+339079654+339390283+339747656+340377959
2480+340961209+341139104+341072720+341003859+340878865+340687177+340538656
2467+340458135+340541064+340874050+341220278+341292199+341206795+341159088
2453+341145364+341275346+341586868+341888072+342128327+342369614+342532994
2440+342617470+342752302+342810155+342708757+342682134+342779268+342872274
2426+342966381+343096707+343235700+343402898+343627228+343833259+344051363
2413+344340459+344535174+344652808+344894438+345081689+345036046+345060501
2399+345430188+345981243+346359700+346517508+346726738+346997570+347041184
2386+346719824+345879706+344201672+341713204+338698583+335275031+331764835
2372+328543701+325364600+321911948+318594782+315964190+314225516+313722581
2359+314834907+317796937+322222955+327462985+332546583+335089672+333752672
2345+330433717+328531801+328591890+329353241+330608035+332329786+333674387
2332+334265376+335192481+337260563+339823877+341977983+343887123+346386322
2318+349352548+351934986+353940468+355728053+357556775+359550528+361696380
2305+363599465+364948366+366097049+367376538+368639002+369730622+370721669
2291+371852947+373250208+374701126+375958637+377050395+378117009+379082018
2278+379788508+380403505+381147211+381909353+382678616+383586459+384417599
2264+384993110+385565112+386389167+387406423+388382232+389257778+390089572
2251+390736247+391133175+391524290+392125976+392822972+393394356+393956452
2237+394717700+395412427+395706614+395850492+396173709+396626393+397109550
2224+397612624+398173860+398731347+399135017+399489603+399924744+400341553
2210+400826740+401462444+401965586+402277728+402630904+403107320+403739102
2197+404477340+405217882+406001212+406819626+407466129+407890264+408312782
2183+408886848+409720259+410784396+411813141+412683424+413474871+414368646
2170+415459544+416475768+417195776+417878911+418846018+419995182+421031081
2156+421998704+423165994+424487344+425697148+426772430+427898548+429043826
2143+430007596+430929507+432185230+433804206+435438970+436899864+438291484
2129+439722005+441262766+442892715+444540102+446163584+447660559+449111581
2116+450765744+452600244+454366194+456031467+457825794+459846066+461988031
2102+464155552+466345808+468671756+471194311+473744966+476154290+478592334
2089+481334333+484332892+487398349+490467041+493524725+496757553+500473917
2075+504597046+508895697+513228159+517379390+521395858+525534018+530069381
2062+535232708+540719528+546072376+551388936+556901347+562480210+567900267
2048+573301098+579105838+585403574+591749394+597802988+603855000+610220702
2035+616602294+622827042+629164539+635529759+641531966+647192072+653097076
2021+659444961+665645425+671352653+676608608+681740807+687117423+692281954
2008+696929241+701358321+705396114+709145120+713040308+716806993+720242516
1994+723527591+726607048+729609252+732818243+735636705+737266998+738550030
1981+740727079+743268173+745448867+747531258+749398400+751089918+752823123
1967+753712667+753691823+754158368+755464721+756869446+757749841+757919619
1954+757840164+758279605+759112397+759550943+759270893+758618060+759082748
1940+761077361+762575229+763411736+764988921+766761406+768063700+769839487
1927+772306355+774373337+776008926+778085746+780617140+783710974+787506827
1913+791388051+795312613+799769828+804607530+809455551+814111575+818332422
1900+822499062+827097301+832081322+837235948+841688761+845460536+849876202
1886+854582306+859094417+864130239+869074843+872837263+875930135+879282144
1873+882205100+883286092+883607555+886030052+889895110+892583693+893554824
1859+893823249+894070417+893912472+892535745+890221319+888227050+886264356
1846+882772838+879871895+880593863+881415716+879648804+877037267+874481108
1832+870971016+867045215+864611643+863373600+862238401+860704898+858024157
1819+854517160+851418097+849213326+846900139+844183007+842588349+842211027
1805+841285435+838892519+836110310+834014436+832343900+830843073+828970565
1792+827660704+828720645+830103082+829891204+828979371+828412184+828221218
1778+828017595+826640662+823411239+820711512+822365400+826335089+828913537
1765+829241879+828231468+828361347+829649607+830484944+831865592+832659034
1751+830773043+829331996+831199139+833565433+834661077+835444338+837079171
1738+838679333+837881488+836749384+840404627+845838134+849812776+852019611
1724+853153228+854402759+854552175+851641257+849699958+853785286+860938583
1711+867631457+870544576+868575485+866114121+865549823+865231524+867344390
1697+872097272+878514155+886502582+892305155+895330336+896884889+896613231
1684+898196607+905419865+912621798+916667571+918605569+921058540+923079294
1670+924271728+929365542+937063668+942084837+944748312+948643568+953547448
1657+955300671+950669344+946511028+953506655+959272906+960258208+964967683
1643+972205731+975374755+974670879+972237994+971971908+977096884+982621402
1630+985606339+987512005+989972337+992091532+993539252+994547393+993812286
1616+992660164+994790365+997855926+998828227+999894772+1003757491+1007371183
1603+1008472469+1010009067+1013499141+1017230055+1020080023+1021935127
1591+1022575783+1022454435+1023101764+1024027355+1024295711+1025675740
1580+1026706651+1023709400+1021302932+1023779155+1022978902+1018646887
1568+1020497244+1026425844+1029337174+1027993055+1020266311+1015140097
1557+1024655560+1034476321+1039215583+1040980569+1043471032+1046454869
1545+1046796075+1045469704+1044716780+1047887523+1054121971+1057779346
1533+1058417663+1057592508+1055209497+1053211995+1053612637+1051421418
1522+1045672639+1047046958+1056067810+1063900562+1067106252+1066499372
1510+1061061738+1049892318+1046280207+1059319178+1068935284+1068146519
1499+1063670248+1063952775+1067774150+1067741336+1062152086+1057427752
1487+1059059971+1062844748+1065069401+1065387424+1062980130+1056936717
1476+1048235815+1040253786+1040367980+1046447577+1046477708+1040095909
1464+1037738764+1039159036+1034618238+1022563745+1014501642+1015145944
1452+1015962569+1014350506+1009747659+1003779573+999743912+996383029+991183139
1439+982305305+969799607+961668574+959374305+955527340+949123803+944141294
1425+942067089+943047301+945652233+948448269+953732429+960076323+964584170
1412+969365669+974453841+976234788+976364116+980031741+986424134+991833082
1398+995383899+997665992+1001005344+1006683267+1011518218+1011879305+1007456485
1385+1003657880+1005494548+1011240643+1016260437+1019039756+1020772755
1373+1023241411+1025831828+1026563771+1026321693+1025530796+1023905319
1362+1024007543+1026478951+1028232450+1028156916+1027611605+1026793329
1350+1024878789+1022092109+1018206346+1012866258+1007899710+1005687165
1339+1005175424+1003346323+1001131095+1000742698+1000485761+997631872+995081835
1325+996974293+999848200+1000126669+1001692985+1006824634+1012190587+1015120904
1312+1016384056+1017850005+1020403344+1024455927+1028591267+1030248732
1300+1029591015+1028895532+1029791130+1031577442+1032652999+1033918215
1288+1037699897+1043675619+1048472802+1050863174+1054037219+1060573249
1277+1068372774+1073142648+1073741823+1072556819+1071005843+1068370229
1265+1065086599+1062310513+1060372653+1060102645+1059318421+1054968589
1254+1050485852+1049179636+1048140814+1044491212+1040128791+1038831725
1242+1040754864+1041707215+1039130350+1035015992+1031615897+1029460930
1231+1028848341+1028389776+1026883583+1025871315+1024673171+1021721529
1219+1019776996+1020998254+1023097774+1024130474+1025114607+1025765857
1207+1024592822+1022832857+1022683648+1023899609+1023759274+1021776012
1196+1020661312+1021252095+1022222676+1021268192+1017672316+1015050943
1184+1015509164+1016505886+1015809370+1013821980+1012023836+1010161028
1173+1006061941+1001566271+1001448431+1004058248+1003854900+1001311054
1161+1000311306+1001233870+1001623643+999613965+995975576+993016504+991303730
1148+989473529+986613586+983780403+982698174+982377261+980546303+977306768
1134+974086494+971381057+968855235+967029024+965744822+963631062+960750963
1121+957353138+953803697+951646116+952270056+953576203+951028024+947187731
1107+945473513+942163191+937637184+934521749+930962058+926914083+924189453
1094+923459506+924851779+926885741+925783424+921059297+918604468+920818802
1080+923104334+922999290+922983330+925250014+928582555+931377009+933209686
1067+932687214+932150570+935536288+939499029+938439157+933095217+929170792
1053+930090399+933231149+934539360+933759744+934018125+937467337+941858100
1040+942615840+939615493+938050828+941397678+947616372+950002341+946459090
1026+944073122+944676975+943470920+941034802+940019231+940775939+941424919
1013+938032461+932911956+932450846+934676943+933218354+929864212+930280195
999+934100951+937670410+938945807+938514965+939376786+942491121+945551660
986+947198600+947908736+949147742+952116307+955088793+956519246+957332363
972+956600764+954722684+954944468+957061737+958921381+960112577+960764584
959+960311866+958433717+956516288+955781112+955790674+955316081+953800395
945+952647860+952934033+953634951+953819863+953370585+952910162+953064118
932+951893560+948053543+944669339+943873557+942291212+937431635+933434085
918+933377813+934637938+935228652+934982034+933341009+931283865+930231628
905+929712595+928139193+924598695+919914811+915482085+912724091+913212443
891+916193666+919310201+921552877+922691378+922802133+921757050+920557393
878+922094129+926588493+931812391+935411018+934222299+929681639+928655750
864+933388888+940126134+946228776+950995967+955729931+963133423+972923090
851+982803494+990597791+997067161+1004655153+1011573320+1016120584+1019570346
837+1023915087+1028542562+1030147196+1030883404+1033468593+1035971163
826+1036873159+1036603083+1036330875+1035826907+1036617254+1038644612
814+1038047432+1036732962+1038368139+1041786050+1044026731+1042287472
802+1037387239+1034064122+1035670819+1038571693+1034295881+1023754596
791+1016406000+1013938032+1010362931+1004118096+1001567578+1003533849
779+1001049921+993837876+989354176+987600402+983756877+977523874+973905916
766+972949506+970490343+967605498+965958695+965293067+967705658+970908528
752+967914372+961679787+959068045+958567035+956688267+952610369+948358152
739+947068791+948923826+949985074+945851041+939465803+937050598+938481188
725+939041909+935154632+929888633+928209292+926387827+922839762+923501124
712+928384779+933673411+937768576+940627143+942581307+942412974+943709420
698+950437241+956282190+957083613+958447544+960198016+958736813+957569832
685+958787581+959907715+958015739+954474346+954267903+956396522+956415164
671+951502617+943659271+945130862+952585948+953237267+953512983+961483387
658+972689061+977621421+973023182+964933081+963133561+969889173+973780509
644+962896367+946096559+940112857+949189568+964615607+973425751+968507906
631+952079297+939847184+948640266+962596505+951414908+930628281+929834288
617+946799403+959529361+961507464+962116133+966593573+976602961+988473781
604+996745285+994742761+980173452
##END=
