##TITLE=Sample description
##JCAMP-DX=4.24
##DATA TYPE=INFRARED SPECTRUM
##DATE=13/9/2023
##SAMPLING PROCEDURE=Instrument type and / or accessory
##ORIGIN=Default
##XUNITS=1/CM
##YUNITS=ABSORBANCE
##RESOLUTION=4
##FIRSTX=4397.6552
##LASTX=599.8556
##DELTAX=-1.9287962
##MAXY=1.814989
##MINY=0.42739865
##XFACTOR=1
##YFACTOR=1.6903402e-009
##NPOINTS=1970
##FIRSTY=0.45327765
##XYDATA=(X++(Y..Y))
4398+268157645+267088768+264875042+262570393+261324572+261945340+263238748
4384+263541982+263581529+264406887+264821267+263829579+262961607+263812054
4371+265323097+265521199+264790237+264457770+263975140+262218691+259927283
4357+259180065+260212040+260891361+260028555+259240433+260106043+261146393
4344+261109844+261113988+261359305+261224587+261000250+261011499+260752482
4330+259732690+258622645+258286211+258769546+259489559+259754429+259830119
4317+260488265+261324783+260770995+258333691+256192693+256702016+259247133
4303+260944713+260020921+258010251+257167438+257349901+257549219+257981318
4290+258771591+258963768+258465694+258217379+257851537+256551694+255278386
4276+255132525+255860102+257075528+258112687+258313556+258234340+258550199
4263+258897741+258873427+259261097+259986858+259518015+257973578+256604252
4249+256029589+256297861+256601202+256017511+254586618+253446706+253577457
4236+255029578+257458790+259373671+259167212+257777839+256903238+256305689
4222+255257917+254494743+254901824+256150960+257347309+257416105+256440320
4209+255670904+255322711+255226287+255579858+256038016+256182255+256154768
4195+255761915+255012970+255154141+256215525+257029864+257381972+257169360
4182+256343473+255442019+255401010+256081247+256012504+255284910+255163221
4168+256079907+257554385+258017797+256546828+254512374+253363964+253356682
4155+254216227+254946554+255080655+255005741+255087143+255674096+256061941
4141+255754651+255594985+255519825+254661514+253330465+252847711+253570616
4128+254623608+255461695+255824717+255759817+255998682+256547815+256626326
4114+256086431+255378583+254695436+253759003+253115191+253613865+254309970
4101+254505674+255093050+255924632+256250205+256705172+257563711+257737359
4087+256758505+255783161+256297456+257853688+258693803+258285858+257343554
4074+256830598+256772593+256492454+256487447+257432643+258132028+257353480
4060+256316726+256183031+256378188+256657163+256996999+257244468+257835211
4047+258957122+259595468+259245952+259347277+260288136+260566370+259861519
4033+259116505+258884359+259342270+260214474+260976237+261673894+262064138
4020+261622764+260714276+260034849+260270928+261308316+261938870+261933298
4006+262074804+262462721+262977492+263682589+264093514+263674973+262682861
3993+262192808+262834505+263946666+265009125+265831645+266018903+265767592
3979+265496004+265265127+265327135+265835365+266376918+266825608+267479329
3966+268261826+268927994+269727840+270728609+271402394+271420078+270449934
3952+268808104+267987030+268616438+269023360+268335576+269073185+271878888
3939+273543110+272490683+269787363+268151139+269512831+271303079+270726352
3925+270157648+272029139+273074479+271621511+271533286+274682934+277785066
3912+278576326+277558314+274219345+267978355+262707774+262537265+266523131
3898+272704035+277000453+275514622+272240341+273732255+275061083+272437226
3885+271198950+271598203+272676107+276516871+277355841+273402750+269901488
3871+268754982+271059754+273389068+272616162+274231052+279240114+281125869
3858+276393084+265362344+258856237+269073979+281063526+285665700+283729680
3844+279173258+274915187+270944923+269750267+273746906+278695282+282409421
3831+285582059+286959936+286407311+283639797+277003010+273873990+278292291
3817+281948776+286212930+292085204+294122426+290567848+285799872+284308293
3804+282087426+281323036+286919368+292092732+295904969+300126174+302324966
3790+302572117+302004647+301373177+302086032+302356385+301403572+303959921
3777+309725844+312468728+310184214+307136032+308060741+311526177+315799076
3763+318625213+317144847+316277439+319886461+321907040+318745774+317467952
3750+327945644+341347255+355513556+382805685+413582819+433867487+443185097
3736+445323451+449941493+460056164+468287495+470004751+469382131+473018270
3723+481155382+491370479+502429323+512386972+518596667+522901407+534917507
3709+555906038+575678596+590166627+603469293+622453325+645370330+664589065
3696+677547892+680533166+670840228+659790129+660760890+666156105+665548330
3682+659823628+653006652+643430007+629989503+623669015+623350811+620858851
3669+621394056+624363322+623389670+618485018+612236606+604437303+594701628
3655+586628093+576826019+559625500+544868844+545635156+552578828+555109259
3642+552094048+546313596+539677408+532377026+523840256+513188899+501870245
3628+499725368+504903088+505418723+498164605+486750920+480064625+479088328
3615+477155481+473777177+470348766+467582821+467603379+467578801+463800663
3601+458920730+455473101+451811891+449001304+448735394+446673630+439700514
3588+434486898+436956713+440770608+440428320+436973322+433850526+432509938
3574+431781215+429373355+423263839+415395952+413274630+417767140+421717956
3561+422235425+420699698+418410247+415813242+413514235+411795251+409633202
3547+407069025+405927703+406602299+407237084+406364457+404735356+403328617
3534+401717747+399741633+397768411+395733587+393450060+391727762+391453706
3520+391590170+391067341+390436435+389553935+387745104+385767827+384284922
3507+382650920+380769732+380002291+380627732+380789232+379975175+379238906
3493+378147514+376096328+373981635+372575355+371783019+370989273+369999506
3480+369400512+369121661+368166380+366117134+363864179+362227920+361069848
3466+360032336+359089679+358621260+358399216+357510298+356084588+355051519
3453+354577669+353589278+351391720+349411128+348788191+348651057+348458809
3439+348328728+347823389+346576951+345217674+344369625+343657264+342696729
3426+341446024+340009947+338917321+338556239+338749580+339033368+339134887
3412+338883223+337647328+335489509+333872962+333548728+333665375+333296535
3399+332600112+332192908+331805626+331312982+330992310+330039638+328466075
3385+327463226+326944911+326479630+326245879+325952923+325208226+324421497
3372+324193458+324253792+323858505+322829915+321802101+321549096+321742261
3358+321480371+320885079+320270252+319417231+318424608+317363154+316179199
3345+315229984+314702359+314395158+313889149+312879283+311637428+310411759
3331+309526086+309174348+308620066+307524090+306195985+304688220+303358141
3318+302651033+302031093+300652740+298852125+297348310+296457206+296002997
3304+294793654+292521464+290587471+289862627+289929360+290059971+289953480
3291+289571152+289119271+288931378+288942150+289218833+289875022+290292999
3277+290007236+289665619+290270625+291430478+291644782+290803521+290073776
3264+290071078+290412220+290270960+289680059+289529279+289944770+290095233
3250+289961502+290131817+290199379+289881210+289456868+288967909+288759934
3237+289169008+289848311+289994472+289551617+289591886+290271525+290474140
3223+289957023+289542202+289803352+290566861+291175693+291572866+292120977
3210+292598300+292909980+293122627+293216124+293537272+294197428+295036891
3196+296010402+296828197+297132014+297053626+297086067+297522257+298243857
3183+298652896+298385786+298142338+298634383+299707439+300818824+301489682
3169+301847167+302433220+303267764+303802300+303796587+303980126+304892140
3156+305769774+306067067+305966536+305575269+305433340+305949927+306709575
3142+307127146+307196260+307349473+307289387+306865009+306730203+306807145
3129+306763243+306553118+305917416+305355200+305866568+306918890+307037863
3115+306048943+304931422+304423298+304283555+304096137+303781143+302970118
3102+302032610+301653050+301392183+300891534+300351216+300081285+300303859
3088+300901760+301758695+302496833+302483081+302043365+302092802+302474830
3075+302556708+302557801+302932106+303487658+303735408+303851314+304209892
3061+304543964+304780748+305164080+305532673+305595051+305395187+305273180
3047+305555205+305937021+305552173+304670237+304507045+304838330+304518046
3034+303562201+302997023+303277250+303753815+303802194+303268046+302449159
3020+302037405+302093049+302262235+302540875+302765176+302737319+302635448
3007+302708087+303067406+303775007+304960548+306508194+308165434+310337886
2993+313665095+317987254+322638725+327189029+331412702+334958218+337563475
2980+339441595+341020483+342419112+343418858+344134534+344982971+345763811
2966+346075526+346030391+345746779+345286365+344911495+344834483+345090167
2953+345330583+344961743+344170289+343835372+344039997+343781421+342546337
2939+341123695+339966328+338621191+337175805+336097637+335451814+335072749
2926+334594139+333767352+332743558+331628153+330451815+329206963+327693169
2912+326189988+325341939+325102934+324864599+324302629+323578526+322941308
2899+322598033+322555472+322637597+322967860+323632759+324199382+324263735
2885+324195010+324616919+325361862+325962126+326291331+326258961+325886031
2872+325332031+324755110+324368463+324097934+323749476+323285076+322416892
2858+321164671+319938614+318577892+316950201+315382350+313904735+312466789
2845+311311044+310660532+310519872+310511445+310409926+310523927+310817025
2831+310957014+310988750+311066397+311131949+310913078+310375898+309903459
2818+309769569+309929447+310185060+310411195+310660356+310965160+311264534
2804+311669340+312332899+312953615+313166244+313248017+313563117+314007523
2791+314430173+314643331+314395545+313815099+313339662+313198227+313236169
2777+313272912+313169841+312819620+312399580+312115404+311983771+312014625
2764+312243334+312481775+312404834+312093541+311890468+311897944+311974956
2750+311988002+311929750+311722374+311243271+310696605+310512679+310672451
2737+310753870+310673932+310591348+310458940+310227833+310142041+310397337
2723+310871081+311441161+311856052+311806862+311448566+311173452+311252932
2710+311580516+311820614+311967409+312117696+312271261+312455329+312572222
2696+312531530+312359910+312119988+311928939+311890468+311951506+311833308
2683+311430511+311066009+310917592+310800734+310559754+310221944+309895313
2669+309591461+309288914+309015105+308758962+308564458+308377711+308028864
2656+307708475+307592569+307451874+307299436+307194320+306887542+306460837
2642+306187769+306095912+306102647+306085756+306065304+306215873+306560734
2629+306885673+307010394+307016671+307059056+307229970+307556425+307832596
2615+307908092+308118324+308693904+309253335+309538745+309817279+310240845
2602+310600834+310754399+310806234+311053385+311660243+312267841+312666371
2588+313141596+313501197+313408353+313330741+313602505+313903042+314117540
2575+314329006+314467938+314442268+314194129+313932380+313914749+313939715
2561+313822222+313669079+313443861+313158663+312988242+312978651+313123084
2548+313321749+313431626+313489385+313553455+313694080+313933861+314077483
2534+314126638+314286551+314448932+314444630+314396427+314544527+315028285
2521+315683452+316255753+316701182+316919206+316937613+317168896+317625855
2507+317894198+318025055+318300169+318708572+319064471+319208551+319221210
2494+319300267+319478128+319762093+320195567+320639691+320991394+321348244
2480+321698748+321914586+321831791+321460166+321113259+320925560+320831023
2467+320849888+320966358+321026550+320963290+320999680+321236817+321472366
2453+321530972+321467042+321535027+321716167+321795013+321892865+322121221
2440+322312905+322416716+322525358+322767537+323240505+323663190+323751415
2426+323629832+323486281+323566501+323938832+324342616+324624923+324747353
2413+324770520+324853773+325104168+325537079+325991640+326310161+326540034
2399+326776218+327060711+327382970+327656532+327896383+328165855+328303200
2386+327985949+326684749+323973318+320124797+315650376+310810431+305871434
2372+301016009+296187135+291367536+286767089+282957585+280727321+280435917
2359+281989909+285382776+290506563+297387839+304736212+308825290+307454589
2345+302798358+299419137+298629975+299427353+301234950+303150413+304517729
2332+305621533+307417952+310139608+312939369+315496423+318364204+321891384
2318+325732606+329096876+331519334+333505568+335792339+338339202+340769348
2305+342990884+345061852+347144245+349291132+351152750+352572818+353866366
2291+355131105+356337945+357704344+359168349+360302725+361018083+361633228
2278+362366006+363213914+364132734+365087485+365926649+366589855+367309515
2264+368145752+368967566+369725098+370313479+370791383+371395808+372109650
2251+372784105+373359580+373760190+374131075+374789028+375604918+376153805
2237+376424405+376749485+377189977+377542772+377809670+378252665+378941683
2224+379541030+379830636+379941253+380093408+380444793+380977706+381555085
2210+382031932+382413325+382848845+383414552+383982516+384316270+384573188
2197+385082476+385681294+386211704+386887746+387742036+388595410+389428720
2183+390288441+391108739+391732593+392258066+393062919+394020986+394707535
2170+395347821+396339175+397467028+398404360+399291515+400335585+401436145
2156+402520519+403696187+404966992+406203945+407352320+408501259+409757535
2143+411078130+412279503+413313876+414469798+415954219+417563397+419060724
2129+420442638+421813058+423236899+424806266+426550708+428207842+429655803
2116+431230671+433171099+435206417+437042294+438808916+440649765+442634130
2102+444989520+447636280+450175632+452534020+454846673+457232883+459983665
2089+463141970+466375241+469577482+472767064+475967507+479539046+483632285
2075+487736279+491572847+495572889+500058664+504723005+509309065+514106802
2062+519301906+524792011+530478771+536292475+542296522+548380685+554323165
2048+560267444+566367227+572351422+578167312+584342310+591124623+598290586
2035+605301009+611697169+617946287+624513961+630873519+636579251+642305787
2021+648586217+654706065+660488103+666802385+673440936+679083972+683441711
2008+687598456+692215229+696855769+700894740+704325655+707523699+710322932
1994+712435756+714680459+718002696+721894414+725399731+728300235+730898475
1981+733072866+734428687+735428363+736462242+737437939+738325341+738577605
1967+738654194+740053316+742138424+743409405+743781771+743713574+743766397
1954+744028745+744056673+744232841+745095207+745373000+743865835+742795424
1940+744274874+746659214+748176112+748890941+749911915+751865355+754213587
1927+756099818+756865848+757692458+760012340+763211161+767760090+773751090
1913+778787409+781919797+784715362+789017105+794761906+800793458+806898849
1900+812899158+817948101+822408593+827597808+832513744+836333103+841301790
1886+847206963+852101318+856519567+860894161+864861338+868232167+871119836
1873+873004445+872734620+872779121+877045038+882947108+886585997+887519310
1859+886528873+885107747+884203631+883334495+882193561+880102811+875772294
1846+869306456+864926785+865593235+865831676+862697244+859613024+857432568
1832+852603660+845813835+842301184+841354472+840377928+840011980+839047637
1819+836397562+833542193+831169982+827671929+823373289+820810312+819703158
1805+818151351+815061843+811278450+809858664+810882741+810126654+805569615
1792+802634483+805850794+809494408+809790044+808795517+807977088+807424956
1778+807340116+805986058+801291639+796104116+796977343+802389060+807428271
1765+809494831+808618996+809116894+811453561+812910795+814365490+813623509
1751+808638390+805434985+808289226+812648799+814726502+814946113+815829142
1738+816976494+814463659+811627472+816369496+823675061+829537637+833594098
1724+835601489+835866377+831948142+823944532+822211409+831354402+841734666
1711+847957126+849634324+848436194+847444840+845546197+840398027+839204129
1697+845826882+857082911+869507802+876785651+879389885+878742688+872631444
1684+870013952+881655323+894557660+899917895+899904919+901405243+903719342
1670+904613161+911954976+923788806+929752514+931705319+936715051+941651579
1657+940077416+929942223+923678648+934917257+944104751+947167178+954877974
1643+965531799+971302624+969488539+960429470+955741256+966877253+979584804
1630+983957352+982860918+980417055+978735485+982572546+988219320+987899494
1616+986469200+991096270+996306289+998651207+999768728+1001393809+1003378843
1603+1004932977+1006758346+1009706313+1011785074+1011799602+1011985785
1591+1013136664+1014038734+1015001949+1017470706+1020925317+1022244183
1580+1018807697+1012286710+1012201941+1020221277+1022771279+1018868560
1568+1019334158+1024036829+1026081245+1021995798+1008347883+998904740
1557+1010991751+1024095928+1030865441+1036139990+1042890462+1046372718
1545+1041465387+1030587718+1022272887+1030293281+1044501086+1047887500
1533+1048162754+1056703685+1063678846+1060371772+1052923889+1046875835
1522+1043733434+1046334988+1050598930+1055368034+1060444270+1060086996
1510+1051814549+1038271432+1035356964+1050704081+1061613979+1062119705
1499+1058717000+1058653599+1062868739+1064958924+1060703022+1056361574
1487+1061343379+1069855607+1073741823+1073046317+1069230554+1062522678
1476+1054318922+1047502228+1047160328+1050889700+1050339543+1045064077
1464+1040769881+1037342845+1027877628+1011613066+1004537057+1011056986
1452+1016664266+1016975488+1012918322+1008113391+1004032106+998510865+991566029
1439+981574986+967355616+957573183+953341118+946955960+940791682+939845534
1425+940139336+938853122+937820089+939344744+947496595+959427467+968376026
1412+972795826+973879213+973157119+974119276+979635933+985464024+987986803
1398+990670517+995587863+1002701673+1010755920+1013576803+1009614703+1006150431
1385+1008444783+1012950269+1015945769+1018632516+1021521878+1022485445
1373+1023406910+1025902749+1027304622+1027719937+1028005206+1027912326
1362+1029351717+1031744662+1032426839+1030800418+1028264945+1028149498
1350+1029722814+1028206622+1023506419+1018851493+1014112079+1007866699
1339+1003014658+1002712534+1003585196+1001513065+997904994+996726259+999250378
1325+1001961949+1001302904+1000565647+1004555040+1011306922+1015909591
1314+1017572049+1018474895+1020065843+1023188004+1028245763+1032522752
1302+1032793352+1031499662+1032220769+1033993315+1035789628+1038285678
1290+1041620680+1045452734+1049641498+1054414622+1059550592+1065150397
1279+1069470687+1069546571+1067475850+1066075387+1064595797+1063021352
1267+1062614148+1062663303+1060386582+1055921153+1052315198+1050313097
1256+1049237185+1048978080+1048276650+1046429207+1045626858+1045347301
1244+1042168650+1036940577+1032760911+1030558733+1028991059+1027128312
1233+1026354948+1026321167+1025467687+1025345893+1026313762+1024774720
1221+1020251955+1017031272+1016978027+1018447039+1020471355+1022213506
1209+1021288233+1018219035+1017944697+1021880986+1025199838+1025721926
1198+1025824326+1024594391+1021088015+1018662136+1018751913+1019611176
1186+1019076675+1016946785+1015540751+1014365894+1011422723+1008903893
1175+1009051923+1010191658+1009890945+1007669162+1005402384+1004894048
1163+1004723874+1002702167+999224425+995704439+992787220+990958466+990266063
1150+989765837+988928860+987491232+985237149+982931019+981351920+980668543
1136+979868027+976837829+971717163+967353077+964557230+961911317+959850046
1123+959216812+958936832+957353431+953663482+949569644+947508373+946624427
1109+944860837+942601042+940183273+936986004+934070618+932273882+930308453
1096+928303390+928539010+930127630+929374718+926317580+924166743+924224573
1082+924965638+925043919+924975017+924960278+924953014+925386524+926507077
1069+928684148+930302882+929961547+930581733+933631184+936457780+937622975
1055+938032930+937986737+937361755+936538953+935671651+936723232+940206122
1042+941673583+940137432+939058770+939238535+940213527+942602734+945318890
1028+944786152+941040561+938185896+937019220+936055512+934799271+932417963
1015+930730327+932346169+934080492+932328891+929152568+928251132+930451335
1001+932950206+932676150+930149916+929063990+931057769+933922025+936240285
988+937740186+938806506+941941362+946796928+949834531+951910683+954617811
974+955436452+954552153+953995720+953501137+953647262+954786010+955781102
961+955943871+954524790+951479006+949837705+951652213+953475607+953180041
947+953505650+954318014+953125668+950531166+947623397+945003366+943993888
934+943187165+939848002+935460714+933524411+934084089+934109900+932488275
920+930913195+930406975+929871206+927670932+924891305+923888950+924398696
907+924775646+924642850+924722824+924945045+923925481+920989926+919418585
893+922916849+927278255+927421066+926752571+927445397+927744982+929536429
880+933701779+935972435+935642242+935967075+935998599+935627503+938983098
866+945316844+950147234+953821244+958405576+964702509+972702029+978813837
853+980101602+979662098+983667288+994201576+1006025462+1014166453+1019920141
839+1025542231+1028765664+1029163771+1032776990+1040239612+1043728215
827+1042697015+1047255958+1057799203+1061552764+1056431181+1051191612
816+1049803562+1050747312+1050446880+1048398656+1046775832+1047051228
804+1048054782+1045937092+1041391901+1038777864+1037902452+1034446783
793+1026706791+1019743126+1018687736+1021630838+1023098439+1019905542
781+1013323270+1006887616+1001042318+994482684+990296811+990531374+990201040
768+986205864+980738150+975133973+970432854+968187022+968478850+970392796
754+972264146+971413347+967676429+963650928+961849820+963375251+965227771
741+964382543+961510600+958246686+956300439+954180281+950366140+947233894
727+945665373+944474508+941282034+935569462+932384393+932808171+932869668
714+932987443+933927102+935360006+938949246+943733866+946936918+949168293
700+952504211+955018316+953299227+948042873+943883095+944338679+948714260
687+957189816+967540318+971201987+966302766+959710549+957357451+958789649
673+957810284+951535566+945573622+951411868+962700619+967236854+967900695
660+966248886+961759408+959604129+960808747+960741890+958084340+955758816
646+957558655+958603678+960783781+977625581+997119852+993924558+977011953
633+972193481+987666907+1005318743+1009575492+1009098680+1010376783+1011735496
619+1009138526+990493009+964964153+963018329+980936181+983177288+974261170
606+983951781+1003983233+1009953147+1012037338
##END=
