##TITLE=Sample description
##JCAMP-DX=4.24
##DATA TYPE=INFRARED SPECTRUM
##DATE=13/9/2023
##SAMPLING PROCEDURE=Instrument type and / or accessory
##ORIGIN=Default
##XUNITS=1/CM
##YUNITS=ABSORBANCE
##RESOLUTION=4
##FIRSTX=4397.6552
##LASTX=599.8556
##DELTAX=-1.9287962
##MAXY=1.6959522
##MINY=0.29286945
##XFACTOR=1
##YFACTOR=1.5794785e-009
##NPOINTS=1970
##FIRSTY=0.32288668
##XYDATA=(X++(Y..Y))
4398+204426123+204567334+204356026+204501408+204777000+204613166+204039546
4384+203278354+202318176+201849578+202373008+202669432+202109680+201689706
4371+201785482+202418406+203956053+205348752+205150671+204048640+203444906
4357+203311733+202535937+201096274+200683262+201943336+203199597+202908929
4344+201879806+201577778+201830087+202054603+202334158+202641959+202826813
4330+202494502+201198824+199679725+199112124+199560193+200502597+201504191
4317+201887542+201163182+200061452+199405981+199161880+199491550+200143794
4303+200152530+199526343+199122388+198864324+198337875+198449784+199235561
4290+199495984+199874730+200639242+200549183+200041301+199505474+198437350
4276+197755218+197811181+197657139+197367150+197514324+197822427+197514154
4263+196636129+196251515+196930270+198356216+199612326+199720971+199342866
4249+199797313+200267364+199417510+198169342+197921826+198166550+197876202
4236+197575986+198169908+199074462+199455115+199636422+199826861+199525041
4222+198758642+198435708+198968554+199513833+199471398+199495965+200159191
4209+200518729+199649780+198303516+197553438+197962884+198860777+198894948
4195+198331800+197825653+197511343+197818899+198630148+199220278+199009611
4182+198076415+197263996+197163446+197507663+197945449+198001394+197230920
4168+196597902+196683848+196435916+196005546+196429859+197237675+197719217
4155+197652196+196817568+196124587+196566656+197506701+197862145+197395924
4141+196724094+196541957+196989819+197500550+197378131+196728113+195819521
4128+195052839+195459794+196854532+197885938+198387198+198335611+197182050
4114+195805125+195365546+195558797+195996960+196742906+197357093+197319639
4101+196662262+195975054+196083321+196735472+197072179+197101992+196853324
4087+196170286+195615723+195673951+195927808+196012848+196129077+196452049
4074+196790681+196581184+196084850+196250590+196640111+196175022+195222901
4060+194990158+195446266+195769124+195847786+195704462+195578854+195687197
4047+195763520+196132625+196958138+197593704+197536985+196781888+196101058
4033+196219514+196478804+196120039+195793502+196031810+196429237+196492106
4020+196034075+195820465+196538749+197455888+197628969+197301261+197322300
4006+197359867+196810436+196606430+197125728+197283072+196883061+196562316
3993+196709490+197562325+198694923+199346130+199221598+198555617+197989451
3979+197626648+197234184+197234788+197677838+198208872+198985290+199510682
3966+199236391+199055443+199571344+199967676+199448133+198460407+197996055
3952+197808540+197287223+197170352+197144446+196264760+196554825+198773831
3939+200075358+199436416+197808483+196598260+197442058+198849513+198220476
3925+196994498+197268298+197339828+196503541+197028895+199615440+202038112
3912+202658563+201760349+199138690+194391311+190456351+190546127+193747388
3898+198080246+200513107+198650620+195725745+196624525+197325488+195236316
3885+194519315+194570694+195000215+197935826+198719754+196046075+193256128
3871+191360264+192645715+194816455+194219571+195408151+199946487+202209683
3858+199189749+191020537+185421606+192511824+201314337+204478577+202383707
3844+197801351+193699103+191107275+191262016+194552863+197674027+199653573
3831+201395773+201987073+201589269+199603402+193930185+190693811+193871221
3817+197372565+201968997+206777227+207317638+203349375+199383886+198464181
3804+196438916+195258732+199052481+202708602+205828615+209518568+211595683
3790+212090546+211532172+210247306+209925240+209673723+208662827+210259344
3777+214018487+215317826+212844171+210044507+210812529+213483869+216248305
3763+217656401+215848671+214973779+217977769+219815349+218506105+222506821
3750+240626521+262277773+284798049+310837670+325013919+323727128+312835896
3736+300382206+296760688+301928834+308306335+312016515+314938805+320235784
3723+327969172+337667710+348527563+358394709+365097653+369697858+379877730
3709+399159217+422555688+446734634+469545617+487535747+497835849+499804508
3696+494556662+483815189+470273034+459867910+456234374+454881543+451736436
3682+446387115+438734673+427445788+415215859+411550736+410410893+403650476
3669+400068413+401633287+401004590+397153613+391912635+385119048+376976705
3655+370417312+362867175+350312746+340368805+342306633+348257065+350103608
3642+346976953+341731183+336699154+331767317+326131234+318762535+309679487
3628+306759461+310405394+311035525+305674827+297603788+293448859+292575797
3615+289967421+286541759+283561071+280972470+280903166+281589412+279200703
3601+275233780+272657292+270458173+268239809+267628886+266671972+262245621
3588+258062522+258848902+260478835+259820345+258003105+256000596+254003030
3574+252302586+249987954+245091269+238984305+237561774+240655163+242530103
3561+242047806+240992852+239830951+238150772+236673145+235927935+234397817
3547+232008221+231173990+232357929+233425280+232902907+231445432+230339589
3534+229522698+228136206+226220247+224672033+223610928+222801528+222723374
3520+223241200+223479641+223123386+222146245+220707261+219667213+219416942
3507+218854454+217552832+217022591+217776839+218243946+217697874+217143009
3493+217017289+216462839+215425961+214720432+214579050+214662487+214523577
3480+214171379+213962920+213796160+213422773+213158671+213206106+213250805
3466+213157539+212953363+212800906+212958627+213184445+213101858+212844718
3453+212519068+211626665+210139982+209260014+209574211+210395140+211216861
3439+211629496+211463623+211142444+210940269+211002912+211234824+211168143
3426+210691431+210177473+210156737+210844681+211695988+211949184+211555192
3412+211107651+211104084+211400602+211533625+211693403+211980807+211849087
3399+211739348+212514502+213604664+214171718+214352044+214501369+214785245
3385+215193653+215460019+215421338+215354752+215561946+215760008+215616193
3372+215418074+215639156+216371176+217188237+217699969+218003619+218300136
3358+218575861+218794886+219222917+219816424+219855595+219097027+218282853
3345+218173944+218347043+217937692+217441263+217724347+218306023+218014468
3331+216755055+215873521+216104584+216571635+216439273+215865407+215266296
3318+214638165+213500812+211459679+209177823+207936033+207967317+208369460
3304+208088716+206683733+205081311+204245533+203674271+203173125+203331620
3291+203847559+204193361+204324874+203944486+203343469+203444435+203907863
3277+203911221+203906165+204620921+205722687+206446632+206864984+207346092
3264+207764556+208068414+208119698+207667648+207236957+207477812+208208399
3250+209033120+209417207+209184898+209211824+209695064+209961977+210060055
3237+210565032+211615665+212307684+212061715+211831765+212350101+213348035
3223+214489350+215342261+215526870+215307316+215457283+216370875+217425829
3210+218190077+219070875+220121527+221128990+222092979+222955173+223872369
3196+225073648+226327061+227332844+228281531+229344750+230054053+230330740
3183+230784413+231191292+231528151+232715316+234086789+234456403+234714146
3169+235805592+237284068+238600954+239574397+240351645+241081798+241564755
3156+241992314+242765864+243683211+244492686+245189932+245573302+245469808
3142+245227141+245391731+246009880+246433005+246279020+246336418+247014059
3129+247325615+246766316+246112204+246083958+246382966+246179130+245337635
3115+244439873+243896519+243809705+243829517+243254840+242024956+240729675
3102+239841914+239295408+238722184+238373948+238695523+239243746+239237085
3088+238808734+238932247+239738703+240365306+240507612+240409703+240335645
3075+240636936+241442298+242340644+242697277+242505404+242273227+242237981
3061+242359268+242366589+242165923+242198339+242654295+243028475+242787940
3047+242126620+241485243+240862697+240388325+240183357+239654059+238355683
3034+236693240+235224123+234225397+233595605+232903548+231905539+230785488
3020+229896633+229282276+228657749+227906841+227212161+226668976+225963371
3007+225074497+224483405+224176642+224039883+224403422+225275729+226613994
2993+228823433+231758535+234596936+236951794+238830300+240075241+240568236
2980+240662163+240934114+241423845+241595208+240891000+239319144+237617172
2966+236439686+235752251+235230142+234577143+233715892+233018797+232786092
2953+232911624+233199689+233485206+233717609+233825536+233632286+233120328
2939+232465838+231831310+231149065+230348061+229674457+229344655+229288333
2926+229283540+229156348+229000023+228621673+227770856+227117347+226897209
2912+226660297+226793489+227474584+228202057+228765941+229177556+229617040
2899+230074544+230320513+230595521+231079987+231480791+231757025+232085506
2885+232416478+232670806+232962040+233382147+233683929+233713458+233794083
2872+234047996+234151923+233941181+233555699+233183933+232980456+232931700
2858+232726355+232222454+231715628+231204915+230385553+229583304+229411657
2845+229802725+230310758+230855660+231542000+232252568+232955210+233706344
2831+234321532+234784714+235212557+235385071+235362523+235533717+235861273
2818+236258398+236670937+236819357+236866132+237262784+237913689+238419572
2804+238827187+239548905+240624879+241511848+241798667+241808214+242001144
2791+242400910+242806563+242869282+242586048+242457553+242427326+242164734
2777+242088769+242320738+242229811+241817234+241489828+241249463+241213103
2764+241403920+241447204+241332031+241356919+241469261+241486017+241498923
2750+241593378+241564604+241382146+241344107+241419317+241345315+241211349
2737+241163555+241111912+241020456+240944454+240851848+240727448+240632672
2723+240584387+240527612+240423326+240312323+240197263+240139941+240340154
2710+240681277+240823960+240746052+240585331+240400231+240276794+240234774
2696+240143583+240011032+239946841+239850895+239657795+239468960+239235481
2683+238862150+238421855+237960219+237523112+237205726+236843716+236320475
2669+235921162+235702608+235378731+234954248+234648371+234503480+234341966
2656+234033825+233722269+233540453+233498584+233510622+233359070+233179028
2642+233270691+233387184+233300899+233325353+233595285+233778026+233715533
2629+233663438+233771459+233904369+234014561+234132753+234307041+234650994
2615+235103856+235526566+235896501+236212283+236500895+236813168+237177631
2602+237620700+238150394+238729486+239380353+240164376+241009531+241784761
2588+242351569+242618030+242775638+243074929+243388334+243553415+243732231
2575+244012220+244289813+244517253+244655314+244688428+244726523+244777638
2561+244742146+244714428+244683031+244503573+244445553+244795091+245251255
2548+245418920+245340276+245190536+245088835+245197631+245446940+245556603
2534+245552641+245749665+246122581+246270416+246119883+245991804+246070278
2521+246299643+246532178+246684522+246845281+247048211+247144893+247072646
2507+247006135+247167856+247575377+248023031+248294775+248421816+248591670
2494+248859092+249178649+249547867+250055088+250642897+251091457+251484940
2480+251937858+252146751+251891838+251438335+251141610+251031154+250978643
2467+251015323+251247028+251553584+251644077+251444071+251235178+251334596
2453+251671643+251935934+252003087+251970275+252053579+252354342+252703314
2440+252971152+253202253+253407353+253558602+253647605+253690134+253719531
2426+253736362+253757306+253818119+253926405+254071975+254193167+254209319
2413+254172884+254231470+254407098+254681766+255058720+255423070+255671794
2399+255824402+256061163+256471005+256755372+256781203+256744711+256578914
2386+256067767+255015077+253005530+249870310+246130393+242356494+238564293
2372+234559746+230474008+226532123+222809547+219681572+217735800+217343449
2359+218649561+221735139+226523765+232863434+239324522+242670088+241290917
2345+237320333+234658692+234373910+235652513+237685947+239346315+240326305
2332+241415486+243474809+246222112+248715975+250861583+253209875+256161996
2318+259641585+262809241+265047153+266940489+269095739+271338764+273485806
2305+275496277+277318499+279089530+280852259+282357735+283653809+285039264
2291+286357999+287440218+288591062+289913495+291033055+291743358+292297015
2278+292975374+293782510+294550003+295234721+295954005+296684441+297279590
2264+297713130+298086254+298455057+298869314+299353026+299783925+300148520
2251+300544720+300954410+301297873+301600655+301938665+302191143+302299429
2237+302440962+302672100+302925164+303248720+303679223+303976458+303993326
2224+304082008+304469981+304820878+304874785+304888201+305174812+305575465
2210+305840510+306175482+306746857+307410008+308054139+308541455+308895068
2197+309450367+310268107+310998014+311513048+312107687+313000165+314009043
2183+314901464+315767470+316680212+317567822+318502113+319430026+320214463
2170+321042524+322088327+323215642+324316503+325416949+326482640+327518178
2156+328576925+329627898+330697589+331866263+333088109+334230858+335205791
2143+336069665+337062561+338390938+339962303+341486610+342804156+344048720
2129+345393475+346793401+348214196+349782693+351490213+353082635+354518449
2116+356059021+357780692+359644405+361704689+363863014+365897789+367811579
2102+369854164+372192306+374805361+377584307+380387631+383204013+386254778
2089+389737933+393454302+397100555+400849982+405020741+409552680+414273757
2075+419096496+423991427+429184630+434809770+440589970+446433305+452571855
2062+459012075+465631695+472497247+479521181+486416206+493262889+500324900
2048+507582501+514945991+522209894+529160166+536049945+543215845+550651526
2035+558188079+565595684+572725092+579657099+586342646+592489725+598266794
2021+603919217+609162271+614203847+619689662+625562959+631353387+636641196
2008+641124417+644929053+648501606+652054084+655190474+657609939+659712187
1994+661528917+662987826+664737989+666741894+668604060+670666382+672833009
1981+674432753+675407572+676052723+676357562+676471980+676519453+676329485
1967+676053704+675916342+675857246+675930531+676199595+676206689+675781923
1954+675848642+676757195+677584011+677713977+677080223+675961550+675918379
1940+678053685+681094072+683806904+686028174+688168762+690903255+694364786
1927+697913113+700691002+703365870+707112089+711898413+718336934+725724161
1913+731718066+736534805+742100019+749030554+756650316+764315438+771574888
1900+778311531+784538423+790290133+796270980+802247073+807544732+813092285
1886+818724972+823107511+826571005+830066726+833279722+834799312+834629043
1873+834204427+832711027+829985893+829959251+832848087+834799991+834534173
1859+833027111+830955506+828442906+825624110+822218580+817508258+811038793
1846+803247705+797590565+796244036+794709050+790685917+786435911+782587576
1832+776799413+769561322+764968664+762464820+760026260+758637617+757672760
1819+756005317+753506001+750274740+746457123+742977553+741645667+741618722
1805+740420123+737581326+734466823+732910401+732609487+731047632+727633045
1792+726426596+729957563+733512607+733901901+732524277+731390434+731604402
1778+733274789+733801294+730551241+725972394+726487352+731282808+735539834
1765+736905684+736136304+736936930+739274732+740961345+742760038+742910231
1751+739982148+738604071+741521210+744847644+746222324+746858795+748885493
1738+751218238+749990430+748046753+752789981+760106791+765797744+769502603
1724+771600851+772265021+769707213+764386459+764057317+772333098+781957973
1711+788072183+789550263+788433325+789365956+791644435+791064645+791198913
1697+796418079+805925215+816329584+822776558+826479606+827939949+824403774
1684+823259364+834042536+846467415+853291833+856044666+859700090+863346532
1670+865548028+872248896+881687502+886547639+889279943+895197921+900585016
1657+900209760+892600263+887732503+895979754+901640970+904443917+913530438
1643+923412754+927934919+926274722+919637327+918586203+928776000+935799292
1630+935468717+935585324+940049072+942255776+940155566+939251918+941644815
1616+948084393+953364693+953433072+953382882+956586671+959747665+959827819
1603+959335654+962986625+969364691+972552630+972693540+973500506+974245433
1589+973872064+975322444+980797768+986852279+988106880+984440739+980625537
1576+983995066+991578601+991196401+984705124+984848524+992251450+998034632
1562+995366632+981660812+974093881+986744879+1000754633+1012770217+1022388979
1549+1026986920+1025440084+1020025214+1017094188+1020300769+1030309730
1537+1039681844+1041838886+1041918812+1046315465+1050672569+1052299256
1526+1050763666+1042975823+1034228030+1035000882+1044153743+1057592764
1514+1067318849+1064359219+1051219980+1038755101+1045574538+1066058512
1503+1073741823+1068780777+1059736522+1056165026+1061525554+1066620717
1491+1064539828+1059204583+1058732268+1062729437+1066340784+1067859544
1479+1067195450+1061731598+1051775770+1044673683+1047301681+1053779751
1468+1053331512+1044657833+1038825593+1039596105+1033734129+1016856445
1456+1008077179+1013274307+1015934533+1011900306+1006093953+1003540598
1445+1000733425+992704217+982443852+972880262+964853092+961503790+956263190
1431+943411658+932728036+931970580+935638457+939456980+940400705+937708025
1418+940794980+951526905+962525027+970661558+974300604+974268905+974600311
1404+978330453+983443881+986911903+989278838+991985706+997776662+1006444303
1391+1011129492+1009863720+1008033178+1008718329+1011105189+1014410188
1379+1016392961+1015826303+1015116472+1018607665+1025872700+1031165981
1368+1032079365+1029605107+1024986939+1022354714+1025078111+1029872812
1356+1032296126+1032119140+1030119687+1026082064+1022058252+1020448849
1344+1019489576+1014537512+1005663073+998945752+996397906+994572949+992503457
1331+991396105+991706982+993303027+994822919+995509655+997167287+1000932374
1317+1005463068+1008582854+1010007875+1011502030+1013846474+1017086716
1306+1020675874+1022794047+1024084574+1025794886+1026108631+1025229436
1294+1025132000+1026034817+1028948409+1034358524+1040181028+1043831168
1283+1044535188+1044324088+1045566991+1047934831+1048994333+1047463120
1271+1044247784+1040748591+1036740629+1030821896+1024770933+1020877238
1260+1017229362+1012954826+1009348762+1005951383+1002372867+999664715+998004216
1246+996636856+995603318+994895675+994007877+993187703+992854033+992009934
1233+990356453+990542496+993022188+994563892+994199580+992759992+991046057
1219+990565515+991583733+992977885+993630809+993368538+992918563+993175627
1205+994747898+996712028+998012442+998926732+998814729+996640555+993614130
1192+991724718+990783861+989256422+987222780+985805910+985583337+986622084
1178+987298857+986152259+983918083+981736285+980884941+980284018+977436240
1165+973683002+970417400+967270745+965240273+963844913+961516168+959529018
1151+959144780+958567783+955909218+951341089+946322457+942829830+941308428
1138+940538067+940375421+940536407+938807905+934221738+928549201+924415122
1124+923301430+923700762+923155388+921548249+918692017+913427416+907908921
1111+905242128+903643215+899017878+890967613+884672416+884844950+887870922
1097+888432296+888488222+889969547+890681341+890106532+889928791+890682020
1084+891875563+892464410+892953556+895740653+897756785+896397502+897372397
1070+902904251+908828871+909822861+906359443+906275516+909518853+910996781
1057+911491512+910574052+907287167+905351415+907606723+912070623+915720839
1043+917825276+918636468+918306799+917891164+917932373+917478700+917243146
1030+916941326+914812738+912014999+908872269+905275337+903517929+903380038
1016+902438502+900717925+898027585+893268659+889432324+889880714+892385841
1003+893142391+892437013+892049606+891256376+889842524+890415824+894507562
989+901155598+909347527+916716339+920351007+921242353+922085698+923050253
976+921948939+919015423+917343149+917261713+916510069+914034301+911331885
962+910106039+910144380+909823692+908277912+907312225+908167645+909598931
949+909162843+906232873+903599894+901957583+899841523+897582290+895539062
935+893133334+890837194+889721993+888401503+885130090+880043154+874295671
922+870440317+868975144+867645068+865272851+862190424+859516311+857234209
908+853951022+849639051+845270551+841921928+839985421+837284137+832062329
895+826952827+825708037+827646129+828418076+827021961+827069207+830034272
881+833685318+835671639+836045159+837405499+840354261+842781877+845258324
868+849733846+855981570+863224566+872100515+883190110+894211855+904090851
854+915111614+926767943+937878520+950907190+966496007+981177175+991944951
841+998573590+1002909713+1007588939+1013122831+1017117962+1018900579+1020615419
827+1023628787+1027771470+1031361156+1033212756+1033963947+1033407931
816+1031404629+1028915578+1027322627+1027615013+1028349977+1027071677
804+1024172727+1022461962+1021693035+1018397244+1013062225+1009129360
793+1007182210+1006387396+1004677536+999071416+990626121+981883308+974883413
779+970981793+965942331+956234661+945748931+937680024+931272976+926770132
766+925280807+925662629+925476058+923949222+922963307+923069952+922802095
752+921742896+919893862+918957459+919271581+917498550+913643799+910914515
739+910687339+911375962+909326847+903653706+899224902+898770021+898009472
725+894150948+888927102+884641699+883327548+884560866+885405569+885108504
712+886767042+891336001+896794268+902422502+908561241+914902250+918086868
698+916566146+914249628+913758821+914621412+916359348+919107953+920904230
685+919555362+917051895+916260552+917498474+919595741+921541758+920247382
671+913110803+906560883+911359358+919297166+921641912+923422490+927888201
658+931716686+930563371+925596061+921561230+923270335+928849436+928609731
644+923565438+925146312+934671109+941339524+939787631+939350788+946653258
631+951509093+941798706+928491161+923228447+916042282+907052293+907727331
617+914115511+916793775+921105519+944321645+973461033+971627246+960230547
604+962263736+959849178+954449780
##END=
