##TITLE=Sample description
##JCAMP-DX=4.24
##DATA TYPE=INFRARED SPECTRUM
##DATE=13/9/2023
##SAMPLING PROCEDURE=Instrument type and / or accessory
##ORIGIN=Default
##XUNITS=1/CM
##YUNITS=ABSORBANCE
##RESOLUTION=4
##FIRSTX=4397.6552
##LASTX=599.8556
##DELTAX=-1.9287962
##MAXY=1.6598049
##MINY=0.24620399
##XFACTOR=1
##YFACTOR=1.5458138e-009
##NPOINTS=1970
##FIRSTY=0.28490454
##XYDATA=(X++(Y..Y))
4398+184307151+184246633+184164291+182612398+180760749+180305736+180641776
4384+180971588+181219926+181021714+181130411+182237125+182987709+182581512
4371+182405164+182938315+182914178+182356984+181972187+182079265+183424503
4357+185005508+184908532+183671799+182510178+181833839+181866247+181923102
4344+181483185+181666050+183101535+183904752+182584076+181027325+180970335
4330+181039702+180306006+180159406+181058885+181725778+181762235+181959000
4317+182139012+181362824+179929943+178699070+178287783+178850336+179674780
4303+180620858+181426331+181377747+180981112+180885274+181200396+181342581
4290+181060697+181661038+182888999+182892180+181701197+180448635+179879180
4276+180056936+179780566+178587269+177675895+177526190+178177640+179642873
4263+180713784+180509461+179593691+178946174+178994488+179006461+178531937
4249+178429776+178604158+178321715+178595367+179685577+180021018+179526483
4236+179092948+178812645+178762403+178982708+179306313+179703757+179887856
4222+179822287+180300627+181146105+181546518+181522997+180847911+180096285
4209+180180960+180328679+180250751+180488736+180573276+179789955+178516765
4195+177429524+176886404+177535387+178837168+178999964+177665580+176258321
4182+175935314+176415698+177254621+178202954+178683473+178620661+178328212
4168+178147738+178190480+178105458+178112033+178511578+178414160+177627291
4155+177467465+178055178+178290155+178119417+178045268+177994872+178060383
4141+178633713+179615207+180123797+179286127+177913725+177324200+177122345
4128+176711791+176528521+176904315+177531627+178020147+178203533+177953614
4114+177573560+177636237+177878367+177454143+176473402+176191460+176906956
4101+177377219+177153655+177091903+177498910+177757061+177627195+177441303
4087+177325685+177533594+178131447+178397059+177821917+177030884+177226396
4074+178035609+177857468+176925310+176448550+176220880+175723395+175615836
4060+176571341+177942914+178816173+178811103+177795562+176482848+175979792
4047+176381747+177026797+177370779+177503980+177808363+178014055+177803968
4033+177642098+177759201+177881644+178012262+178023560+177624843+176919873
4020+176392004+176368387+176350553+176279297+176864676+177858856+178780082
4006+179584225+179475933+178155508+176986676+176596288+176526246+176825925
3993+177295493+177573598+178019607+179043766+179990383+179987877+179450002
3979+178657003+177723206+177551735+178074380+178358115+178354008+178598393
3966+178838248+178777422+179126128+179592438+179524922+179534503+179488696
3952+179020226+178730631+178685016+178063294+177167208+177688619+179238430
3939+180034495+179552684+177600879+175901267+177024098+178876306+178279262
3925+177029881+177676049+178187762+177131908+177357554+180478769+183152182
3912+183172695+181743978+178546185+172852388+168423916+168797415+172579701
3898+177646166+180462150+178234630+175289436+177363241+179067711+177095798
3885+176119085+175468291+175009981+177837032+178583857+175382208+172509447
3871+170980091+172542781+175144976+175035604+176335130+180634970+182233751
3858+177382733+166220129+159271438+168419771+179609519+184125713+182222260
3844+177171990+172159526+168812280+169794622+174282956+177263027+178655981
3831+180354320+181409307+181387078+179218746+173227507+170491648+174299267
3817+177308160+181178687+186583043+188406852+184689943+179530570+177475100
3804+175049350+174399963+179248532+182941631+185486008+189453356+192355538
3790+193278518+192794895+191711876+191399686+190218130+188038905+189757738
3777+194577929+196621851+194372854+191418618+191925646+194636943+197599894
3763+199144287+197388418+196815377+200810199+204006005+204131900+211449502
3750+237203275+266572297+291717093+316433443+330614656+331390574+324375928
3736+315482449+313438180+321756362+332730297+338621226+340107935+341796577
3723+345348416+350636054+356908714+362492407+367047082+374541514+391708023
3709+417817115+447718036+477632799+503724501+522879561+533796237+534769961
3696+526632214+512709306+493953290+476286674+470009426+470214520+466296527
3682+456653987+444690827+431286919+417556303+411766939+409844361+404933982
3669+403264889+403540199+400323551+395975705+392267317+386622432+378588062
3655+371758035+363065775+348677039+338843980+343462585+352482093+357173652
3642+357222159+355712892+353686630+350750651+347189519+341429575+333063676
3628+331174953+335275368+333943086+324382521+311708859+304456787+301625014
3615+297013638+292764946+291660546+292547706+295544048+298652173+298400345
3601+295625349+293184195+290705099+287398918+284501479+280685975+273498663
3588+267514056+267345053+267615253+265253993+262178528+259386142+256754796
3574+254593386+251854172+246344301+239505155+237220626+239302857+240539609
3561+240274499+239624167+238163985+235684562+233180287+231221444+228796909
3547+226187850+225253321+225877337+226459767+226027812+224810532+223743149
3534+222858765+221390737+219352753+217575157+216409718+215569967+215170228
3520+215469309+215921526+215765922+214630849+212820381+211432208+210804530
3507+209722571+207974896+207560756+208740191+209193295+208425802+207670320
3493+207345154+207147310+206775468+206108556+205207766+204397704+204204969
3480+204427838+204209731+203587219+203388873+203710202+203612764+202756336
3466+201936114+201292202+200575665+200383160+200939409+201546960+201745846
3453+201514320+200581969+199089765+198073299+197928626+198184444+198627041
3439+199044786+199145309+198942451+198687462+198539050+198459426+198511712
3426+198408085+197712659+197065161+197325471+198196397+198818659+198964199
3412+199211823+199586614+199408376+198918275+198975149+199517690+199704218
3399+199379380+199242188+199363513+199565464+200065880+200540345+200728550
3385+200845403+201020093+201396253+201900679+202397604+202890154+203192724
3372+203152276+202958114+203024493+203528398+204195695+204808317+205358261
3358+205607350+205393947+205102770+205077225+205124151+205014779+205114222
3345+205818903+206614678+206777570+206448529+206219952+206059027+205493968
3331+204880479+204629693+204161204+203379407+202703337+201952328+200976984
3318+199856853+198637008+197432876+196281589+195272044+194633203+194310910
3304+193861700+192949632+191931912+191546074+191712840+191682071+191196539
3291+190764893+190916429+191255919+191271593+191234423+191090907+190633986
3277+190583127+191082116+191437049+192048919+192880823+192841262+192345165
3264+192210904+192131261+192160141+192668095+193247074+193367570+193308170
3250+193394734+193328066+193074118+193124206+193598383+194222706+194593661
3237+194442356+194467227+195375767+196572072+197370122+197880139+198286606
3223+198759162+199523802+200101778+200072223+200274309+201007754+201558161
3210+202380928+204013409+205459805+206238114+206914704+207548031+208168924
3196+209151285+210381000+211456519+212372945+213459261+214543706+215298667
3183+216115592+217057872+217720986+218189571+218525340+218598371+218755922
3169+219620872+221183002+222807714+224018632+224840974+225723661+226864229
3156+227986982+229043897+229985502+230284563+229980065+230041508+230723902
3142+231323779+231570401+231569418+231282001+231012957+231127400+231282541
3129+231278723+231290368+231143652+231158150+231721031+232127806+231814863
3115+230970080+230049818+229484604+228950083+227854552+226402160+225242178
3102+224830698+224877007+224486426+223630133+223087264+223069527+223367625
3088+223761753+224053817+224343566+224778297+225242641+225633935+225994247
3075+226239673+226389397+226684911+227162982+227715837+228141352+228234838
3061+228018793+227725034+227695594+227859430+227888735+227729583+227390459
3047+226902209+226275032+225472952+224539541+223502330+222392744+221275215
3034+220229714+219311245+218425415+217384214+216201636+215131226+214373759
3020+213922062+213538191+212993375+212276741+211429201+210468259+209397328
3007+208350940+207631183+207385371+207619230+208247680+208966762+209851762
2993+211633253+214611589+218121438+221156936+223091622+224175566+224967505
2980+225476577+225639025+225663297+225361826+224363212+222840797+221283004
2966+220111782+219445159+219017639+218458441+217612616+216848806+216549590
2953+216502298+216455661+216577314+217102349+217729642+217780154+217099322
2939+216183359+215436284+214693218+213837349+213356193+213360801+213226674
2926+212905017+212727204+212398799+211921133+211663522+211429181+211030021
2912+210656252+210710234+211360489+212021482+212377977+212796879+213226443
2899+213479658+213860735+214384208+214686219+214823759+215191474+215879651
2885+216580746+217105684+217433415+217591120+217790835+217939961+217740149
2872+217473901+217417162+217225274+216879615+216726093+216568098+216264583
2858+216006278+215663337+215097063+214478369+214005330+213701738+213580740
2845+213691712+213931895+214349949+215072829+215891874+216589614+217199787
2831+217777397+218271200+218578224+218773235+219050279+219375272+219635447
2818+219817984+219945189+220103454+220362896+220733600+221196729+221775631
2804+222488756+223311715+224191838+224896036+225325850+225608563+225797983
2791+225953182+225977300+225796421+225595877+225483479+225526722+225627071
2777+225548373+225395256+225226080+224881017+224514594+224361438+224361573
2764+224368572+224334042+224226560+223988537+223785583+223796533+223880399
2750+224001512+224174081+224186304+223990137+223708677+223441928+223242290
2737+223036174+222764258+222523189+222474026+222547268+222505047+222366100
2723+222323396+222415995+222442331+222191333+221799422+221662152+221886005
2710+222081055+221989208+221789705+221605818+221360006+221070006+220857335
2696+220702232+220560375+220503423+220481079+220387439+220289307+220210570
2683+219962136+219493358+219009407+218520694+217924229+217342647+216829739
2669+216378467+216106512+215989158+215877704+215599310+215099434+214641356
2656+214455908+214431269+214290549+214045084+213957825+213967774+213865786
2642+213749126+213803340+213983698+214108899+214123281+214122799+214220372
2629+214428859+214625007+214715273+214822158+215122280+215573206+216032691
2615+216540008+217139250+217643097+217989605+218337424+218736585+219185042
2602+219680040+220135882+220584416+221202841+221934763+222528124+222931796
2588+223278400+223656931+224076412+224563660+225073079+225490207+225792026
2575+225999202+226152993+226254268+226329303+226459921+226556530+226511802
2561+226396685+226321167+226311335+226323751+226363216+226487143+226602820
2548+226581304+226583097+226742672+226857076+226824822+226876837+227028817
2534+227043681+227082953+227293021+227381089+227264989+227161536+227230884
2521+227441357+227616876+227714815+227776220+227810788+227954767+228286545
2507+228571841+228691104+228943297+229458403+229936898+230162158+230189381
2494+230262681+230615976+231147045+231678848+232208548+232673143+233017954
2480+233254030+233275295+233074944+232838328+232609251+232382487+232231568
2467+232189250+232267100+232293416+232142651+232076080+232175272+232182348
2453+232140936+232313737+232633832+232857569+232978817+233172382+233503390
2440+233874325+234197910+234410195+234441563+234268511+233998657+233892833
2426+234017146+234180462+234364561+234669175+234958095+235079498+235175374
2413+235348349+235550107+235833302+236173968+236428688+236559903+236683792
2399+236973195+237502741+238379355+240220362+244733914+254814193+273573139
2386+302784475+341805369+387988299+438863212+493835262+552885632+615143627
2372+679691858+743862097+800963977+846709844+880532807+900296478+905000106
2359+894363675+866403262+821373277+762026506+704951539+676169207+687248755
2345+730126160+768883254+776306275+767085182+757220852+749883662+745432672
2332+744089747+741698720+733854482+720181396+701379302+679150955+655448199
2318+629615149+603914047+585630877+576016909+565228480+543993715+513587906
2305+483079415+460107154+443616966+428687366+413628324+397900635+380771451
2291+363572784+348231377+334680599+322728968+313865816+309024379+307032415
2278+305946177+304847677+303766817+302707666+301714990+300882700+300095427
2264+299192419+298107800+296903032+295752054+294695660+293605469+292440455
2251+291196164+289949116+288863861+287983160+287264502+286618122+286092200
2237+285758552+285402905+285005441+284795990+284645052+284408591+284310458
2224+284408301+284513451+284526349+284487000+284540616+284728628+285043364
2210+285562133+286168720+286655621+287046144+287450741+287919499+288480452
2197+289137030+289859197+290574867+291266457+292043801+292908654+293676880
2183+294352101+295194166+296269647+297351374+298268629+299081158+299967604
2170+300991648+302048350+303052786+304006440+304933932+305871276+306871664
2156+307954952+309122087+310388704+311631587+312709015+313697140+314715670
2143+315899366+317269917+318584153+319798503+321081314+322420267+323796081
2129+325244117+326701599+328152294+329663026+331309678+333103893+334846170
2116+336498567+338370363+340522712+342784182+345156548+347666684+350313819
2102+353167513+356299371+359919343+364325104+369497452+375331236+381745098
2089+388310110+394794342+401386770+408109989+415010308+422278323+429758181
2075+437049640+444081020+451049473+457838473+464022756+469718423+475651997
2062+481949836+488186829+494307684+500386779+506437764+512617845+518992994
2048+525420082+531854958+538296775+544721704+551325314+558119558+564795234
2035+571195793+577507127+583861108+589910088+595619791+601397279+607195512
2021+612591578+617125894+621077548+625517704+630396388+634606039+638077406
2008+641461939+644666595+647544658+650521702+653504992+655840959+657280974
1994+657970018+658749676+660725889+663372253+665367745+666576254+667660294
1981+668645470+669046019+669193699+669612832+670087876+670144018+669493146
1967+668843739+669204341+669939193+670081707+670064664+670305887+670573099
1954+671102048+672040414+672750820+672769637+672138662+671520488+672821923
1940+676584639+680476142+683307897+685876604+688800436+692269335+696379004
1927+700619772+704172884+707820156+712396770+717372545+723939254+732303032
1913+739677316+745566933+751881082+759140615+766608596+774041180+781080388
1900+787371171+793339448+799384843+805171508+809834957+814249240+820011767
1886+825416393+829076775+832303525+835762553+838748003+840142827+840099178
1873+839388618+836999595+833922530+834222054+836891245+838034897+836866259
1859+834389091+831421532+828306525+825145248+821510623+816736819+810611685
1846+802942581+796518462+794709517+793711308+790169610+785356785+780307439
1832+773654513+765722362+760057311+756616251+754252445+753668974+752626577
1819+749636500+746065652+742388150+737772051+733390235+731841484+731965181
1805+730709399+727331345+723304963+721118759+720677184+719005354+715213564
1792+713372924+716461711+720119471+721037092+720251264+719164602+718658248
1778+719287604+718679610+714425500+709761820+711052844+716550164+721427229
1765+723280594+722268350+722159537+723817409+725209996+726431075+725638693
1751+722086661+720537293+723710138+728193364+730542748+730257645+730509896
1738+732142242+730700531+728809147+734482141+742694229+748833322+752543984
1724+754533539+755390700+752757985+746818473+746234385+754662248+764191271
1711+770446348+772552273+771730663+771769839+772072371+770326353+772119875
1697+778915237+788628648+799873922+807347301+811422421+812215034+807074614
1684+805929265+818319347+831075121+837250998+839191737+842722716+846881894
1670+849344101+856597773+866919255+872420509+875650729+882091351+887752392
1657+886491136+877194622+872876582+883727322+890537337+893129256+902340555
1643+913314991+918815551+917538177+909486570+904512492+913349617+923585962
1630+926672744+926248829+926747240+928057157+931223525+934191237+932708885
1616+931322389+936159970+941789624+944754792+946435413+948074623+949671880
1603+951252943+952945518+954218805+954995764+956536494+958416233+958729253
1589+958619669+960400466+964066478+968067025+970215441+968397011+963300084
1576+963201991+970094290+971821028+968199204+969719807+976031103+980487800
1562+978095384+965775016+960179139+974930868+989649590+1000750576+1009935733
1549+1016469050+1018052658+1013395840+1005878504+1002619210+1013073798
1537+1027546747+1034177926+1037862600+1044100094+1047903760+1047155104
1526+1045561856+1042485639+1037604333+1037023407+1041164385+1048769867
1514+1057919704+1061779434+1056203608+1043845452+1041003210+1055602091
1503+1066814898+1067723111+1063263329+1061961509+1065752528+1066886155
1491+1062293731+1059544415+1063787111+1069305099+1072683617+1073741823
1479+1071142732+1064324003+1055752625+1048684035+1047616729+1051944794
1468+1053935428+1050936946+1047182480+1043545619+1034592818+1020289451
1456+1013380031+1016796182+1019557760+1017208992+1010295332+1004077348
1445+999947552+993783088+984647903+973200968+960799318+953472230+949464974
1431+943399760+938444884+936904616+935402445+933358831+931548189+931886581
1418+939544888+950905066+959862109+965961332+968570834+968325214+969282320
1404+973647093+978414959+981010888+982069711+983367830+988750940+998857496
1391+1006762271+1007968157+1005333746+1004017119+1005459987+1008568054
1379+1011655838+1014163777+1016391007+1019065981+1022310160+1024679055
1368+1026048199+1026271146+1024825887+1024083786+1025313810+1026274385
1356+1026597276+1028683304+1031567576+1031081504+1027091445+1022221552
1344+1017364924+1010591000+1001756034+996221466+995508900+996174964+997467762
1331+998835595+999588416+1000010865+999633606+999016204+999080366+999787919
1317+1001615295+1004764928+1008861794+1013156853+1016816233+1019645751
1306+1021445365+1022678628+1024189051+1025609864+1025658293+1024524898
1294+1024178871+1024337579+1024123887+1025612177+1029978878+1035417281
1283+1039448367+1040967273+1041134464+1041600793+1041774539+1039492170
1271+1034822628+1030502969+1027381947+1022775796+1015080241+1006511099
1260+1000121914+996984543+995866340+994776901+992628485+989204468+985127266
1246+982190246+981602148+982206364+982287722+980965774+979023416+979284150
1233+981743736+983064527+982933581+983540728+984813243+984897841+984249592
1219+984838307+985655212+985201299+984714687+985401110+986873360+988239419
1205+988931395+988706057+988071689+987772627+987674071+987507189+986930813
1192+985666934+984172783+982996124+982447047+981930360+980042986+976816776
1178+973859474+972325607+971942642+970937261+968767715+967655372+968084376
1165+967564759+964682184+960819137+957863532+955579852+953271262+951039713
1151+948836775+947073638+945637016+943422895+940281437+936988134+933941916
1138+931460275+929956561+928655820+926745466+925209517+924175217+921605662
1124+917417796+914050075+911885387+909558675+906939148+904020174+900297250
1111+895866001+891312213+887161981+883778219+881956781+881725737+881191776
1097+879604543+878541556+878363723+877566791+876519458+877583911+881056126
1084+884755607+886479337+886147423+885848978+886280913+886431678+887148331
1070+890426519+895431907+898815206+900084328+901870601+903683325+903387193
1057+902582627+903045023+904853737+907833326+909753011+909363337+908937494
1043+909795966+911017584+911786368+911237138+909476082+909084634+910621509
1030+910726080+908073315+904915894+902502887+900482640+898503111+895889908
1016+892778911+889786829+886289551+882233556+879176002+877514119+875479606
1003+872396371+869519889+867754900+867545372+868745398+871300069+877549208
989+888369101+898982011+906389994+912690494+916822681+916109035+912810643
976+910037960+907659194+905290299+903016027+900750161+899689795+899209045
962+897327763+895144721+893807504+892907311+892416767+891758338+890482352
949+889479207+888992133+888152864+886767756+884773652+881871566+878567159
935+875232984+871418521+867224178+863137953+859268429+855849270+852797345
922+850053505+847902466+845853686+843192593+839743435+835649885+831379118
908+827273459+822940844+818430936+814778574+811846953+808628608+805283945
895+802863536+801669294+800828405+800252954+800612399+802142718+804556265
881+806199870+806568183+808146161+811455196+814015959+816382618+821140922
868+826962984+832255866+839421933+849468260+860416322+872589088+887259843
854+901836438+914191200+927428418+943791440+960431699+974090210+984289616
841+992918601+1002507930+1011710977+1016595677+1017870815+1019220062+1021044508
827+1021674866+1021582942+1022595032+1023990242+1024530064+1025108831
816+1025272706+1024259691+1023180046+1021533896+1018398838+1016528662
804+1017632290+1017334077+1013519691+1010105700+1007622671+1003292215+997623925
791+992834388+988008838+981451229+975684537+971153036+963047601+952126530
777+943984079+938250779+931756252+925401848+920453372+915842363+911714803
764+908945823+906673093+904969182+905636171+907763380+907561949+905288680
750+904362653+903629188+901555036+900961386+902415744+901986663+897735946
737+893073037+891515958+892298623+892002029+888965374+885471797+883782846
723+883648739+883425638+881692423+879171066+877381400+877693341+880780971
710+884918247+888249492+891832988+897551867+904311601+909866683+914379290
696+918008825+918878787+918313362+920835875+926055650+929040020+928183630
683+927266549+928455161+928314884+925162629+922868384+926521979+935244122
669+939233642+932172995+925911286+922723557+918351612+914574397+915731854
656+923134902+931876324+935232863+933140666+930406542+928341490+927155500
642+928682503+929340007+924842129+924010494+938247695+952397135+941928513
629+921756118+911598587+910383138+915101727+920554396+922811394+917527072
615+904405916+899990168+907273607+908473092+900765584+899279376+910068345
602+925254785+936492038
##END=
