##TITLE=Sample description
##JCAMP-DX=4.24
##DATA TYPE=INFRARED SPECTRUM
##DATE=13/9/2023
##SAMPLING PROCEDURE=Instrument type and / or accessory
##ORIGIN=Default
##XUNITS=1/CM
##YUNITS=ABSORBANCE
##RESOLUTION=4
##FIRSTX=4397.6552
##LASTX=599.8556
##DELTAX=-1.9287962
##MAXY=1.8627088
##MINY=0.47680235
##XFACTOR=1
##YFACTOR=1.7347828e-009
##NPOINTS=1970
##FIRSTY=0.50324047
##XYDATA=(X++(Y..Y))
4398+290088463+289882312+289381330+288347858+287088514+286807856+287350653
4384+287739265+287186556+286061794+285744184+286109192+286241060+286451609
4371+286335529+284918066+283734345+284085576+285193691+286662863+288026932
4357+288765281+288891892+288593831+288103724+287901111+288522159+288097711
4344+285517881+283829536+284214540+284824817+285467872+286639705+286794130
4330+284645620+282390376+282254298+282858081+283046384+283703903+284261698
4317+283213005+281612274+281567179+282226399+282146395+282896305+285079517
4303+286350355+285611061+284210246+283517336+283880300+284567523+284829473
4290+285055140+284782676+283484627+282756311+282823929+282353801+281935382
4276+282647515+284143195+285362357+285292403+283820774+282166495+281832513
4263+282695359+283179334+283129926+283337366+283050713+281741497+280793304
4249+281361714+282059777+281145926+279739011+279019972+278540997+278813821
4236+280340939+282046395+282717280+282346981+282384586+283698389+284946979
4222+284730228+283532781+282828550+282987785+282976103+282687526+282820098
4209+282730903+282186251+282152288+282408105+282663509+283244684+283609452
4195+283178973+282156188+281480647+281512806+281761184+282261187+282528085
4182+282024113+281616878+281880271+282388761+282562048+281686403+280122092
4168+279869659+281264652+282115095+281078755+279310577+278815281+279446482
4155+279679983+279317861+278972729+279531674+281337612+283116973+283511118
4141+282735971+282198998+282451654+282663784+282169605+281026169+279982167
4128+279614204+279713002+279851226+279663096+279549043+279813741+279858733
4114+280014464+280937266+281437063+280282460+279049349+279584844+280804367
4101+281245668+280987103+280266587+279635420+280358788+282410252+283993684
4087+284218457+283339239+281681198+280357104+280222677+280536302+280636027
4074+280817440+280769905+280397527+280794695+281602723+281450308+281036219
4060+281032147+280359973+279443751+279628772+280275743+280748741+281260305
4047+281519609+281775890+282370001+282496148+281654312+280435940+279624752
4033+279676925+280443946+281253863+281664190+281747252+281784754+282016726
4020+282375326+282407211+282032291+282147821+283140646+284102154+284566527
4006+284709029+284464568+283988100+283795057+284175028+284537425+284285920
3993+283966437+283916171+284023472+284589994+285273970+285264865+284776973
3979+284591385+284755928+284803738+284827514+285170774+285443203+285230592
3966+284658230+284121515+284452267+285446913+286007731+286271485+286513455
3952+286443432+286098266+285862824+285523928+284533079+284331085+285997527
3939+287533457+287358950+285976533+284906092+285635009+287343386+287640124
3925+286828317+286911413+287042731+286136404+285760435+287564054+290151614
3912+290796147+289025512+285688901+281557902+279269381+280291943+282984109
3898+286153652+287913480+287035293+286254752+288079552+288377682+285710907
3885+284534041+284359448+284630812+287451323+288141759+285587423+283804574
3871+282851502+283458394+284867886+284516174+285559455+289248328+290907709
3858+287828426+280256485+274848447+280735753+289247160+293358505+292142968
3844+288273060+284825522+281865686+281087052+284502895+288340712+290308324
3831+291648033+292455425+292324072+290346908+285434373+283477807+287240138
3817+290481903+294290825+298437388+298691745+295283066+292146370+291007074
3804+288674059+287328612+290629886+294058458+296856448+299998538+301670392
3790+301935021+301592226+300926701+301396588+302063797+301603599+302818277
3777+305710237+306952987+305557857+303582274+304174994+306247846+308264247
3763+309634913+308901426+308682219+311266670+312836204+310615919+308524272
3750+313885548+322439800+333143936+352785387+373325177+386119413+391179193
3736+392216753+395861131+401945380+406118090+407030722+406924383+409266434
3723+414887564+422806423+432239017+441503769+447134176+449044271+455781333
3709+470695664+486220478+499440967+513006037+528252822+541873140+551643582
3696+557394553+557131195+551089619+545741846+546877087+551110578+552543983
3682+548711491+541090452+531178591+520238412+514858651+511030351+503640854
3669+501597757+503030337+499620937+493291196+486510121+477585828+468655418
3655+464269651+459033543+446971076+435466901+434172442+435962248+434079090
3642+429261023+424180868+419928756+415845824+410683828+403237090+393746327
3628+390042783+392805933+393017960+387996559+380600534+376686819+375992673
3615+373613068+369863208+366694215+364633285+364619645+364751204+362859559
3601+360214087+357645337+354629652+352258911+351440971+349943831+345682785
3588+342441501+343623092+345011453+344455806+343147466+341538970+339736726
3574+338331117+336781821+333061750+327664089+325484141+327154276+328463337
3561+328375208+328052100+327748748+326480677+324355428+322958477+321922051
3547+320443499+319702144+319985980+320026867+319380136+318742509+318541203
3534+317948620+316116794+313996355+312804662+311970917+311314016+311570468
3520+312111341+311975350+311463338+310956446+310104388+308936919+308168764
3507+307522583+306444995+306041007+306706670+307107772+306887465+306568686
3493+306255439+305762222+305165001+304706486+304188325+303430031+302740798
3480+302509943+302701698+302646587+302294103+302535266+303141007+303149253
3466+302563921+301845071+301312788+301113920+301133917+301067708+300835547
3453+300707630+300507423+299979332+299594791+299319888+298752594+298624917
3439+299258902+299905220+300347999+300527798+300292373+300013897+299896356
3426+299452890+298459515+297834327+298321909+299133802+299482988+299836194
3412+300420668+300681724+300566726+300322540+300092509+299986994+299680103
3399+299302571+299577577+300338791+300938039+301177381+301123300+301095264
3385+301331273+301600197+301521963+301137490+300909556+301053621+301522856
3372+302168144+302408208+301871218+301300522+301598582+302420817+302839030
3358+302549696+301928390+301717635+302183296+302623120+302535162+302223084
3345+301824937+301255134+300779302+300532470+300405825+300268528+299794930
3331+298964243+297930840+296720937+295977521+296036996+295904578+294860559
3318+293454881+292408319+291773717+291002264+289579063+288110183+287414972
3304+286716119+285336382+284188651+283957916+284256149+284542441+284922602
3291+285814172+286834329+287452440+288159900+289332197+290188447+290235415
3277+290169034+290458058+291162375+292422097+293431071+293440863+293217841
3264+293406813+293766067+294203073+294635029+295000535+295661491+296406522
3250+296526365+296285752+296302244+296280358+295844073+295492584+295745326
3237+296483417+297471844+298545858+299299410+299294325+298939539+299162045
3223+300015168+300887979+301444038+301682177+301916983+302312278+302585154
3210+302895309+303673084+305017947+306558344+307261733+307320417+308123789
3196+309445769+310392107+311062374+311532708+311735974+311986070+312452143
3183+312910555+313280425+313601541+313877062+314316611+315104934+316108651
3169+316923601+317363357+318001636+319062285+319720457+319971515+320578734
3156+321199525+321323490+321285181+321631515+322612933+323583562+323845134
3142+323688837+323352295+322964112+322858184+322636091+322068040+321855086
3129+321968538+321759535+321744555+322637121+323512681+323301650+322314117
3115+321287929+320759701+320793784+320874218+320552484+319946399+319352477
3102+318724093+318045305+317340852+316595168+316128613+316193722+316658319
3088+317213313+317619637+317826304+317957107+318261558+318789100+319422672
3075+319946090+320021404+319762546+319768181+320305721+320983100+321205744
3061+320767260+320296410+320610585+321280370+321198322+320392717+319836005
3047+319954851+320095584+319529011+318770409+318515983+318231701+317641867
3034+317185276+316833926+316353146+315674599+314898198+314072219+313160205
3020+312372535+311782839+311218465+310644196+310249725+310155308+310021687
3007+309642025+309500331+309750255+309931805+310164172+310752700+311728380
2993+313509460+316015401+318548315+320799282+322487318+323731167+325083863
2980+326254563+326787327+326911808+326526820+325335368+323773359+322512331
2966+321761081+321312702+321042918+320970765+320695004+319950007+319420335
2953+319683762+320168390+320071464+319599412+319426692+319422740+319041120
2939+318368791+317818608+317407885+316858939+316259210+315892638+315675836
2926+315681505+315930124+315924145+315353656+314356570+313514235+313224180
2912+313140346+313071113+313237477+313692419+314144440+314429891+314735579
2899+315008352+315109400+315252401+315597086+315990492+316438939+317036710
2885+317467326+317675710+317895811+317917011+317795209+318007717+318352265
2872+318186966+317716082+317656092+317886088+317834413+317627059+317595998
2858+317451005+316911129+316305250+315954896+315637320+315163584+314884386
2845+314953756+315044154+315066624+315261403+315760736+316371597+316816746
2831+317149131+317557208+317950613+318241836+318574187+318901624+319040948
2818+319090218+319122068+319092898+319297366+319989588+320884319+321567161
2804+322132600+323046538+324128524+324794152+325135779+325354506+325324545
2791+325181442+325183503+325408243+325805393+326155610+326323898+326385847
2777+326329774+326107852+325903487+325933035+325924995+325599620+325410270
2764+325662874+325944820+325907576+325636074+325468679+325687715+326078441
2750+326185605+326103042+326247382+326730498+327219214+327167504+326700984
2737+326452056+326453018+326489953+326638211+326871471+327148847+327443403
2723+327470238+327257180+327254225+327525658+327736242+327701849+327576234
2710+327660034+328025987+328423275+328580328+328434854+328187919+328072612
2696+328031244+328048939+328248734+328408776+328310270+328137034+328001730
2683+327906213+327919476+327847014+327475288+327027115+326698991+326318367
2669+325963718+325979832+326143104+325998763+325543134+325028168+324756426
2656+324826140+324930212+324646719+324139896+324096227+324428680+324332407
2642+323869804+323736149+323919623+324039329+324001947+323876332+323718866
2629+323470179+323276603+323417988+323716908+323849188+323924812+324088805
2615+324160924+324171231+324486883+325181339+325814086+326094280+326245801
2602+326445081+326800727+327470615+328227122+328672478+328799433+328880416
2588+329106152+329578891+330153744+330548043+330886784+331340764+331797767
2575+332238038+332523936+332392858+332115000+332161625+332440788+332617631
2561+332673979+332734863+332665768+332352727+332104074+332239962+332647455
2548+332958949+333027735+333030999+333111639+333228321+333303360+333373417
2534+333612552+334170535+334838260+335141440+335029843+334893405+334962225
2521+335215654+335528798+335800918+336039710+336258815+336430985+336523960
2507+336662047+337001372+337408933+337827592+338317167+338624367+338585542
2494+338543247+338948815+339749782+340479558+340891998+341136082+341550343
2480+342114751+342287746+341995595+341764878+341757284+341824421+341933372
2467+342071012+342178314+342173916+342124440+342141001+342141001+342141241
2453+342266787+342537602+342937742+343262602+343295208+343254046+343465695
2440+343913525+344397774+344734316+344788775+344627152+344565960+344748610
2426+344929404+345001420+345111299+345312399+345591563+345828156+345875261
2413+345829461+345895018+346122746+346412389+346709556+347001363+347256029
2399+347562748+348010818+348450539+348633464+348573096+348556741+348614326
2386+348343581+347307292+345235093+342209134+338555169+334420941+329974358
2372+325463594+321125173+317149509+313253145+309635635+307545191+307710559
2359+309661575+312869291+317493954+323820327+330385149+333661445+331854459
2345+327380390+324628956+324405557+325404772+327107445+328815307+330036135
2332+331139389+332868689+335229192+337512799+339520439+341862284+345021382
2318+348465450+351255091+353331688+355319847+357572703+359968045+362238184
2305+364236341+365972891+367625298+369206891+370448403+371481737+372759154
2291+374262857+375746356+377190619+378438900+379249556+379830250+380559888
2278+381418199+382117362+382673558+383455765+384547303+385653683+386577550
2264+387362746+388184363+389053085+389815192+390522463+391307556+392059803
2251+392641356+393216209+393934612+394678509+395358568+395893669+396281268
2237+396758405+397315735+397682238+397943329+398461868+399208995+399763577
2224+400079779+400507543+401127474+401699888+402012482+402158472+402425369
2210+402886495+403376380+403808061+404342027+404998585+405489500+405798659
2197+406281465+407078618+407868144+408467529+409229430+410256476+411099567
2183+411617213+412212681+413091230+413989706+414706769+415304849+415977280
2170+416959145+418124244+419096110+419985241+421110999+422263454+423130802
2156+423961214+425116761+426405139+427473587+428456104+429689268+431098038
2143+432305535+433330004+434550798+436040723+437560540+438917634+440188730
2129+441614129+443218227+444799271+446245320+447798877+449571057+451171616
2116+452613439+454319857+456311245+458435532+460468425+462199066+463887446
2102+465904466+468226898+470568228+472802119+475174303+477859906+480660610
2089+483446711+486358565+489336903+492269441+495449601+498975614+502707023
2075+506698045+510717757+514606321+518633008+522847223+527293393+532123245
2062+537228412+542584569+548029302+553149621+558197822+563580366+568998918
2048+574414274+580461347+587276093+594047823+600234701+606164439+612173065
2035+618367570+624905180+631612316+637940132+643829877+649716461+655866438
2021+662107397+667684273+672674923+678190434+683929139+688897387+693315830
2008+697729806+702204940+706745425+711400048+715592274+718961062+722055395
1994+724834453+727663674+731744578+736109216+738959396+740810154+742950555
1981+745290442+747319453+749123003+750461406+751151601+751820013+752566487
1967+753049637+753535055+754542723+756473193+758606722+759563265+759655071
1954+759892420+760321077+760517127+759990823+759128904+759186351+760891223
1940+763555386+765690840+766730599+767182826+768133459+770324985+772646594
1927+773555859+773812586+775664444+779340535+782877749+786156587+790137851
1913+793776011+796712569+800553925+805796630+811456722+816915954+821696261
1900+825554934+828945987+832244134+835402923+838526392+842770568+849003417
1886+855641354+861478325+866802940+871473575+875691844+879699496+882731983
1873+884392326+885112207+886580554+890476953+894699208+896767250+897006386
1859+896671115+896275854+895837095+895616307+895586415+894754182+891986531
1846+887419522+883784179+883552053+884407993+883629978+881317990+878782947
1832+875067480+869191273+864522562+862506814+861238158+860522813+859542495
1819+857698608+855811842+853429075+849932404+846700431+844889598+843441384
1805+841421444+838644241+835442710+833581095+833034862+831106797+827444930
1792+826105015+828798451+831042134+830882711+829897994+828954989+828486063
1778+828616832+827771474+824907894+821729452+821905299+825286800+829207524
1765+831191113+830426979+829738983+830561183+831956484+833771441+833582538
1751+830491504+828819616+830724592+833488602+835499265+836334865+836459724
1738+836578673+835337367+835098987+840302248+846475864+851362957+855043859
1724+856776355+856674516+854018325+849280416+848676599+855140063+862585152
1711+867121032+868704480+869100291+870074563+870027079+867227406+866940787
1697+871695875+879566803+889554975+896528664+898995815+898121802+893526413
1684+891808897+900662824+911251171+917422107+919110349+920201921+922642341
1670+925448199+930967765+937806631+941361368+943499982+949074865+955524793
1657+957217227+950845775+943434838+948373264+953847614+955727783+962809083
1643+974541090+982420539+982765224+977039507+972831064+978300329+985935558
1630+988826831+988425591+987334295+986045368+988268779+993608581+996303254
1616+998095809+1003657293+1008421382+1009491377+1009070003+1009505739
1605+1011165326+1014044436+1017784778+1020194894+1019022305+1016895166
1593+1018617149+1022678469+1025370187+1027100004+1028084514+1028408996
1582+1030054290+1031232858+1027688360+1024575680+1028393397+1030362899
1570+1027206653+1026890760+1031263987+1035555440+1035206082+1024893909
1558+1013711433+1019436257+1029921048+1039347801+1047554206+1053824163
1547+1055484369+1050062244+1040874489+1033984085+1038404315+1050005621
1535+1057261394+1060738206+1063170792+1062904307+1060118996+1057324683
1524+1053610934+1048392281+1048493707+1054929341+1061337625+1064850651
1512+1065000936+1060772633+1053984618+1054966036+1065348232+1070459824
1501+1067733884+1062332856+1060458390+1063162203+1065091299+1063640886
1489+1063898163+1069204362+1073741823+1072595553+1067193218+1062236927
1477+1058046144+1052491601+1046323826+1044173118+1047485077+1050300005
1466+1048250105+1044122336+1041587223+1035848587+1024710915+1019774895
1454+1023235902+1022804496+1016433800+1010206722+1007731944+1004963811
1443+999890976+993934987+985026911+972100188+963140025+958878876+952923781
1429+946725839+942535537+939472609+939015640+940770469+943950492+951838187
1416+961275111+966969287+970385215+973407326+975264337+977953239+984012234
1402+989526028+991832381+994278779+997649835+1001974479+1008396782+1012922698
1389+1012429172+1009441763+1009129100+1012608661+1016678020+1019888003
1377+1022803396+1025028801+1028408171+1033118937+1034738531+1033216721
1366+1031513292+1030608906+1032043514+1034483178+1034642464+1032413418
1354+1030245805+1030318920+1030218730+1027203698+1024180144+1023059024
1342+1020684160+1015837747+1011368454+1008501575+1005925027+1002204338
1331+997174450+993408064+994206557+998804214+1003507077+1007305348+1010000158
1317+1010919181+1012042706+1014223444+1016263587+1019236703+1022771649
1306+1024443056+1026190257+1029867380+1032850390+1033355873+1032996758
1294+1033947047+1036451580+1040707575+1045919632+1049281137+1050720486
1283+1052432367+1055861489+1060549646+1065164207+1069038410+1070694356
1271+1070321634+1070029243+1069889747+1069247929+1067805900+1065498379
1260+1063108466+1060572735+1057480877+1054986307+1054178950+1053069855
1248+1048203308+1042240242+1042019042+1046066549+1046271464+1041688375
1236+1038102440+1037948858+1038106426+1035652606+1031925320+1029007316
1225+1027327457+1026574799+1026457498+1027184113+1028357527+1028788727
1213+1027302788+1024607633+1023050091+1022352268+1021767829+1022936433
1202+1025780910+1028524166+1031271546+1033206895+1030828457+1025156202
1190+1021451868+1020857121+1021125874+1020963633+1020872720+1021766592
1178+1022093411+1019891371+1017718672+1017479743+1015458291+1010635105
1167+1007132455+1006541144+1006930152+1006101492+1003972155+1001553793
1155+998382085+995288234+994175222+993722033+992667706+991432035+989875385
1142+989051742+988843529+987124845+983009307+976828133+971518223+970384459
1128+971965159+972993992+972679543+970244620+965048024+959247474+954952585
1115+952181223+950880752+950581145+948698227+944650925+942468813+943343376
1101+942508188+938689577+937414668+939974313+941154529+938535994+934828705
1088+932737231+931824049+931691425+932634018+933013680+933108990+934780466
1074+936323578+935776589+935548792+937162545+938132281+938566024+941430978
1061+945517448+947170508+947950516+950686145+952074231+949723349+946660146
1047+944822306+944755101+946780675+949405945+951432413+952086875+951162835
1034+949925790+948403087+946511304+945685324+946536111+947773088+947750755
1020+946737727+945848115+945516418+945233441+944105037+943257686+943995914
1007+943869818+942341686+943449544+946244819+946415444+944195606+941576452
993+939828220+939666872+941776900+945690684+949843810+954571823+959688501
980+963470623+965680497+966976914+967175713+965505131+962100609+959120829
966+959204663+961960014+965127255+967126168+966393643+963500927+961543382
953+961443811+961995541+963223791+964162261+963679317+962916900+960958531
939+957280515+954310423+952603902+951570259+951199736+950031202+946700345
926+942934234+941016202+941038603+941074199+939623580+937529838+935022625
912+932411031+931071115+931572407+932891844+932092939+929415788+927753040
899+926858206+926029889+927079269+929723710+929541884+927530190+928433477
885+930130584+930543574+931875174+933097515+931567871+928784553+928118478
872+931311625+937586049+943730047+947798032+950271368+951812762+952800502
858+954155260+958442728+967836153+980899485+992288594+999003150+1004971370
845+1014406713+1025139435+1030970908+1033071178+1037970572+1043180293
833+1044209950+1045684345+1048418256+1047166230+1045930077+1048060995
822+1046788423+1042012445+1041808011+1047689510+1054256600+1059225261
810+1061656198+1059724422+1055468633+1051163986+1046941937+1043566345
799+1042231103+1042097792+1041593202+1039583913+1033831259+1026280346
787+1020945698+1016682762+1011672115+1008038147+1008238045+1010067914
775+1008687936+1002221173+993471559+987153706+983527228+981073271+980632176
762+978826771+973576782+970687296+973108337+977578455+979231721+977514961
748+974959027+969240182+962374035+961742662+965689636+967267382+964360784
735+959663144+955668343+950480887+942852598+937054659+936619130+938909541
721+938286826+934647704+933203339+934209701+936438954+942431912+949541180
708+951260826+949973617+952592770+957012587+956971219+954945713+958625928
694+970572744+983409241+986095875+978355715+969570299+965626829+964461180
681+962783108+962046804+964636340+969343051+972141350+969140679+961548124
667+959222461+964571746+970844246+976519593+977913726+977048097+977400341
654+974827640+975937009+989184091+1004761577+1013552147+1019855844+1024242264
640+1019194648+1002578434+982888984+968033028+963572668+979548026+1009891242
627+1022380717+1009835031+988428821+965183328+957217570+969360230+979184718
613+975191016+968223924+960168902+946549099+941569375+959421741+988225006
600+1007737510
##END=
