##TITLE=Sample description
##JCAMP-DX=4.24
##DATA TYPE=INFRARED SPECTRUM
##DATE=13/9/2023
##SAMPLING PROCEDURE=Instrument type and / or accessory
##ORIGIN=Default
##XUNITS=1/CM
##YUNITS=ABSORBANCE
##RESOLUTION=4
##FIRSTX=4397.6552
##LASTX=599.8556
##DELTAX=-1.9287962
##MAXY=1.7256621
##MINY=0.33079603
##XFACTOR=1
##YFACTOR=1.6071481e-009
##NPOINTS=1970
##FIRSTY=0.37028596
##XYDATA=(X++(Y..Y))
4398+230399403+229781381+229618958+230688293+231617736+231398847+231021207
4384+231100314+231517230+231611913+231136010+230830375+230962739+231148434
4371+230875194+230710175+231494977+231985103+231366693+231533029+233456372
4357+234401632+232401037+230254484+230153607+230842094+231546584+231688869
4344+230603642+229730553+229924389+229620237+228529799+228570076+229792211
4330+230219956+229570559+228793582+227744755+226361736+226016046+226770215
4317+226642523+226126993+226793097+227095414+226182234+225694556+226385843
4303+227831298+228789780+228517968+227999860+228128404+229199186+230241745
4290+229789095+228847154+228761186+229261678+229887228+229777598+228785460
4276+228034147+227520934+226920399+227004346+227785588+228165862+227573598
4263+226984671+227797586+229316011+229330271+227818911+226944172+227091687
4249+227119558+227162727+227598391+227616026+226561117+225475945+225686434
4236+226645082+227227111+227413975+227064057+226366928+226695966+227877416
4222+228878938+229766843+229972492+229319553+228479527+227659659+227620699
4209+228426103+228950349+228929265+228181735+226815053+226137581+226398304
4195+226838010+227505228+228457609+228957192+228394078+227236178+226343100
4182+226138378+226325354+226269686+226062869+225756028+225041895+224470641
4168+224918710+225721611+225343878+224317415+224214943+225099436+225967406
4155+225748369+224675918+224275043+225314783+226772254+227095618+226247229
4141+225597943+226056379+226532245+225646917+224448425+224241219+224271575
4128+223827659+223797304+224598480+224969204+224459106+224060178+224194248
4114+224604748+224927889+224628817+223624663+222958669+223500161+224343524
4101+224447591+224310183+224570943+225038965+225548914+226103127+226116163
4087+225277955+224446163+224033512+223638070+223353017+223237991+223048123
4074+222933691+223037238+223469823+224182528+224453877+224146869+223917411
4060+223837506+223572333+223257462+223553437+224617302+225495045+225298631
4047+224546706+224263397+224145478+223678550+223299148+223124671+223086824
4033+223447497+223982146+224282627+224322273+224287726+224704809+225244335
4020+224694925+223713857+223807836+224577007+225047884+225164598+225440063
4006+226331937+227276993+227208363+226247674+225366093+225028822+224969946
3993+224896198+224946970+225297852+226050352+226836082+226945544+226660344
3979+226765004+227120652+227002214+226387085+226099251+226416291+226834431
3966+226990439+226883553+227019441+227535713+227551271+226711413+225617136
3952+224650884+224304286+225448964+226728288+226638499+227601933+229931418
3939+230079451+228072310+226162633+225116403+225606418+226863545+226395523
3925+224856348+224851471+225121039+224246077+224497733+227123841+229590846
3912+230075056+228973362+226026004+221061473+216890904+216251854+219046005
3898+224081058+227499090+226084991+223040539+224018028+225547894+224104237
3885+223237843+222831237+222881528+226069786+226851547+223082911+219408699
3871+217430597+218546570+220859885+221632356+224194823+228384510+229402609
3858+224568217+213183314+205827974+215548922+226884610+230845395+229012841
3844+225312390+221754818+218063491+217071649+220337512+223651773+225675697
3831+227440714+228422487+228419261+225962974+219208855+216002777+220142767
3817+223314057+227381523+233464828+235849943+232434823+227234732+224819909
3804+221649861+219927142+224800865+229794102+233363932+237104993+239128119
3790+239633878+239555716+239005898+239253975+239168266+237592282+238308918
3777+241821003+243587338+241668167+239008105+239731028+242721407+246320146
3763+248484574+246509680+244979147+248265037+250664246+248333370+249762062
3750+265103077+284112388+305779276+337594895+363085827+373116398+371095924
3736+362547580+359557275+366393117+374553639+377682205+377877988+379170441
3723+382085866+386992505+393850932+400462915+405179036+410847446+425285758
3709+449454271+477629279+507496466+539583470+570845433+592215938+599782954
3696+595413487+581696521+561254531+540633780+530400676+527793964+522012884
3682+510521707+495945913+479174222+463383265+457785135+455246738+448218043
3669+446210253+448703552+447308442+441953197+435032315+426452336+416892736
3655+409947043+402090116+388319745+377535859+380465415+388104565+391525601
3642+390725333+388966249+386896189+383440811+378677700+371794239+362664999
3628+360162316+364495549+364500333+356506222+345090035+339047193+337483559
3615+334432171+331671214+331094434+331481550+333488562+335731411+335138720
3601+332750155+330894459+328634809+325944429+324154303+321234390+315244879
3588+310339909+310372898+311367262+310448890+308470361+306513158+304764366
3574+303251449+300927990+295672862+288772971+286617314+289567824+291632358
3561+291657096+291425393+290517795+288073469+285385592+283692079+281930306
3547+279927597+279731387+281234828+281565776+279851345+278028397+277317510
3534+277030399+275919841+273844255+272199103+271491553+271051495+270894449
3520+270994492+270995790+270924008+270359003+268798948+267104043+266495238
3507+266428611+265815411+265425402+265782403+265666728+265082252+265078321
3493+265151401+264185632+262715124+262129368+262257375+262103778+262011802
3480+262009150+261031846+259696076+259490836+260137692+260501499+260431312
3466+260238236+259636032+258980775+259050481+259199386+258858480+258616115
3453+258478355+257626573+256206559+255559276+255998203+256700023+257424206
3439+257875242+257671430+257247782+257047604+256972744+256787530+256484249
3426+256145439+255786620+255632764+255693958+255665586+255520000+255468783
3412+255674228+255809614+255559962+255548020+256308437+257151560+257144402
3399+256663659+256688934+257037368+257258649+257540586+257699801+257441526
3385+257132812+257358896+258038779+258556201+258823043+259054634+259166100
3372+259358638+259729529+259666091+259183624+259137710+259688084+260146612
3358+260066856+259989974+260566717+261201279+260834023+259807802+259364591
3345+259607883+259807635+259713952+259504743+259368170+259125823+258400657
3331+257358784+256633785+256265361+255553342+254389526+253537132+253092642
3318+252464960+251725162+250856877+249436789+247699438+246295186+245622740
3304+244989271+243383024+241405423+240231761+239980198+240132107+240406089
3291+240966755+241750593+242260413+242501220+242936068+243231560+242887817
3277+242362013+242030861+241997947+242478337+242951607+242782582+242389736
3264+242390070+242669429+243128773+244014156+244944396+245263810+245231117
3250+245585708+246352857+246660088+246078133+245464581+245518895+245758701
3237+245891010+246490877+247451603+247926375+247940857+248179569+248807641
3223+249300957+249371181+249561439+250254970+251280783+252338715+253247593
3210+254220427+255185770+255830791+256531332+257499605+258115364+258380723
3196+259191950+260784382+262591290+264036022+264974755+265623114+266249109
3183+266911839+267341235+267776101+268561107+269288109+269624379+269764921
3169+270440168+271963025+273396946+273994551+274302505+275073956+276098119
3156+276762870+277349423+278652575+279906698+279598002+278315638+278005830
3142+279079338+279961735+279870946+279411454+279062574+279048759+278749595
3129+277895273+277721037+278748260+279442978+278463894+277053337+277178210
3115+278523901+278838401+277186425+275309237+274955777+275160573+273794391
3102+271658650+270865373+271221447+271238878+270176886+268917997+268946666
3088+270671203+272196136+271647524+270457302+270450293+271200975+271344744
3075+270655181+270334655+271122610+272510599+273153413+272809818+272723090
3061+273181173+273283274+272495412+271466779+270959482+270970089+271003541
3047+270472823+269658889+269130211+268742464+268274961+267706377+266888159
3034+265658068+264204398+263009392+262079097+260883257+259609626+259782693
3020+263114034+268258976+270400800+267637450+263202005+259837620+257447349
3007+255450091+254241734+254007547+254182969+254344688+254551579+255272462
2993+257108131+260279644+263950759+266574846+267697290+268200193+268835923
2980+269681883+270267342+270158899+269477347+268571288+267611619+266264092
2966+264588177+263551144+263465862+263816188+263757089+262719537+261628023
2953+261335832+261655394+262475133+263158984+263015808+262438453+262042788
2939+262051578+261828369+260716716+259451746+258875485+259140028+259701621
2926+259408372+258324406+257523266+257354297+257510323+257325017+256416027
2912+255411094+255232000+256047065+256985873+257317358+257519020+258043563
2899+258690994+259116737+258956446+258691124+259032864+259744475+260521471
2885+261145556+261319903+261247842+261331622+261736893+262339412+262737098
2872+262708875+262534212+262403591+262114534+261532839+260827663+260373697
2858+260155457+259788794+259348421+258951421+258308792+257558481+257414879
2845+258023851+258679924+259018567+259325167+259748277+260267535+260987138
2831+261809065+262457108+262898557+263197851+263427180+263664000+263806786
2818+263814945+263832617+263926652+264043124+264247141+264698752+265303292
2804+265835141+266351655+267040494+267754182+268191181+268477958+268937431
2791+269378064+269378899+269111556+269021081+269049676+268899306+268663375
2777+268606780+268708826+268815118+268708121+268309007+267923207+267733951
2764+267697791+267800152+267954935+268062915+268071037+268066716+268270343
2750+268619241+268801210+268848255+268922541+268799838+268499116+268409828
2737+268466887+268363562+268157042+268007543+267792938+267553244+267651302
2723+267942103+267966099+267829543+267822144+267800745+267605945+267468796
2710+267530917+267610154+267562868+267426535+267338175+267374038+267407305
2696+267217586+266830210+266519920+266374668+266221460+265930641+265505158
2683+265089410+264885227+264715998+264278053+263813554+263567536+263338356
2669+263064022+262793081+262331586+261720723+261340264+261236753+261094691
2656+260779728+260442030+260221046+260216132+260454825+260631879+260485441
2642+260235918+260123581+260065391+260073698+260295072+260538846+260534748
2629+260403904+260454454+260762278+261075999+261248844+261435541+261655301
2615+261742679+261846690+262300934+262964331+263438454+263741939+264088278
2602+264526259+265118802+265862234+266551407+266972217+267133231+267343757
2588+267759245+268156634+268426073+268641994+268864889+269217124+269686723
2575+269996772+270011403+269946444+269945184+269887142+269849925+270013313
2561+270151370+270048787+269898046+269888477+270009919+270206834+270391751
2548+270538597+270706158+270822463+270877445+271041463+271241586+271294546
2534+271434866+271891354+272234132+272088157+271804811+271793684+272060842
2521+272381628+272605245+272810634+273013576+273164391+273394072+273709999
2507+273908323+274069152+274394537+274743842+274970000+275176836+275436576
2494+275741155+276048515+276247766+276437022+276808228+277218042+277597221
2480+278039913+278313598+278255000+278036946+277816815+277708539+277661586
2467+277518745+277387104+277447445+277693556+277856127+277681484+277523807
2453+277689828+277853902+277946212+278183366+278506340+278905621+279320145
2440+279524496+279632883+279744905+279714772+279620162+279545376+279489708
2426+279552070+279736505+279933512+280089723+280241855+280387626+280535623
2413+280746334+280952465+281062280+281171316+281367619+281534344+281699049
2399+282079397+282813037+284379546+288084911+295932639+309979143+331449284
2386+359967312+393496564+429414195+465892548+502630475+540623173+580798788
2372+622743871+665047624+704765656+737543336+761224190+776732727+783703195
2359+778650878+758171541+726227063+690604571+657430948+638635519+644612346
2345+669915988+685627096+678083408+664318563+654492899+650692647+653820063
2332+659710922+660825244+656578610+651790354+647674563+641205441+629749942
2318+612758101+594690991+585766249+588392543+590053383+578787214+555420341
2305+529346991+510249450+498880476+489044130+477349011+463426323+447010929
2291+429955632+414859875+401945995+390583178+381122155+373937435+368630959
2278+364288751+360299613+356664436+353545549+351042274+349012861+347168069
2264+345388180+343670782+342068169+340761401+339828695+339009438+338067164
2251+337134012+336402467+335799577+335242564+334808607+334438847+334005557
2237+333585915+333227875+332940820+332932365+333159264+333345442+333491788
2224+333596374+333678671+333928490+334274810+334496258+334640676+334919831
2210+335395623+335987313+336609859+337186973+337746545+338376730+339078050
2197+339917519+340874443+341682573+342410076+343357729+344369171+345191766
2183+346002344+346965350+347909739+348722913+349482052+350290775+351133063
2170+351962964+352893556+353878963+354823241+355762771+356539341+357118457
2156+357782764+358616558+359414008+360109393+360903615+361919138+363046811
2143+364309075+365865254+367582615+369279132+370924840+372487436+374113117
2129+375919969+377737836+379467658+381214020+383054102+384961349+386850164
2116+388769539+390860553+393063014+395280385+397505654+399727846+401973292
2102+404313346+406876703+409796914+413067932+416513223+420113761+424023754
2089+428192023+432540685+437155150+442093127+447370712+453045797+458984239
2075+465037132+471486598+478517110+485831451+493072284+500473742+508610900
2062+517269911+525911714+534422599+542807017+551086366+559234502+567222791
2048+575105938+582893103+590341402+597335049+604222108+611063401+617621607
2035+623972941+630080834+635768158+641251948+646593619+651670859+656781922
2021+661883417+666380093+670129685+673761710+677844789+682190966+686297114
2008+690088391+693847774+697199716+699569515+701586466+704093191+706548587
1994+708116189+709537520+711541119+713435608+714989118+716304156+717473516
1981+718934604+720381228+721396156+721902693+721773704+721551329+721654506
1967+722002161+722772834+723883744+724969138+725590423+725552965+725689521
1954+726713721+727897471+728301870+728162867+727986777+727753869+728258478
1940+730522430+733675139+736233193+738029178+740189064+743237707+746385669
1927+748985409+751184755+753862748+757316681+761068127+766010072+772525628
1913+778828822+784063460+789332441+795057520+800392145+805838476+811866558
1900+817104459+821116999+825645496+831701986+837375143+841796978+847297902
1886+853857369+859065007+862624341+865471378+868115845+870550472+871969058
1873+871578011+869169270+866668034+868151004+872846393+876361074+876678763
1859+874965186+873804801+873034796+870444996+866127599+861411367+856095805
1846+848991971+843436084+843740941+844950578+842653989+838606587+834540642
1832+828669513+820956782+815901721+813537188+811380493+810127241+808583746
1819+805298709+801768525+799358746+796834368+793456539+791097347+790151104
1805+788568889+784894807+780399837+778480054+779088952+777842599+773114499
1792+770643081+774348761+777992283+777694918+775759485+774421452+774309004
1778+775356569+774923984+770484644+765423130+766878655+772604549+776586529
1765+776777009+774821252+775393508+778019357+779120995+779481928+778248482
1751+773952670+771046738+773342882+777446211+779796205+780201049+781343558
1738+783298796+781074898+777511040+782559722+791463027+798324384+802105500
1724+803369580+803425730+800440877+794033913+792781626+800985095+810848959
1711+817512567+819371971+817781523+817412357+817509451+814105884+813045189
1697+818915057+829798448+842886303+851421777+854717273+853951496+848005526
1684+845918999+857157018+869562765+875363725+875971881+877805399+881664472
1670+885034068+892113275+900775365+904573911+907307017+914663414+921132017
1657+919857478+910097088+904838417+914330371+920041431+922000748+931945759
1643+944974942+951863224+950540769+942309187+937672099+946421121+956078854
1630+958640171+957650239+956965016+957434392+961440330+964593411+961439736
1616+960647034+969099210+975835880+976633552+976751415+979200581+982014684
1603+983966807+986088641+988302525+989717550+991425565+993443406+994485779
1589+995451604+996742017+997906259+999408959+1000613032+999270846+994673589
1576+992958157+997361151+998286032+994544822+995937224+1002208153+1006319048
1562+1003669909+989746330+981642106+998855246+1016296770+1024197162+1026605235
1549+1029115817+1030683271+1027053397+1019038034+1011280205+1018510506
1537+1036755486+1046916790+1050764810+1056996723+1059906215+1055010036
1526+1048980100+1045230211+1043680411+1046233717+1049923821+1056141789
1514+1064622596+1066486155+1057047830+1041374402+1038980942+1056357340
1503+1069100432+1069530570+1062575382+1059463765+1063974386+1065722826
1491+1059830483+1055600761+1061896093+1071020512+1073741823+1070737314
1479+1066669143+1061761540+1055449742+1049329239+1048563239+1054386748
1468+1057554738+1053641146+1048941677+1045109826+1034086913+1017056242
1456+1012902474+1020474719+1022115086+1017156896+1010340044+1005605861
1445+1002851245+997789805+988777686+976099645+962153072+954918247+952007716
1431+946995528+942307852+938213498+933035974+931253118+933684556+937481916
1418+944925913+954048032+960998028+966871827+971619435+972914224+972748147
1404+976767214+983135831+986460106+989395114+995450344+1002555586+1008913002
1391+1013868744+1015566077+1013215119+1010796291+1011588548+1014190439
1379+1016468409+1018350289+1021222471+1025806451+1029341381+1030407639
1368+1031457726+1030958458+1027668155+1027189581+1029908000+1031059113
1356+1030867891+1030985309+1030466311+1027544506+1023318789+1020712373
1344+1019389621+1015312549+1007815146+1002476813+1001755392+1002456786
1333+1002306508+1001315538+1000816641+1001516477+1002927868+1004798398
1321+1007186889+1009851754+1012911894+1016738553+1019836596+1020777499
1310+1021449222+1024169940+1028098144+1030359945+1030332352+1030374705
1298+1031749751+1032774174+1032098222+1031806049+1034242160+1038966774
1287+1044811126+1050759470+1055858813+1059541203+1061333109+1062208886
1275+1063248070+1063088966+1061099534+1057842386+1053011035+1047688129
1263+1043118762+1038781561+1034658279+1031521961+1029775079+1028567445
1252+1026526536+1024314580+1023877619+1024334014+1023011781+1019869010
1240+1015750994+1011901119+1010691408+1011280502+1010616715+1008693149
1229+1008012302+1009255836+1009950999+1008604882+1007055749+1007142384
1217+1008343639+1009435858+1010224332+1010685400+1010747039+1011072368
1205+1011597894+1010821436+1009197164+1009200651+1009905530+1008631139
1194+1007129181+1007213295+1006380761+1003686672+1001552674+1000880728
1182+1000298681+999398500+998407900+996368178+994407896+994427923+993950611
1169+990901523+987955685+986863244+986425467+985611328+983725963+981339623
1155+979502842+976983136+973528240+970717919+969154915+968802439+967940606
1142+964958571+961967265+960886544+960542226+959709247+957722485+953869049
1128+948963524+945099258+943524164+942518062+939133557+934373191+931410961
1115+930365992+929962483+929743075+928356755+924341471+919152450+915652085
1101+913686314+911823275+910522107+908830708+906379317+906631955+909767382
1088+911203918+909302754+907074480+907447132+909428183+910314938+910732317
1074+912121530+914000814+916259944+917705678+917297719+917558961+920516740
1061+924133337+925238610+924194234+923796289+925627210+928482926+928988128
1047+927353397+926992094+928652043+931258978+934001726+936140916+936461572
1034+935300446+933985333+932029279+929888086+928097441+926405671+925966039
1020+926018703+924231173+921258336+919514866+919255108+918807168+917398744
1007+916368610+917191946+917732752+915396999+912546550+912168483+913303277
993+914763698+917677195+921231485+923715809+927216991+932561036+936929984
980+939524086+941291885+942284487+942176860+940543910+938307625+936970780
966+936193580+935353406+934172030+932324048+930874828+930586364+930370442
953+929327031+927933219+927658477+928837479+929089153+926609650+922956782
939+920725838+920232652+919493356+917110651+913685943+911245679+910559639
926+909125551+905094319+900652384+898596491+898064215+896770762+894492271
912+890965797+886723242+884642649+884922138+884025073+880296028+875707894
899+872535751+871550195+872132242+872210718+870619306+870055061+872838827
885+876741441+879002945+879353938+879520386+881445657+884404178+887060142
872+889390628+891238017+893415259+897670126+904413991+912157282+918726837
858+923658992+929410773+938804594+951666959+965983217+979982453+990688197
845+996564073+1002143176+1011504731+1021486606+1027869983+1031647761+1035196859
831+1039168751+1043005275+1045789116+1045479067+1041105001+1037635863
820+1037862317+1038665181+1039405294+1040037482+1039629523+1039349959
808+1040481194+1041951405+1041479211+1039982816+1038548282+1034772655
797+1027516320+1020193375+1016780239+1015897637+1014098611+1010733984
785+1005547338+998894633+993189655+988650700+982058373+973227759+965356814
772+958635869+952312796+948425166+947414984+946647872+944403280+941079227
758+938737318+938141475+937346399+935790664+934213419+931990634+929323915
745+928840150+932089286+935941313+936274430+934501735+933412781+930668549
731+925277255+920749796+917982571+915817865+914255306+912628290+910664596
718+908571320+905380558+904106612+909072368+916546851+922347143+927720635
704+931560052+932798097+933874146+934880544+934998556+937290842+943849716
691+952239066+958521418+959727271+956856202+952578118+947409940+943802764
677+944213096+946952210+951981236+958957267+961231826+955184384+952321622
664+953494914+950594026+944337487+941935200+942678353+943527428+946087336
650+951777479+959237794+963287421+960697028+953263415+942835084+933586126
637+932274129+941160003+953775590+957321350+948563056+940884445+938449076
623+932121923+927766104+935370466+947647669+958092022+967012090+967470637
609+958229245+951524099+952515514+958079412+971613649+984990414
##END=
