##TITLE=Sample description
##JCAMP-DX=4.24
##DATA TYPE=INFRARED SPECTRUM
##DATE=13/9/2023
##SAMPLING PROCEDURE=Instrument type and / or accessory
##ORIGIN=Default
##XUNITS=1/CM
##YUNITS=ABSORBANCE
##RESOLUTION=4
##FIRSTX=4397.6552
##LASTX=599.8556
##DELTAX=-1.9287962
##MAXY=1.7393309
##MINY=0.36078471
##XFACTOR=1
##YFACTOR=1.6198781e-009
##NPOINTS=1970
##FIRSTY=0.37234581
##XYDATA=(X++(Y..Y))
4398+229860383+229355159+229253676+230180763+231219508+231828128+232006238
4384+231455405+230689888+230388163+230672392+231328736+231589673+231774719
4371+233055708+234279388+233396345+231730362+231254776+230818820+229747641
4357+229262213+229698040+230535585+230927957+230410829+229480099+228359281
4344+227382225+227439700+228192173+228377716+228103275+228376833+228899535
4330+228998644+229506996+230183670+229577092+228790436+228687996+227982640
4317+227038498+226975374+227551099+228287916+228738333+228563792+227918174
4303+227381269+227612107+228307878+228431511+228106127+228186654+228597644
4290+228551834+227555883+226545490+226611299+227126035+227512832+227801586
4276+227497856+226629439+226022787+226132347+227008380+228435872+229202640
4263+228498811+227666712+227983192+229001202+229369859+228369216+227474454
4249+228145719+229053470+228722584+228154329+227762785+226655435+226140184
4236+227344896+228621801+228683452+228088501+227894054+227953332+227795147
4222+227823351+227736016+227460159+227889712+228533105+228188218+227701447
4209+228221040+228602465+227935063+226991197+226731179+227543464+228407833
4195+228114700+227442570+227711198+227956901+226656502+225230501+225207338
4182+225077376+223829999+222773428+222723367+223546764+224835076+225537304
4168+225662171+226133101+226112772+225078480+224620207+224948848+224966197
4155+224960954+224804848+223906737+223495986+224136784+224677700+225302124
4141+226414993+226645832+225419024+224026618+223431851+223647492+224204084
4128+224176487+223747430+224191739+225160056+225519900+225244189+224515633
4114+223834397+224024079+224659744+224457202+223509416+223223808+223860779
4101+224335076+224504006+225073273+225781610+226252485+226820004+226928533
4087+225771896+224589997+224787278+225324238+225126314+225133692+225829426
4074+226052298+225415713+224922668+224685556+224104441+223545936+223532837
4060+223908853+224335058+224481800+224098185+223434795+223088344+223348288
4047+224146590+224963622+225403478+225784977+225677551+224533755+223719557
4033+224080487+224368653+224388596+224851597+225027757+224794361+225102415
4020+225483417+225048289+224381200+224615810+225781886+226902464+227333342
4006+227107913+226633928+226398951+226373948+226058921+225303633+224586741
3993+224605249+225617905+226959589+227677898+227636833+227185037+226242440
3979+225089316+224838332+225622523+226460583+227030384+227431164+227674568
3966+227848519+228030309+228528156+229129361+229092786+228293288+227282895
3952+226891480+227140495+227452487+227688991+227839008+228068337+228286591
3939+228234746+227869309+227249944+227186490+228345189+229567948+229332548
3925+228480303+228651844+228958077+228720413+228908348+229769442+230656919
3912+231181203+231113738+229811831+227234417+225072095+224772210+226316657
3898+228933038+230236527+228752131+226876854+227881930+229391881+229112325
3885+228642370+228030401+227793712+229747604+230764234+229464626+228099264
3871+227216883+227648314+228634679+228799708+230573540+233620155+234254256
3858+231701311+226702074+223415587+227520559+232948154+235330275+234370108
3844+231672758+229063184+226574466+225250389+226697971+229018146+231056558
3831+233240533+234443662+234129464+232876550+230309438+229087672+230954633
3817+232546823+234008332+235840264+236645944+235602747+233732033+232854509
3804+231243683+229990548+232118833+234549138+236457844+238433758+239588556
3790+240268155+240288227+239506060+239602115+240458076+241131531+242847869
3777+245020364+245193911+243113571+241336630+242441055+245075098+247398548
3763+248444706+247575462+247546375+250322192+252711138+253030157+256369078
3750+268318372+282562304+300338225+325758115+344389832+351112674+348984592
3736+341399477+335701764+334786138+336417957+338555128+341335710+346031180
3723+353055932+362119132+371636024+379983473+387097859+394319101+404167633
3709+418260040+435498007+454353405+474820126+494096467+506084599+509983993
3696+508964898+504151313+494500632+483038496+477258287+476214428+473370263
3682+467651687+460977525+452758530+442959267+437697878+435446383+429970659
3669+424993370+423092427+420562719+416111389+410230617+403204761+395828058
3655+390368156+384823109+375747030+367322531+365759484+366741011+365584520
3642+362042155+357512303+353016340+348453997+343388729+337585486+330816538
3628+327560371+328319431+327298202+323077360+317651605+314616138+313452804
3615+311233578+308543569+305863237+303166347+302102766+301724174+299370368
3601+295618047+292806464+291089317+289769250+288814419+287276963+283931272
3588+280734162+280096161+280031198+279334360+278426277+276993542+274986131
3574+273257798+271897348+269783119+266747745+264926502+264792234+264612211
3561+264188085+263697928+262769884+261197712+259476921+258541315+257845710
3547+256560360+255475695+255298763+255297843+254605475+253587006+252986996
3534+252552787+251617347+250150282+248732192+247804184+247329188+247047847
3520+246855553+246783764+246664178+245993594+244748407+244098870+244678881
3507+245083451+244182286+243135483+242926870+242758327+242441092+242352304
3493+242190623+241727880+241011577+240242637+239824950+239777079+239595032
3480+239110616+238776290+238600995+238223985+238027643+238302526+238527771
3466+238414937+238146291+238093581+238285894+238160384+237830822+237833067
3453+237974308+237902666+237505695+236978191+236708405+236861217+237434551
3439+237993625+238109477+237956627+237671221+237178912+236737326+236797119
3426+237097998+237070217+237025584+237370066+237847951+238128003+238254194
3412+238584565+238890007+238649013+238334207+238782913+239916057+240717983
3399+240664832+240399663+240261072+240075161+240037427+240404171+241040719
3385+241362185+241302263+241634989+242450493+243086066+243400229+243756430
3372+244186646+244345272+244183463+244109614+244494258+245127127+245436248
3358+245412349+245634633+246330680+247003324+247104034+246694111+246141770
3345+245630401+245274494+245121037+244971205+244908947+245066157+244849209
3331+244118114+243542168+243320768+243130884+242553687+241649744+240970053
3318+240505929+239536839+237610986+235356657+233848822+233339569+233091161
3304+232298470+230920064+229654069+229245305+229582869+229859132+229703191
3291+229602923+229912890+230219730+230403967+230863288+231578414+232154488
3277+232344888+232237094+232296575+232873477+233637651+234331086+235052136
3264+235549909+235672273+235642156+235462647+235080983+234929514+235429090
3250+236156836+236469177+236554746+236772264+236946896+237173098+237729064
3237+238550860+239459550+240040684+240004642+239708970+239805743+240537978
3223+241634455+242635649+242971908+242763533+242976433+244001379+245292450
3210+246316016+246990501+247532503+248298866+249296841+250235924+251176239
3196+252166174+253067468+254026292+255083875+255886299+256303820+256643482
3183+257133786+257903866+259025161+260186950+261172635+261958924+262426561
3169+263020702+264019155+264759541+265199968+265914468+266742538+267534953
3156+268675272+270029632+270889751+271002457+270926657+271132051+271320464
3142+271480526+272067234+272859023+273334664+273315162+273105592+273176369
3129+273269756+272976623+272502141+272321437+272544181+272601711+272205292
3115+271559802+270668186+269763488+269143995+268509489+267729842+267146739
3102+266558541+265681992+264890644+264419438+264334164+264590649+264962286
3088+265489716+266067226+266438035+266582385+266574308+266674742+267156454
3075+267953560+268537527+268475214+268197626+268297269+268784004+269424452
3061+269797488+269702904+269533662+269343538+268983621+268789928+268710614
3047+268362195+267848987+267262260+266455844+265523384+264647535+263794002
3034+263007621+262391771+261534926+260232982+259089793+258141511+257190157
3020+256742297+256544042+255930914+255173528+254536723+253774664+252754465
3007+251876058+251605278+251692226+251684849+251747457+252270840+253322187
2993+255069764+257848212+261245914+264069731+265602550+266268370+266761911
2980+267256869+267681879+267997531+267931354+267052524+265677742+264619809
2966+263699934+262449467+261381010+260932819+260854830+260849201+260723506
2953+260315588+259835809+259866975+260328283+260487093+260220747+259825451
2939+259283541+258683126+258209086+257643168+256851654+256095170+255746512
2926+255944602+256165616+255935053+255430749+254976929+254720775+254471557
2912+254185397+254260313+254707069+255150733+255627441+256203736+256474958
2899+256437150+256604350+257026968+257408760+257791050+258364309+258954164
2885+259321661+259602781+260017120+260488492+260721740+260628684+260363276
2872+259991786+259610692+259433833+259472966+259499679+259319601+259023947
2858+258821276+258594651+258254897+257919357+257431813+256793388+256444399
2845+256592060+256955565+257271935+257701728+258276607+258703603+259144766
2831+260020008+261136649+261857570+261986410+261904245+261829311+261819026
2818+262134881+262732242+263215002+263494356+263799337+264242174+264738273
2804+265318487+266086838+266875941+267481710+268014991+268592960+269066613
2791+269298555+269321994+269208075+269087311+269073457+268959979+268639580
2777+268529708+268657242+268625119+268559237+268551013+268351488+268072558
2764+268009674+268147271+268268035+268304205+268404621+268570367+268588453
2750+268579401+268851229+269247612+269489949+269496572+269251770+268946880
2737+268758191+268652735+268647510+268723051+268670525+268422228+268177297
2723+268175954+268478470+268727393+268544371+268181399+268202410+268634263
2710+268917259+268796882+268567957+268514861+268661602+268715269+268450818
2696+268151595+268074250+268094929+268049615+267849005+267658642+267638331
2683+267510521+267147751+266721730+266338373+266047466+265746734+265360876
2669+264962488+264621612+264414231+264286826+263990786+263508044+263183027
2656+263069917+262967808+262880805+262763518+262598361+262499619+262508634
2642+262637033+262757355+262773453+262765285+262624835+262320277+262169101
2629+262253695+262320700+262280997+262241773+262329972+262643564+263123767
2615+263564194+263856739+264119405+264527139+265113737+265691835+266016466
2602+266220259+266600230+267160096+267860154+268602398+269189806+269644509
2588+270064901+270450925+270687319+270693078+270755263+271200786+271851924
2575+272380752+272732244+272869713+272847893+272903178+272935338+272700747
2561+272467185+272538937+272695430+272711141+272660658+272668808+272811999
2548+273051300+273230109+273262673+273307840+273526407+273770086+273880198
2534+274028577+274343052+274572749+274607245+274668069+274791445+274836483
2521+274826621+274873904+275043956+275394766+275746442+275857602+275892907
2507+276015805+276272787+276713968+277134323+277421771+277647108+277821778
2494+278077067+278505572+278916985+279225150+279658273+280239811+280785474
2480+281219793+281351742+281096380+280730483+280549466+280570899+280589720
2467+280536311+280461984+280343980+280256130+280322730+280424949+280437717
2453+280558775+280854852+281102856+281266394+281528049+281974161+282419445
2440+282700068+282875271+282883200+282644782+282446250+282551542+282727848
2426+282696719+282633136+282788893+283073747+283304548+283465861+283564308
2413+283570784+283584711+283819008+284193957+284380125+284445603+284644263
2399+284893168+285091645+285330136+285660746+285987309+286156440+286154490
2386+285969040+285237319+283621949+281307771+278636252+275761436+272750310
2372+269641676+266438918+263125828+259910854+257332777+255788680+255337913
2359+256284080+259062785+263299246+268531437+273794335+276592984+275519946
2345+272192524+269888208+269576179+270436225+271943011+273492242+274653074
2332+275750655+277614636+280215600+282541846+284248323+286059281+288508057
2318+291314911+293912361+296016600+297876442+299847756+301873491+303730113
2305+305370652+306908089+308424774+309879862+311229126+312424841+313479812
2291+314554690+315685791+316785432+317920324+319022688+319802648+320337953
2278+321031626+322034605+323156140+324097449+324734273+325204707+325706675
2264+326337023+327111573+327991765+328757521+329203412+329507713+329825555
2251+330047838+330328001+330881557+331510138+331991390+332374986+332744636
2237+333029509+333188099+333441070+333916765+334344994+334544206+334706660
2224+334975637+335297526+335608487+335810091+335925666+336194055+336678176
2210+337242035+337751545+338066333+338326295+338808540+339403417+339928787
2197+340489812+341186908+341961164+342675885+343326250+344124240+345047482
2183+345867255+346683974+347645263+348664836+349683601+350582558+351261072
2170+351917839+352737465+353691836+354738528+355801006+356814104+357910176
2156+359160753+360277284+361173444+362222087+363517187+364835653+366070739
2143+367244303+368455067+369729010+371042692+372400824+373808004+375260848
2129+376709313+378137062+379537619+380991051+382668349+384427775+386016837
2116+387648361+389569246+391488955+393243965+395115545+397152742+399251351
2102+401524373+404017543+406535624+409028941+411654466+414381951+417223835
2089+420322700+423673322+427218446+430936915+434868910+438942311+443066600
2075+447381639+452035309+457042218+462157896+467178456+472397861+478011238
2062+483757190+489668870+495945160+502319252+508784451+515644652+522645561
2048+529445859+536204687+543149298+550215225+557301389+564379384+571287530
2035+577909221+584534592+591426585+598245722+604839964+611348765+617600328
2021+623660516+629453787+634645963+639758219+645359343+650939493+655856731
2008+660197674+664302904+668188094+671614515+674740388+678226860+681973184
1994+684965488+687100378+689341093+691837464+694049478+695866305+697309214
1981+698599126+700100982+701449694+702244482+702904525+703491417+703615345
1967+703612769+703912213+704350672+704840129+705249445+705474708+705854588
1954+706300258+706590282+706953088+707207200+707349967+707719838+708580197
1940+710360155+712441102+713792242+714854904+716560019+718828478+721315724
1927+723885761+726466762+729625678+733480696+737542580+742280181+747640146
1913+752801193+758154460+764445358+770984406+776877688+782602078+788596990
1900+794607945+800251899+805545190+811051749+816318105+820702835+825242696
1886+830571678+836136448+841607683+846490922+850561269+853976725+856102710
1873+856461763+855458563+854448005+855330367+857241097+857906806+857144177
1859+856164306+855224984+853901808+852349175+850349840+847309260+843617467
1846+839405383+834654609+831094399+828974522+827165642+825043410+821694334
1832+816113521+809189663+804512480+802218044+799642414+797002760+794874420
1819+792782434+790413891+787608877+784198719+780788120+778723510+777627880
1805+776426425+774613939+772103512+770627487+771026942+770928623+768631464
1792+766280951+766876306+768854152+769793548+769430668+768636174+768355054
1778+768811690+768557946+766479427+764383099+765480570+768625650+771113338
1765+772002471+771724810+772186523+773771905+775371490+776860100+777241598
1751+776195127+776067077+778151999+780981445+783392819+784904977+786107978
1738+787742004+787996115+787160189+789608873+793993014+797942818+801269523
1724+803760081+804839595+803489190+800840632+802331301+809246034+816537629
1711+821394301+823082638+823334615+824865392+826239934+825271323+825918339
1697+831191613+839089749+846707428+851526054+854736042+856882191+856704394
1684+858582891+867161528+876306084+882194435+885281379+888217312+891494490
1670+894801766+900352407+906896164+911205463+914012611+918613847+924257949
1657+926930278+923841936+919877708+924413153+929406706+933541077+941635114
1643+948472943+950188362+949143509+946831117+946510257+952422085+959016989
1630+962168398+963112651+963561780+963398260+964828217+968992908+972152633
1616+973287267+976466641+980343001+981607377+981982988+983501328+984529696
1603+985259871+987575502+990469930+991891792+992440637+994558601+998257531
1589+1000440624+999796404+999204139+1001621768+1005979269+1008486016+1006844190
1576+1004273859+1005465453+1006679271+1006651380+1009172110+1012484906
1564+1013807934+1012694421+1006827926+1003685863+1014623034+1027451581
1553+1035260303+1038476179+1041517496+1045071009+1045718909+1043329172
1541+1040059500+1042345915+1051049658+1057877700+1061621226+1064222024
1530+1064617947+1063021673+1061021382+1058230129+1056426033+1058112456
1518+1060437728+1063781505+1068381711+1069901376+1066327625+1060065428
1506+1061577660+1070799193+1073741823+1071151917+1067001797+1065163039
1495+1069124544+1073436124+1071998219+1068176464+1068877424+1071760077
1483+1072462214+1071262451+1070042966+1068013974+1063670309+1058318660
1472+1057625796+1063310299+1067377923+1063642344+1055196834+1047852474
1460+1039723923+1028459122+1021048383+1022670561+1025850009+1024518591
1449+1018031131+1011293091+1006259505+1000389110+992440490+981568153+968642391
1435+959958371+955415273+950707329+947187447+945029449+943439725+944793220
1422+947543482+949535163+954971810+963325257+969620717+973702470+976929900
1408+978274049+978974346+982773508+989151832+995395189+999868155+1002890559
1395+1008478289+1016158079+1019651984+1018322038+1016703908+1016220706
1383+1014800684+1013303096+1014494175+1017711228+1022178233+1029253248
1371+1035628334+1036499290+1033513314+1032425632+1033906293+1034111245
1360+1034429381+1036317372+1036899260+1035629291+1033246766+1030144295
1348+1026905164+1023642999+1020370605+1015446891+1009312596+1006527599
1337+1006984087+1006376368+1004383878+1001860499+998876951+998166278+1001570548
1323+1006563953+1009959392+1011442924+1012394462+1013546390+1016688453
1312+1022149386+1026095657+1027177820+1027947514+1029880984+1032606593
1300+1034840316+1035348466+1034289263+1033653138+1035304532+1038326420
1288+1041016779+1044280416+1049090431+1054777510+1060227109+1064065569
1277+1065900647+1065631302+1062742540+1058505067+1055816990+1055356233
1265+1053328566+1047536251+1041832099+1038695187+1036062598+1032901548
1254+1029760294+1026784768+1024054891+1021520031+1019409794+1017455056
1242+1015145387+1013074668+1011378016+1010356639+1010415660+1010168687
1231+1008649242+1006973343+1006792234+1008349431+1009686809+1008351270
1219+1005036414+1003036785+1003774099+1007001381+1011405613+1013640072
1207+1012712377+1011965055+1012879356+1012902317+1010688022+1008286216
1196+1007579295+1007601078+1007040017+1006119902+1004710992+1002876871
1184+1001189344+1000111007+999883168+999283618+997425064+994976748+992369695
1171+990295665+989039973+987142563+984931359+984686078+985908654+985614803
1157+982038844+977662356+976044373+975833239+973653900+969592531+966251918
1144+964526344+963416216+962961273+962955460+961776744+958779067+955730980
1130+954284981+953446994+951897157+948845905+943573514+937723725+933565657
1117+931216763+930056004+929150092+926962731+922998062+918427219+914767660
1103+912389550+910733300+909329615+907211430+903961629+902147230+903085816
1090+903227848+901585727+902662591+907369137+910686275+909786398+907335579
1076+906868273+909459725+913104345+914937068+914901376+915357128+917511741
1063+920231830+922129756+922606555+921951223+921483843+922648355+925854149
1049+929262687+930537071+930907973+932963163+934718321+933838534+932572392
1036+932139600+931418403+929287119+926096559+923957843+922498596+921100578
1022+921687029+923482515+923530497+921520418+919213986+918758307+920096422
1009+919871821+916463282+912140443+909890530+909727672+909259997+908417227
995+908967839+911747464+916019010+921224212+927319577+931610330+933635421
982+936550897+939858983+942311861+943463495+941334860+937710920+935352459
968+933221616+931917795+932512415+933433339+934218266+934891776+934408574
955+932792283+931808586+931943111+930526769+927227587+925599964+925981168
941+925320978+923064368+920327794+916704515+912848246+911318499+911585784
928+911118551+910029029+907816500+903154109+898007707+894849969+893203947
914+891385869+889677736+888259480+885338927+881704905+879542859+878003178
901+876223220+874863469+873599829+871293545+868074063+865871984+865773003
887+866620483+866861054+866370051+866570147+868150377+870634017+873538969
874+876410510+879512908+883060092+886524855+890193981+895416844+902197493
860+909791917+919608142+931171872+941783548+952196380+963918699+975627183
847+984678130+990372936+996147810+1006323898+1020023474+1030321871+1033599490
833+1032957919+1030704768+1028299797+1029866339+1036646032+1043040840
822+1045093013+1045550826+1046486027+1045372219+1040641977+1035443988
810+1033958984+1035905333+1036603275+1036184024+1037552090+1036954822
799+1032620943+1028291039+1023622982+1018074182+1015598710+1016251835
787+1014378784+1007363451+999016849+994029478+990789832+984652005+977804609
773+973337015+966605672+955982737+948873428+948252978+948349530+946052445
760+943611488+942320324+942299792+943064923+942735307+940811036+939075233
746+937878708+936828705+936461704+935266504+933026084+932264191+932223495
733+930529565+927782909+925619465+922759037+918766329+916361947+913917899
719+909521910+906855027+906920229+908253265+911751438+916447681+919861591
706+923620867+928177359+930154028+930351915+932503510+936838051+940093151
692+940901333+940675922+938823403+936257266+935677145+936420051+937518919
679+939904168+944050829+946289483+942231352+936324823+936627505+941438404
665+940753855+939212555+941420742+943351636+943920425+946440419+948232373
652+946473756+945000160+945980104+947313067+950529826+956361880+957518150
638+952381168+950129636+952111308+952505390+952161129+950330614+947942643
625+952906759+961237907+964360174+963705136+957715523+948552496+947786629
611+956096804+960707975+960325961+962970031+965138258+958341051+944443734
##END=
