##TITLE=Sample description
##JCAMP-DX=4.24
##DATA TYPE=INFRARED SPECTRUM
##DATE=13/9/2023
##SAMPLING PROCEDURE=Instrument type and / or accessory
##ORIGIN=Default
##XUNITS=1/CM
##YUNITS=ABSORBANCE
##RESOLUTION=4
##FIRSTX=4397.6552
##LASTX=599.8556
##DELTAX=-1.9287962
##MAXY=1.8616472
##MINY=0.47071895
##XFACTOR=1
##YFACTOR=1.7337941e-009
##NPOINTS=1970
##FIRSTY=0.50179374
##XYDATA=(X++(Y..Y))
4398+289419453+288580763+287183377+286291229+286249254+287112592+288283014
4384+288808622+288286710+287276250+286806060+286867700+286875572+286909091
4371+287200446+288048005+289012140+288633946+287661526+287996472+288771631
4357+288357305+286627843+284864003+284983588+286594256+287723973+288100724
4344+287917058+287253062+286496983+285235098+285075137+287846343+290019420
4330+288804221+286522233+285106043+284983037+285815023+286293791+285758763
4317+284630850+283948135+284558880+285298938+284759012+284225291+284544836
4303+284807726+284764049+284636007+284645427+284489264+284383792+285305212
4290+286282240+285783653+284433554+284147734+285110494+285112592+283764676
4276+282808258+282189193+281416338+281628984+282688381+283209348+283597873
4263+284269777+284405880+284386851+284515134+283440541+281855966+282050048
4249+283318860+283989921+283967129+283230783+282345064+282178760+282248066
4236+282213791+282669817+283120773+283143531+283425552+283550397+283355249
4222+283538536+283781779+283897530+283757628+283217289+283258801+284258037
4209+285558700+286374992+285405683+283186521+282387229+283067194+283181347
4195+282712223+283058428+284519053+285459295+284846608+283801340+283105749
4182+282704109+282473140+282376915+282376279+281718969+280232354+279139593
4168+279548264+281092651+282206228+282160797+281653616+281303698+280995446
4155+280878148+281403790+282148249+282606871+282703130+282501382+282856508
4141+283749240+283597787+282331657+281373142+280952233+280618541+280526872
4128+280453217+279975068+280096131+281717474+283486814+283610868+282484158
4114+282051028+282337312+281502026+279939074+279154135+279175570+279895105
4101+280597897+280309963+280092865+281179232+282442595+282372051+281574546
4087+281177685+281170070+281597270+282329611+282350324+281602582+281351484
4074+281930102+282320226+281994596+281437274+281090107+280852004+280344651
4060+279772667+279659322+280078478+281190130+282708991+283662882+283449359
4047+282415058+281799465+281933953+281930378+281683439+281774730+282122878
4033+282116638+281924293+282003998+281841819+281306311+281390572+281969792
4020+281669997+280757378+280750966+281725174+282655825+283436570+284565016
4006+285224716+284703491+284263675+284526547+284395051+283826677+283920323
3993+284623820+284791568+284368872+284810390+286172470+286671658+285859010
3979+284850321+284346852+284250491+284282067+284278148+284254186+284348124
3966+283952948+283057809+283303149+284747822+285824512+286029165+285517497
3952+284774190+284583993+285162268+285383956+284703835+284896869+286205198
3939+286545250+285561725+284408664+284610155+286729946+288254033+287249538
3925+285697330+285489239+285380724+284887741+285554402+287843661+289886308
3912+290126302+288688298+285790443+281564697+277956383+277270023+279689489
3898+283867088+286654641+286262438+285357914+286836914+287475574+285624998
3885+284596077+284123137+283889210+285762373+285769335+282715025+280010392
3871+278953865+281252818+284089532+284121624+285379486+288948472+290073875
3858+286134276+277085980+271496452+279342665+288321878+291685386+290483903
3844+286925145+283159998+280492442+280348948+282747839+285283674+287495978
3831+289748039+291129594+291388496+289516536+284132694+281318137+284272389
3817+286537927+289082100+292647493+293502924+290774089+288007851+288121076
3804+286909950+285414501+288148269+291016112+293663333+297255025+299055100
3790+298768764+297881704+297225357+297628853+297480133+295966119+296863630
3777+300120479+301462808+300102912+298871348+300080153+302106917+304111439
3763+305539817+304668640+303861544+305758187+307145930+304989801+303238303
3750+308981999+316748643+325876800+344906966+366020448+379256141+383365396
3736+381128822+381046762+385549888+390091826+391748304+392324894+395002162
3723+399666349+406497426+415375345+423244401+427902917+431122225+438988634
3709+453205996+468398735+481516304+494385355+509684150+523521186+531262047
3696+534535019+534621480+530058295+523312132+520910268+521984551+521008590
3682+516486659+509759094+500797053+491033622+487899675+487633382+482776023
3669+478780766+478473803+476959480+472923484+467383238+460041852+451209313
3655+444367716+437096323+424021107+411769798+410933687+414276344+413899112
3642+410241173+405889105+401001631+395702410+390592716+383996751+375403244
3628+372617135+376021672+376665506+371731450+363815398+359134812+358061561
3615+356178429+354207838+352614995+350105493+349126300+349518142+348324120
3601+346413554+344675566+341549320+338387251+337544161+336586833+332586900
3588+328960280+329971376+332115438+332230124+331122941+329864150+328420749
3574+327019255+325338025+321564748+316400770+314941211+317179470+318732125
3561+319120461+319111969+318374248+316725403+315019215+313967072+312648463
3547+310971669+310260969+310595675+310949117+310590587+309884116+309725426
3534+309642300+308544262+306836767+305804116+305563779+305348227+305021463
3520+304555949+303991322+303843839+303525945+302282212+301302365+301556042
3507+301537134+300186760+299125747+298997826+298575249+298074669+298224248
3493+298582194+298536161+298175878+297903672+297601832+297145393+297129889
3480+297643292+297910857+297666394+297420900+297650683+297704623+296873599
3466+295893891+295535980+295878558+296640997+297153713+296868305+296102566
3453+295728532+295504833+294827171+294301048+294375270+294805135+295359792
3439+295518309+295181644+295094117+295355976+295424732+295509990+296055640
3426+296656158+296790267+296635049+296400315+296176754+296311688+296953460
3412+297668732+297897381+297664881+297288062+297149037+297655634+298334912
3399+298442378+298227308+298267049+298659648+299156378+299538904+299733759
3385+299711757+299579848+299461896+299474857+299772675+300207971+300508574
3372+300575886+300459963+300477633+300719037+300809967+300667642+300491797
3358+300382372+300686343+301797514+303134205+303412669+302450974+301212295
3345+300262254+299795055+299768068+299439894+298561258+297744604+297053157
3331+296598712+296769674+297009874+296910453+296440503+295230083+293878334
3318+293220955+292690190+291399119+289602723+288333120+288066174+288204872
3304+287457457+285298423+283104134+282466247+283226503+284172830+284706946
3291+285075944+285774491+286841675+287425262+287343064+287835771+289152953
3277+290100793+290328342+290527082+291061422+291747266+292265379+292657222
3264+293255264+293877749+294134829+294230882+294491056+295016904+295710208
3250+296048386+295771092+295173290+294559365+294754324+296227187+297508358
3237+297731506+298186501+299020550+299118149+299002226+299863743+301466005
3223+302686327+302921198+302507492+302045759+302132323+303022580+303886537
3210+304028519+304071595+304806909+306246460+307637022+308337443+308728597
3196+309357477+310404395+311773539+312674453+312584623+312070051+311935460
3183+312588267+313868235+315084362+315485555+315246111+315366091+316288663
3169+317646016+318669075+318852792+318884523+319642974+320734412+321668570
3156+322785310+323912329+324460110+324495038+324507449+324777008+325012636
3142+325156027+325525317+325759467+325367109+324738436+324540452+324649224
3129+324806505+325369275+325956488+325484717+324314519+323780110+323789221
3115+323326766+322484673+321951605+321630582+320920398+319674912+318663644
3102+318454865+318101355+316945148+316063039+316163217+316721278+317336337
3088+318105308+318825152+318902641+318566904+318701735+319358804+319741227
3075+319357429+318790809+318968200+319802901+320538766+320984341+321273118
3061+321193292+320903931+321072624+321669945+322152648+322392161+322439603
3047+322311338+321890412+320929577+319692754+318872560+318587084+318095270
3034+316933322+315788392+315247039+314695579+313649796+312578779+311759066
3020+311036368+310647001+310722255+310638991+310186678+309864761+309512900
3007+308814336+308350747+308452919+308625669+308791269+309388486+310522553
2993+312215470+314577834+317361502+319942855+321845961+323064838+323693993
2980+323909647+324001609+323884895+323332438+322535002+321859506+321316331
2966+320601162+319639124+318751308+318039577+317313785+316899804+317188099
2953+317641375+317598402+317322174+317422455+317913787+318150653+317714463
2939+317055571+316504902+315891974+315301082+314750894+314184617+313968722
2926+314264855+314382463+313696997+312592324+311654763+311205647+311242122
2912+311308540+311542827+312225440+312699206+312754726+312986435+313297764
2899+313287485+313264864+313564022+314108813+314745668+315208880+315428865
2885+315670922+315908028+315938969+315977197+316264014+316678649+317111951
2872+317418398+317358443+317024493+316618143+316246000+316048154+315961349
2858+315813591+315666350+315595909+315272548+314343306+313285456+312966118
2845+313335683+313814089+314342275+314870495+315187015+315414255+315778457
2831+316444293+317251527+317721648+317827945+317842350+317793808+317978521
2818+318642811+319260964+319662982+320164594+320538113+320668853+320804028
2804+321053476+321551581+322364968+323361247+324313109+324878011+324974270
2791+325037904+325243623+325292474+325225952+325246476+325190440+325087374
2777+325192984+325335412+325343594+325353048+325347789+325298181+325342804
2764+325532812+325725742+325814644+325809831+325714569+325678575+325878690
2750+326178502+326408355+326638860+326847054+326874316+326782423+326769532
2737+326812539+326796415+326934719+327331271+327574256+327438840+327229030
2723+327217960+327202662+327027162+326938191+327013995+327232949+327636893
2710+328041317+328265360+328358284+328330437+328122793+327991297+328080096
2696+328087281+328034682+328097800+328081540+327940795+327865610+327852031
2683+327710737+327343303+326925608+326680492+326512727+326212262+325913275
2669+325963570+326222335+326063679+325451404+324844286+324273437+323825318
2656+323747004+323799981+323725208+323617914+323610351+323737034+323871556
2642+323808404+323584636+323403291+323276264+323228375+323403704+323692962
2629+323785130+323604163+323408826+323350693+323410786+323645692+323935362
2615+324104640+324301833+324679409+325045158+325213095+325302581+325482379
2602+325820523+326184381+326526719+327116682+327807580+328299738+328811216
2588+329361438+329691503+329883024+330178470+330613491+331038302+331310336
2575+331446405+331590484+331759590+331886548+332062530+332305687+332397373
2561+332303521+332334702+332562113+332643383+332439555+332206403+332146688
2548+332235383+332489026+332900876+333221693+333298287+333257549+333220765
2534+333298734+333616663+333990216+334147840+334291163+334665953+335058002
2521+335276406+335478206+335730542+335877955+336019628+336303557+336538429
2507+336716507+337029177+337356663+337535979+337704811+338100091+338692083
2494+339191185+339471676+339712461+340090586+340552147+341033029+341567781
2480+341960929+341967633+341694121+341406926+341382998+341689892+341943500
2467+341907368+341800108+341841362+342141690+342522187+342635188+342585340
2453+342632541+342745920+342850464+342971407+343186408+343497667+343812331
2440+344115065+344369051+344373142+344146177+344020937+344105301+344251787
2426+344294003+344192725+344208780+344531384+344999512+345265255+345109969
2413+344877950+345049016+345512640+345809358+345731010+345627532+345997716
2399+346760533+347433210+347817730+348023724+348059202+347914160+347749970
2386+347488971+346610850+344586389+341404003+337644271+333804918+329787177
2372+325453433+321062998+316751806+312753076+309829730+308253663+307881107
2359+309008607+311922156+316673974+323114652+329600813+332993594+331659171
2345+327489823+324683018+324406858+325146780+326383018+328088312+329725400
2332+330922929+332532514+335177810+337907745+339874829+341748885+344628571
2318+348141400+350935828+352806069+354639456+356752372+358813308+360872388
2305+363095485+365084056+366704298+368363422+369932407+371177412+372391201
2291+373693515+375042067+376401516+377570752+378445848+379111581+379755931
2278+380574887+381555696+382523235+383434737+384337026+385136628+385786684
2264+386457333+387242874+388068809+388931461+389726902+390255845+390698738
2251+391385752+392246924+392929159+393264690+393557729+394230785+395088004
2237+395668032+396060184+396473891+396952263+397552677+398133118+398581581
2224+398953415+399268353+399700831+400393757+401045120+401353045+401445969
2210+401639380+402156909+402850317+403434058+403948630+404482970+405038624
2197+405688474+406419285+407122215+407709256+408212931+408848067+409693632
2183+410627996+411630945+412662908+413584586+414332896+414953421+415586461
2170+416345565+417143138+417861814+418662103+419707027+420857560+422029512
2156+423276717+424493807+425631724+426779782+427906801+429091610+430388835
2143+431612354+432829375+434212924+435729241+437270242+438649116+439928464
2129+441369665+442823140+444058690+445372761+447009127+448680868+450199970
2116+451785319+453681927+455839741+457922232+459763767+461517912+463314893
2102+465331515+467696904+470090037+472315713+474725175+477396976+479997306
2089+482510830+485263455+488517691+492244558+496051870+499501993+502602559
2075+505861643+509724785+514032162+518306776+522434699+526872540+531977903
2062+537249896+542152943+547054787+552447654+558205583+563951479+569561582
2048+575179660+580971588+586859604+592670269+598631716+605006320+611557215
2035+618010133+624343827+630639636+637136832+643652456+649515513+654994016
2021+660817057+666725149+672424978+678261083+683921721+688492022+692175779
2008+696087601+700972599+706518621+711255518+714695809+718062393+721868330
1994+725467586+728763007+732178064+735131904+737222853+739567030+742387758
1981+744455535+745963843+747989335+749986362+751221981+751794928+751780214
1967+752284679+754263486+756606563+758089362+758360262+757928403+758008711
1954+759022316+760276294+760752844+760319404+759923780+759960496+760552007
1940+761884642+763115242+763771109+764696775+766343489+768321264+770607824
1927+772888264+774411561+775884733+778127289+780712183+784359636+789437565
1913+794213310+797799295+800806009+804456075+809323541+814252337+818599730
1900+823136409+827828752+832327890+837154446+842086474+846822340+852277259
1886+857858553+862617177+867126216+871135534+874840606+878822765+881529151
1873+882036023+881495529+882028872+885746595+890835318+894140915+895763083
1859+896361400+895565684+894489854+893993914+893511933+892515103+889884487
1846+885150821+881566623+881943545+882928067+881741333+879340363+876861423
1832+872842822+866542819+861649845+859876551+859629166+859988761+859540676
1819+857668235+854790578+851282562+847105478+843261244+841906401+841891137
1805+840646510+837939918+835112383+834122911+834203906+832386196+828563207
1792+826713800+828696182+830287340+829788995+829374875+829248020+828611199
1778+828160020+826899304+823097699+818443653+818359839+823272821+828507583
1765+830416602+829150524+828255591+829147980+830835672+832995377+833247437
1751+830794900+829759292+832072942+834981403+836748165+836994175+836865876
1738+836980630+835188840+834239660+839382769+845922045+850817081+853456636
1724+854045465+854040721+852033931+847232059+846229592+852886440+860550363
1711+864908275+865789525+865280934+866386673+866900833+863563402+863263349
1697+869357565+877524990+886472799+892545838+895296640+895740600+892314679
1684+890735553+897833336+905959300+911441722+915077075+918313641+920054826
1670+920838029+927084677+936219985+940900364+943686095+949208877+953955469
1657+953080820+944938423+939468927+948226762+955239631+957598454+964675403
1643+974074666+978457813+976721991+970839476+967960786+974740503+983177521
1630+987075454+988522843+990152986+990154980+991446017+995296509+995698183
1616+994195926+997001803+999705301+999842332+1001198688+1004882376+1008662254
1603+1012503532+1016953166+1020922949+1022357274+1021693363+1022700162
1591+1025631931+1027099878+1026482584+1025848513+1026078710+1026585031
1580+1025750467+1022285424+1021875980+1027319348+1029011648+1026672283
1568+1028586734+1032820129+1033156966+1027309585+1014530743+1009408673
1557+1023729925+1037911740+1046025741+1049573704+1049700285+1046840572
1545+1042850574+1038773531+1033867837+1037448253+1048345648+1054016393
1533+1056167228+1060932316+1064607891+1063665310+1060395260+1055135127
1522+1048954004+1047777102+1050468361+1055713849+1063725541+1068469451
1510+1064646876+1051835581+1043681838+1054042314+1064927883+1066968501
1499+1063830463+1062528081+1065385181+1066636202+1062084396+1057415499
1487+1060836263+1067015324+1068400626+1066172166+1062621865+1055961578
1476+1047246784+1042070534+1045529458+1053177016+1056553089+1054032001
1464+1049869563+1045213729+1034726329+1018812130+1013043750+1019509663
1452+1022034188+1016502468+1008393211+1003976099+1001307735+995451760+987389395
1439+977465178+964986320+958366531+957546061+952688840+945324214+943024384
1425+944053873+943578560+941671948+942349679+949514018+959228803+966792410
1412+971972855+975699859+978433404+980151624+982558989+986634451+990747935
1398+994030636+997201265+1002257191+1008536293+1011890157+1011059581+1009582833
1385+1010739658+1012479949+1014019952+1016928826+1018131167+1015885036
1373+1016810015+1023986180+1031283287+1034919534+1035890373+1034005969
1362+1030971340+1031473330+1034964775+1037251679+1035510082+1030772497
1350+1027310135+1026006790+1023728000+1020655349+1017531956+1012816580
1339+1007891290+1003844637+1000042482+998481713+999731841+1000465539+999227994
1325+999259416+1001824920+1003900123+1004807363+1006049583+1007766153
1314+1010536689+1015046415+1020849861+1026074172+1028055385+1028117678
1302+1030161941+1033407307+1035085236+1035422761+1034855659+1034979283
1290+1038631825+1043891958+1047666954+1051740972+1056816013+1060590941
1279+1064314851+1070009043+1073741823+1072880581+1071074697+1069512347
1267+1067303619+1065057282+1061284279+1056344482+1054286743+1055147916
1256+1055739633+1056001044+1056810994+1058298193+1061845331+1063309565
1244+1056178779+1045622898+1039121782+1035994195+1033561665+1031851352
1233+1031728141+1030885188+1027301197+1024085670+1023980886+1025589577
1221+1026829116+1027736493+1028566175+1027698402+1025614054+1025440032
1209+1026672214+1026727838+1025913901+1025682948+1026672627+1027403506
1198+1025896162+1023251588+1021849509+1022173626+1021552825+1017821902
1186+1013461514+1011653016+1013196183+1016226961+1015968094+1010805732
1175+1005947618+1005204912+1006389033+1007155597+1007592062+1006925882
1163+1004238129+1001236023+1000566955+1001288552+999834219+996366701+993373119
1150+991235004+990131191+989781771+988839397+986650196+983734997+981961497
1136+981544352+980208486+977762205+975572454+972839597+968988006+965264645
1123+961889810+959558696+959181430+958807946+956568209+953307922+951620849
1109+951850495+949720080+943971159+939603208+938409323+937290933+935756842
1096+934837639+933699928+931944236+930463500+929993138+929534877+929175694
1082+930915848+934296939+936820365+935692349+931816418+931103209+934135843
1069+935113146+933773910+934718278+937061493+938067948+940276126+943370091
1055+944179078+944948392+945770237+944949286+946258750+949812214+950964432
1042+949694641+947877274+945734552+944486625+945124271+947362701+949933569
1028+949863506+946508954+943666775+943075470+941670435+939823366+942059183
1015+945638637+943865549+938671904+935713251+934700883+933031204+932347973
1001+934747087+937680988+939067046+941543030+945360655+946063001+942918981
988+940876781+944280906+951616173+957901394+960852621+961150405+960793010
974+960760419+959967796+958692917+958214923+957831056+957259554+957479299
961+958166175+959182187+960845058+962077652+959389212+952837217+950581391
947+954472586+956815594+955444937+954258891+955697204+957511133+955556873
934+950653379+946534669+945142766+945260684+944299333+942883296+942366662
920+940619495+937480288+936169999+935933890+934466836+933605870+933438861
907+931154707+927710360+925150700+924007145+924277426+923547990+921200925
893+919471772+918917459+919256015+919393252+919539566+922045390+925795221
880+928447909+930694384+932406278+932732252+932790145+933490772+935083030
866+938441364+944529254+952529532+958865839+962068508+965288504+969714691
853+973990990+980441363+990294487+998661442+1004467432+1011875718+1020299467
839+1026188101+1029010685+1030143377+1030428371+1031680218+1036459950
827+1042808152+1045249757+1045620835+1051299488+1059223309+1059664862
816+1054589065+1051144167+1048924438+1046332188+1045413053+1044888512
804+1043416783+1044645733+1046304548+1043990004+1042240500+1043262975
793+1043671112+1041032795+1032905318+1023604239+1022046564+1023773860
781+1017681570+1007696709+1002442283+1001221515+998808925+990811259+979718666
768+972245542+969608738+969363278+970285987+970540729+969089284+967870991
754+967786077+968949433+972203120+973163714+967736434+961562736+959328706
741+959006927+958866458+957632763+954452234+952155360+952423166+951971162
727+948577969+943899102+939678702+936556891+935424749+935213186+933615633
714+933840398+937532268+939333408+938685930+940296547+947252348+957206199
700+963572071+964660002+962541689+960043634+960638239+963135606+963155064
687+960969301+962727606+968142372+968711880+965477102+965077834+967211961
673+969331168+966416038+957271655+955292986+962108937+965603270+967908463
660+975338614+986631907+990263134+981493266+973404911+975376705+977116721
646+970287706+969677769+981305355+986519353+978875920+970666691+966264156
633+960448953+952581306+948595571+955481241+971430505+984890447+990127890
619+997706486+1019561161+1035633362+1021558945+1001804087+996071461+1000787181
606+1004232904+992606624+977540947+977907143
##END=
