##TITLE=Sample description
##JCAMP-DX=4.24
##DATA TYPE=INFRARED SPECTRUM
##DATE=13/9/2023
##SAMPLING PROCEDURE=Instrument type and / or accessory
##ORIGIN=Default
##XUNITS=1/CM
##YUNITS=ABSORBANCE
##RESOLUTION=4
##FIRSTX=4397.6552
##LASTX=599.8556
##DELTAX=-1.9287962
##MAXY=1.6978294
##MINY=0.30685219
##XFACTOR=1
##YFACTOR=1.5812268e-009
##NPOINTS=1970
##FIRSTY=0.33780652
##XYDATA=(X++(Y..Y))
4398+213635716+212692394+212112698+211296465+210129667+209281186+208398987
4384+207437043+206952566+206784917+207201675+208087285+209013908+210234403
4371+210666861+209785529+209410311+209962621+210247314+210191431+209941210
4357+209056711+207858532+207294141+207471930+207449313+206665687+205558994
4344+204940792+205226842+205471296+204735278+204316390+205399637+206122405
4330+204554285+202143998+201468990+202778464+204082680+204068922+203547503
4317+203247110+202906760+202881071+203304388+203332980+203321162+204130591
4303+204923867+204743326+204210919+203692686+202368171+200918716+200815337
4290+201209327+200760716+199998048+200132111+200965740+200993767+199767505
4276+198543787+198315392+198645903+198830063+198969403+199407761+199668894
4263+199304382+199361509+200293937+200785275+200271056+199255661+198067584
4249+197558190+198411741+199329110+199317085+199032957+198604269+198291606
4236+198436224+198459067+198303178+198198631+198107145+198268687+198864196
4222+199475612+199624979+199441196+199014392+198571097+198477293+198698676
4209+199265706+199569793+198941377+198139770+197797366+197857508+198695133
4195+199886452+199802523+198374385+197230486+196889948+196904536+197193451
4182+197443445+196787964+195133164+194059567+194879569+196636278+197627982
4168+197587347+197597694+198097966+198076875+197428198+196821720+195977611
4155+195593950+196549787+197456394+197528995+197641383+197684110+197337673
4141+196908720+196344461+195734006+195326050+195056605+195285848+196263002
4128+197051472+197267277+197721240+198476878+198892882+198534231+197622535
4114+196992630+197041219+197242643+196936351+196621785+197074296+197701017
4101+197807656+197808844+197940004+197919705+198216668+199007890+199438746
4087+199260957+198959885+199069691+199763754+200603113+200856764+200501430
4074+200503711+200599437+200066314+199773084+199696280+199314201+199586719
4060+200621225+201330253+201550167+201701343+201866316+201965568+201626631
4047+201141532+201677275+202906930+203736017+203891057+203307592+202613623
4033+202369566+202465764+202962587+203648677+204233273+204577694+204343795
4020+203778442+203642061+204180801+205080660+205781169+206265439+207092453
4006+207678839+207005132+205930367+205741551+205993242+205980388+206134825
3993+206870127+207755568+208534162+209440693+210054710+210042912+209900047
3979+209642985+209136606+208913470+209353297+210182422+211005647+211550248
3966+211532814+211274659+211489201+212145870+212834222+213362991+213519445
3952+212642843+210934742+210868681+212254093+212185733+212065466+213745409
3939+215139358+214862732+213034364+211291678+212315649+214577511+214420171
3925+213441095+214590196+214893698+212772307+213051139+217887186+222576770
3912+223929443+222505827+217688552+209566181+203562524+203774051+208977212
3898+216813552+221482365+219338018+215914107+217731411+219014687+216477198
3885+216010550+216562521+217182758+221124770+222292567+218724133+215230580
3871+213462902+215716245+218312614+216978167+218187316+224390379+227762176
3858+222716091+209000564+199854807+211172524+225651001+231982059+230300853
3844+224133091+217739742+213238597+213395937+218671096+223784392+227209735
3831+230143287+231461243+231214980+228409836+220515163+216640946+221807562
3817+226346835+231983698+239297150+241431715+236719157+231481542+230521351
3804+227790881+226192134+232050174+237723602+242263459+247582496+250698305
3790+251580730+251220835+250104059+250202443+249893625+248230344+250690219
3777+256871363+260112301+258188075+254579759+254879361+259175500+264969496
3763+268815367+267746859+266620527+269458767+270554811+266303095+265182719
3750+278241690+294479967+311838639+342454880+372424855+387174530+388987217
3736+387284977+394069508+408102108+420195064+426717576+431889771+440243439
3723+451140629+464459206+479253399+490882780+496699148+501162598+514510502
3709+537817852+561012570+578572497+593375888+610863402+629172182+642049123
3696+647352836+645294076+637680250+632270915+637552162+647456875+652101751
3682+649883088+643163543+631961513+620917463+623028733+628370820+626130444
3669+628168246+634618647+636309653+634009417+628613163+619032402+609046193
3655+603691478+595398008+577660311+564993408+571419344+582624541+587002008
3642+585766774+582346916+576867355+570310503+564585056+556828479+545100525
3628+541678971+547327633+548183841+541743882+532995356+528514943+527603926
3615+525187174+521323455+516997819+514156393+516816543+520785017+519169891
3601+514186926+510898775+508670499+507198992+508319859+507645379+500549448
3588+494719773+497275432+500935635+501396044+500666906+499169728+496599105
3574+494961437+493923236+489145333+480670324+477716868+482022073+485089783
3561+485298652+485318065+485029961+483722127+482315568+481659333+480392247
3547+478194127+477220913+478363228+479656700+479000955+477245641+475814166
3534+474506067+473167398+471896203+470641783+468971773+467673286+468197363
3520+469172575+469265041+469328407+468530023+465595905+462389891+461273284
3507+461342643+460382057+459068756+458958309+459082817+458679855+458382666
3493+458129844+456675263+453832781+451560101+450941636+451027355+450886563
3480+450046601+448423409+446644573+445122931+443564159+441995323+440726390
3466+439511776+437977996+436517307+435699586+435065930+433843135+432180777
3453+430693288+429155211+427087780+425512913+425043947+424480253+423421056
3439+422241385+420900077+419679168+418932351+418148630+416656428+415087328
3426+413881987+412143221+410177794+409236696+409019307+408734596+408332124
3412+407603815+406224737+404911927+404632266+404935637+404792470+403851297
3399+402606941+401732563+400869155+399803060+398957783+398090303+396986852
3385+395760628+394842373+394560752+394058200+392824135+391569790+390935417
3372+390564157+389542391+388264901+387709312+387434929+386756905+385905333
3358+385082749+384119298+383219174+382581372+381802664+380934431+380376995
3345+379845229+379265137+378824631+377983463+376524094+375066572+373871333
3331+372676621+371210354+369256122+366697712+364053922+362000326+360102448
3318+357931959+355732784+353310529+350912286+349386422+348285685+346346908
3304+343718837+341576017+340258230+339305673+338544909+338255975+338390132
3291+338470800+338188576+337551980+337000574+336977015+337068350+336556223
3277+335671178+334916332+334379477+334184480+333868783+332961573+331957448
3264+331292882+330969344+330713959+329893636+328076125+325799486+324221340
3250+323444781+322464178+321339618+321053737+321136101+320428902+319111078
3237+317964240+317302878+317094499+317264542+317262845+316115234+314388361
3223+313989207+314966982+315213132+313992976+313146700+313399522+313317083
3210+312745001+312663335+313145796+313666611+313853146+314038116+314235337
3196+313915946+313628973+314115919+314885108+315106492+314487066+313412659
3183+312698806+312443440+312170998+311931332+311778911+311625436+311667390
3169+311990645+312436768+312887244+313272206+313262010+312795777+312603475
3156+313059247+313715728+314202166+314183092+313560876+313116129+313268983
3142+313466186+313422082+313076474+312272869+311396230+310978153+310875188
3129+310519553+309867841+309522628+309395614+308949039+308468746+308095828
3115+307654398+307542556+307805217+307666649+306718012+305601857+304859130
3102+304394650+304480425+305055579+305446327+305759781+306329902+306925430
3088+307453709+308053609+308694748+309349080+310030929+310670692+311421561
3075+312342228+313254697+314080052+314383178+313922373+313342583+313067597
3061+312729490+312161273+311921267+312221170+312461854+312253192+311892807
3047+311888473+312369501+313206240+314339282+315548223+316555080+317257945
3034+317566065+317844897+318597330+319350593+319673377+319814960+319880701
3020+320071137+320652698+321747480+323217969+324560069+325838350+327552350
3007+329831515+332703813+336152546+340162673+344796957+350060638+356329424
2993+364118795+373293993+383397849+393805454+403655810+412288536+418798457
2980+422676614+425285988+428075507+430779873+433169862+435629058+437812853
2966+439757737+442160014+444360244+445795451+447605197+450535809+453978059
2953+457035553+459687598+462201867+464263342+466043460+467152942+466400923
2939+464274537+461638475+458381988+454596637+450402519+446257631+443240471
2926+441332265+439152277+436003371+432163249+427841496+423350755+419161198
2912+415317307+411533464+407827046+404278798+400972741+398258386+395877483
2899+393502233+391820726+391425643+392190705+393635976+395342249+397493061
2885+400198482+403197587+406446573+409397089+411158283+411699209+411508283
2872+411078822+410558176+409567282+407697978+404821910+401182214+397041284
2858+392464711+387566259+382071393+375263341+367330614+359614371+353039953
2845+347489110+342341870+337232664+332477755+328298414+324449056+320945816
2831+318077589+315845883+313934812+311989496+309898996+307786237+305807258
2818+304147294+302902825+302119312+301705004+301319307+301044886+301133639
2804+301241617+301142950+301165247+301405063+301385481+300809630+300005196
2791+299198255+298235972+297206743+296317249+295337005+294020519+292660816
2777+291635544+290862416+290107551+289420198+288846402+288063812+286855813
2764+285648418+284925782+284609764+284368854+283967777+283410379+282897705
2750+282595390+282530328+282402070+281806279+280947450+280378479+280201331
2737+280099346+279765744+279254069+278969320+279030217+278995970+278630685
2723+278204805+277785465+277388120+277305680+277379657+277253416+277147888
2710+277253736+277346259+277301270+277175481+276974019+276601553+276076195
2696+275712229+275561109+275180821+274474357+273787852+273189290+272539670
2683+271924221+271413790+270873298+270283010+269681451+268957138+268151837
2669+267579813+267280456+266859081+266157988+265372137+264717334+264321403
2656+264038689+263743649+263546032+263412232+263145313+262718905+262345496
2642+262062782+261771549+261657766+261744390+261708429+261530677+261545774
2629+261783612+261856119+261707505+261660612+261886784+262439225+263090334
2615+263456298+263603291+263877561+264393778+264965632+265429999+265809006
2602+266189294+266611386+267008636+267473324+268117798+268717472+269145313
2588+269436546+269455318+269227526+269094010+269208038+269304613+269097685
2575+268718245+268504287+268369621+268034247+267672599+267529245+267476735
2561+267345349+267100556+266696671+266148545+265734445+265715427+265875255
2548+265907729+265850715+265760473+265714900+265843553+265948893+265827118
2534+265731863+265914062+266193440+266423437+266751122+267223103+267730216
2521+268112596+268293891+268491000+268900087+269401112+269739766+269897369
2507+270105447+270365035+270586683+270919173+271328656+271604735+271827778
2494+272183564+272589975+272877099+273072812+273308765+273578229+273721678
2480+273706374+273668132+273659839+273658916+273667623+273650020+273560004
2467+273529678+273716590+273974142+274131048+274255932+274318921+274183482
2453+273993291+274001396+274161129+274277155+274373183+274570310+274750776
2440+274827071+274984392+275259114+275470057+275497725+275322405+275098024
2426+275036901+275136473+275301314+275543355+275844540+276054728+276068600
2413+276018880+276171545+276548045+276893634+277187355+277689154+278316534
2399+278719099+278943291+279200806+279401872+279509549+279678988+279794204
2386+279342766+277758136+274827994+270762870+265863777+260487821+255001493
2372+249469234+244010763+238815820+233877071+229697881+226984185+226086116
2359+227538738+231640163+237772850+245523057+253507350+257771807+255882882
2345+250337091+246579427+246124314+247223958+249088324+251242190+252925940
2332+254096828+255951318+259001933+262052284+264473032+267295742+271124009
2318+275176487+278555804+281098627+283469032+286191379+288993168+291616640
2305+294053729+296269150+298272065+300013451+301537675+303113805+304732889
2291+306102355+307278897+308539123+309795334+310750059+311404692+311891375
2278+312269646+312768787+313471312+314169917+314756398+315187028+315512130
2264+315886990+316331397+316772657+317184062+317573944+317878031+317997336
2251+318091009+318391251+318809366+319287416+319817448+320184223+320382612
2237+320559893+320676409+320747690+320982343+321384513+321634771+321710275
2224+321892267+322214787+322606553+323032584+323349563+323538416+323774350
2210+324135885+324572810+325026057+325510025+326025582+326511059+327060202
2197+327771736+328505662+329149156+329763663+330402974+331040663+331581627
2183+332061826+332751158+333652111+334474167+335231878+336078814+336937661
2170+337737478+338464656+339125754+339877547+340770508+341711116+342704007
2156+343749144+344840420+346044480+347341043+348562631+349724548+350966001
2143+352246771+353578127+354880157+356012860+357183295+358612433+360266234
2129+361896325+363304919+364634315+366016296+367434992+368943742+370582465
2116+372327187+374157326+376072053+378040006+379895665+381652185+383677321
2102+386005603+388258456+390423667+392869557+395668124+398533071+401435412
2089+404583978+408006061+411620652+415362880+419247709+423253840+427213984
2075+431264634+435874868+441066514+446329968+451338302+456355570+461924883
2062+468029317+474224371+480402311+486695410+493272127+500122399+506994420
2048+513785925+520444629+526924018+533598404+540837162+548299264+555550160
2035+562606096+569474084+576084086+582548133+588988808+595257217+601227720
2021+606898773+612193025+617646991+623819352+629755364+634664334+639304611
2008+644121454+648693955+652762096+656308233+659293240+661862468+664453033
1994+666886182+668759180+670699352+673418833+676600232+679141114+680435491
1981+681125615+682203999+683959539+685494186+686075747+685884407+685134498
1967+684817105+685837363+686951633+686932484+686390653+686068585+685932656
1954+685933712+686216350+686626776+686670050+685709425+683742566+683070913
1940+685278569+687950329+689306376+690081012+691079256+692792276+695289130
1927+697682775+699334955+701440080+704656988+708404644+713802670+720589991
1913+726358184+731110115+736753839+743856593+750668113+756448595+762864241
1900+770473015+777699786+783902530+789914309+794856224+798383589+803041584
1886+809070779+815016592+820540445+824847045+827945514+830691533+832941559
1873+833414634+831148776+828812579+830906697+835280998+837311035+836832381
1859+835013739+832686513+830902551+828929358+825451902+820357095+813638305
1846+805708820+800758989+801439237+802155068+799567972+795379659+790425155
1832+782901798+773959368+769055224+767469463+766084390+765656550+765099038
1819+762921387+759620118+755906312+751825582+748394189+747590377+748281329
1805+747226769+743105478+738156778+736177932+736714560+735346300+730424063
1792+727802061+732093507+736714183+737379504+736517942+735644243+735432547
1778+736739288+736135562+730363750+724255320+726085648+732856684+738395690
1765+739911112+737993030+738239331+741177369+743269980+744869764+743444433
1751+737624748+734601067+738353849+743397767+745970991+746326532+746946543
1738+747976601+744909042+741950271+748934964+758787280+765851660+769955460
1724+771703311+771933251+767854104+759485018+757938988+768385154+780911793
1711+789004046+790588299+787981300+787096594+786204047+780893097+779743469
1697+787394235+800245731+814806403+823397212+826256543+825084977+818481383
1684+818093273+833369927+848021143+853386148+852870026+855755668+861743247
1670+866341457+875248227+886776999+892775510+896754690+905278628+913010741
1657+912119249+901393535+898527570+914325850+922338114+924597036+936726594
1643+950672457+956212519+953952240+946515733+946092868+962221509+977597226
1630+982758376+982882544+982841833+983478203+988801971+995799630+996758068
1616+997171433+1005083955+1011846849+1012866052+1012715120+1014444425
1605+1017548171+1021610657+1026723482+1031807960+1034686968+1036726579
1593+1041013728+1046163871+1049590138+1051077967+1049967316+1045862008
1582+1041437799+1037439471+1030921671+1026380833+1029069555+1029861833
1570+1027777892+1031157643+1037223025+1040748430+1038120924+1024684323
1558+1020477163+1041286792+1059043187+1068342816+1072662911+1072399723
1547+1066819177+1056652633+1045074028+1035631308+1039522884+1052556749
1535+1058239525+1058554356+1063438220+1067805961+1064781903+1059339999
1524+1053325958+1046526952+1047198831+1054167993+1062133816+1068310474
1512+1068423861+1060238049+1045840522+1042484293+1058902961+1072013046
1501+1073741823+1067709009+1062981731+1064386782+1064156539+1057963672
1489+1054608272+1061141527+1069778174+1073409728+1072140079+1068163161
1477+1062114063+1054208251+1046277259+1046345261+1053513152+1054736738
1466+1048934694+1045781341+1044361438+1035177608+1019216560+1014070715
1454+1021366769+1025117064+1022700199+1017615269+1012211060+1006546001
1443+1000659972+992860008+979556924+964051309+956117829+953420436+950374062
1429+947683153+944506579+941021056+940803027+941539817+940597437+946170370
1416+959115199+970606427+976902881+979822976+981389438+982270299+985863857
1402+991216800+993516960+993894666+995095635+999739305+1009308908+1017464714
1389+1018511359+1016269475+1016939922+1018750422+1019766986+1021699844
1377+1023937204+1025720036+1029241521+1033244825+1035046128+1035861550
1366+1034742003+1030071946+1027091613+1029893497+1034320571+1036317511
1354+1035983984+1034535735+1032759914+1031297190+1030105721+1027189998
1342+1020211035+1011894571+1007500896+1006958386+1007129899+1006794714
1331+1005844041+1004852884+1004946293+1006050083+1007550201+1009061929
1319+1010263274+1013467441+1019571197+1023538992+1023713672+1024969450
1308+1028586001+1032034282+1034324491+1035931512+1037324199+1038468022
1296+1039198102+1038619632+1036872083+1036071663+1038434171+1045588191
1285+1053973033+1058177178+1059775529+1061987860+1064000406+1064237659
1273+1062983616+1061339201+1059942142+1057656004+1052879043+1048183429
1261+1045757216+1043337260+1040551736+1039163347+1038261000+1035275013
1250+1030122382+1025447500+1023144022+1022497399+1021590905+1019917842
1238+1018036701+1016226955+1014669465+1013706504+1013825244+1014874527
1227+1015871339+1016156314+1015446363+1013874021+1012987355+1012933149
1215+1012047086+1011750274+1013547656+1015423143+1015813966+1014975249
1204+1013931619+1013346289+1013118911+1013128184+1012029369+1009043835
1192+1006432689+1005657752+1005057116+1003232745+1001184162+1000037926
1180+999160232+998344583+998375267+997976377+995370433+992285760+990890586
1167+990414420+989952277+988981550+987148735+985738633+984469285+981992711
1153+979431549+977532164+975981384+975032747+973430701+969133676+963283910
1140+959456265+958368533+957349029+955633068+953949300+951324131+948188645
1126+946091436+944050694+940850674+937318634+934078959+931013662+928783690
1113+926671100+921815734+914766055+910370343+910238184+910802556+909626768
1099+907360684+905165392+903531305+902459405+901381322+899241366+897405384
1086+897799525+899561625+901826653+904421665+906900350+908773500+910011636
1072+911352378+912575889+913110105+914382544+917490663+920083414+920527991
1059+920396585+920160689+919556510+919398718+920361830+922746654+926486545
1045+930138078+930667394+927596743+925454375+927743152+931661039+932261975
1032+929207459+925512275+923701021+924412480+925089184+922793698+919327399
1018+918013194+918204082+917512149+914645958+910305658+907165649+906116064
1005+906309290+907227017+907543506+907330905+907526317+906868536+905772586
991+906631885+910186692+916112678+922837952+928804196+933739928+936414402
978+937180595+937531160+936223137+934164452+933733746+933945970+934635792
964+936547692+937828650+936702016+934239239+933001480+933494307+933682933
951+932904377+932636590+932798303+931988007+930918067+930864464+930439790
937+927892424+924622291+922657241+921550812+919976736+916933905+912422696
924+908771841+907799456+907683506+906847426+906736753+907024820+904876722
910+900443994+896951308+895791201+895615240+895299882+895124976+895727948
897+896887754+897881022+899240839+900595981+899874344+898178211+898317457
883+900656745+904214417+907195654+909014674+911257160+914348317+917311008
870+919402714+920522035+921704910+924720299+929332682+933323095+937330169
856+943646300+951293372+958215340+965633828+974661148+982372830+987789327
843+993440514+1000265681+1008296415+1015804166+1020843259+1024856289+1028048016
829+1029580401+1031200012+1033520528+1034937264+1034230630+1032443426
818+1031987841+1032175337+1031825451+1032264223+1033446118+1034731976
806+1034818223+1032248918+1029391698+1027329772+1024981361+1024299304
795+1024233489+1020095462+1013340860+1007928962+1002891302+995731930+987361185
781+981434069+978341028+975402009+973083755+971629701+967605890+960600164
768+954111238+949693362+946481280+944145912+944208863+946153181+946425415
754+944780096+942810899+940802575+939412678+938039216+936619615+936887778
741+938743286+939402424+936606346+931811593+927772252+924139718+918974873
727+913996621+911386229+909691981+908247652+907506941+907037636+904895796
714+900041409+898056230+903995936+913326325+918934389+920590565+921344016
700+921674528+921259051+920944070+921338437+922123326+923437682+924410369
687+923853536+923721150+926476669+930493317+931039144+928365348+927380524
673+929644497+930604744+926221397+926474708+934649513+937239927+932645486
660+926364940+924031985+926421030+928467804+927136561+927869129+935489211
646+942177620+942776596+941283716+936921478+929948622+923992782+921521334
633+922600397+922796940+921909519+924389335+925054354+919063683+917080464
619+922889293+925587891+920140484+910933434+905397066+914342512+947025598
606+988871933+997916894+971161903+947545339
##END=
