##TITLE=Sample description
##JCAMP-DX=4.24
##DATA TYPE=INFRARED SPECTRUM
##DATE=13/9/2023
##SAMPLING PROCEDURE=Instrument type and / or accessory
##ORIGIN=Default
##XUNITS=1/CM
##YUNITS=ABSORBANCE
##RESOLUTION=4
##FIRSTX=4397.6552
##LASTX=599.8556
##DELTAX=-1.9287962
##MAXY=1.6644422
##MINY=0.24996519
##XFACTOR=1
##YFACTOR=1.5501326e-009
##NPOINTS=1970
##FIRSTY=0.29497245
##XYDATA=(X++(Y..Y))
4398+190288530+190418861+189615113+188567045+187856541+187431058+186532893
4384+185306834+185170448+186646940+188458362+189296755+189103153+188847086
4371+189360142+189722123+189239232+189176960+189359930+188708296+188122836
4357+187937405+187729075+188058007+188472301+188182032+187682953+186956954
4344+185995036+185523142+185492227+185733913+185979502+185418535+184379965
4330+183649256+183254168+183496354+184142259+184001489+183581601+184520236
4317+186184082+186479369+184941970+183213391+182809710+183162481+183144351
4303+183142525+183726908+184499684+184893214+184548920+183784277+183435870
4290+183767205+184275205+184431817+184646125+184957120+184633033+184479016
4276+184815657+184460502+183927105+183598250+182833376+182605245+183386479
4263+184056109+184453503+185097044+185266960+183896651+182278485+182310208
4249+183240518+183897555+184090292+183767590+183614130+183638105+183127740
4236+182414199+181859597+181662053+182297442+183431813+184202686+184581200
4222+184785684+184406920+183697262+183524520+183772992+183875273+183858142
4209+183933161+184119708+184490763+184738562+184331171+183623493+183213583
4195+183044935+182896686+182709006+182570927+182592171+182441269+181756989
4182+181308262+181764891+182266450+182191854+181989139+181945689+181903258
4168+181637694+181329641+181318817+181490829+181671647+181770505+181641655
4155+181331795+180958855+180738875+180943321+181417983+181807130+182056083
4141+182286868+182375190+181908757+181134443+180959086+181298015+181523590
4128+181700062+181645173+181324758+181737514+182789946+182888419+181902143
4114+181222497+181374129+181642616+181131348+180010107+179463310+180146148
4101+181332083+181901143+181602146+180764311+180409386+181384473+182422389
4087+182397319+182219924+182392609+182302710+181723479+181135943+180972044
4074+180902947+180432437+179983595+180202902+180855921+181268581+181128964
4060+180685063+180381412+180545119+180895468+180917962+181100779+181381281
4047+180814451+180127634+180433418+181169934+181318952+180890431+180678622
4033+180632807+180347960+180484404+181270407+181668321+181243433+180709210
4020+180667971+180926844+180926748+180706384+180508725+180479060+181287268
4006+182787908+183657138+183498027+182841432+181994830+181195619+180862189
3993+181466316+182760319+183584677+183514465+183222273+182915624+182385245
3979+181890723+181720999+181977392+182516172+182786619+182653616+182536686
3966+182583327+182856428+183594097+184054898+183417452+182773277+182924756
3952+182771797+182089478+182231632+182507694+181482505+181143152+182945866
3939+184723528+184461559+182225230+180403887+181545545+183758284+183282430
3925+181353308+181138500+180974178+179856840+180822641+184433874+187223729
3912+187682991+186637096+183090885+176307245+170613374+170719845+175786172
3898+182567889+186432920+184612115+181010092+181344022+181765372+179508433
3885+178694207+178412666+178708934+182281850+183300675+179758924+175504401
3871+172422816+173732122+176519535+176385397+177962190+182329606+183633894
3858+178877081+167935970+161254072+171772239+183917857+188135448+185593316
3844+180230241+175193618+171154518+170456223+174439857+178783395+181737418
3831+184100155+185011836+184559994+182164862+176088919+173109691+176623315
3817+179424917+183496969+189341628+191239527+187314993+182248859+180531796
3804+177879212+176466107+180857190+184655469+187888514+192646422+195549151
3790+195858857+195200551+194506793+194629857+194135777+192608952+194007292
3777+198118699+199893208+197267925+193592267+193700027+196549078+199934255
3763+201687904+199701048+199069946+203207558+205484626+203288498+208152340
3750+231894474+258906872+280954802+301958201+312882125+309979397+297308110
3736+283444813+280589188+288256362+296047772+299651141+302547968+308498040
3723+317395791+328522815+340585418+350942550+356176505+358017132+368263601
3709+391285560+419357831+447629280+473348753+491581139+498578049+496930179
3696+490492582+479434444+463753341+450437534+447435870+449537273+448407073
3682+441899995+431527020+417747797+403278719+398661754+398250594+393797239
3669+393546459+396994197+396397856+392236000+387020309+379966068+371473402
3655+365059645+356802147+342177379+331761147+335705868+342836512+344792146
3642+342618954+339323638+335416753+330065329+323103755+314019458+303643138
3628+301377029+306435954+307407119+301417384+292112049+286717463+285385721
3615+283024387+280152880+277669925+275472951+275544432+276123394+273809009
3601+270037722+267457062+264934463+262082817+260798985+259136773+253901626
3588+249368119+250664063+253187700+253223287+251644552+249552877+247195504
3574+245013680+242275061+236636271+229607947+227941332+231210405+233197397
3561+233158753+233066239+232465110+229991960+227441176+226722271+225280616
3547+222338974+221344623+222756152+223728009+222910534+221240401+220174184
3534+219432324+217592082+215041856+213528508+213013895+212641994+212713340
3520+213255581+213630731+213538851+212563534+210568391+208940323+208557137
3507+207933918+206514468+206114440+206921168+207124287+206568473+206211779
3493+206038575+205502372+204593248+203877111+203472507+202925229+202475176
3480+202587415+202792130+202566152+202129979+201956622+202071975+202158068
3466+202022892+201578222+201033059+200713260+200547131+200498336+200527194
3453+200159830+199037436+197654861+197147726+197685853+198420350+198964551
3439+199124451+198982873+198918333+198842045+198615490+198369190+198329816
3426+198115988+197076361+196031523+196210918+197288823+198247857+198736458
3412+198916872+198866347+198717636+198723269+199097131+199720696+199873733
3399+199454325+199344835+199746036+200246364+200589965+200632396+200744021
3385+201118902+201450371+201823811+202329965+202684236+202671066+202505226
3372+202745239+203481236+204200506+204569677+204715100+205029055+205590656
3358+205901631+205849222+205860680+206156832+206596927+206556976+205927701
3345+205654716+206019484+206348704+206283895+206056705+205913955+205668424
3331+205244017+204759011+204056371+203178182+202443146+202033716+201773363
3318+201206129+200228600+199024016+197818375+196945530+196360974+195675521
3304+194734791+193549048+192307743+191617177+191612755+191605930+191311085
3291+191072283+191071783+191031371+190847285+191065016+191614677+191631711
3277+191193289+190994881+191343173+192312646+193195988+193180492+192900393
3264+193324838+194025479+194140795+194001985+194166672+194475283+194824286
3250+195090831+195045804+194769954+194626223+194768262+195006949+195545402
3237+196383449+196873818+196959315+197215574+197824373+198380533+198916372
3223+199907397+201026196+201564514+201647338+202104601+203125907+204174897
3210+205292158+206689691+207896312+208520531+209069827+210082962+211143430
3196+211805562+212414516+213373088+214572500+215801462+216859084+217708801
3183+218602621+219382337+219884838+220327874+220849812+221505081+222105248
3169+222760555+223900002+225288191+226413046+227143948+227655908+228304505
3156+229268844+230173758+230569114+230686122+231187777+232250168+233234425
3142+233576700+233592503+233789086+233855626+233434411+233181266+233465979
3129+233604039+233289315+232994643+233098500+233390557+233380560+233061202
3115+232530016+231611107+230821893+230654265+230408907+229453488+228094387
3102+227106650+226825821+226606167+226085883+225831950+226024687+226194488
3088+226251281+226425735+226665652+226879710+227139103+227452173+227649467
3075+227656177+227821671+228433105+229177157+229545925+229599891+229784977
3061+229905156+229628595+229492497+229855227+230165183+229978214+229518951
3047+229088565+228579778+227801369+226931158+226283984+225689103+224674623
3034+223138185+221348911+219817971+218938705+218384544+217692805+217073701
3020+216791737+216643469+216307981+215562256+214439112+213185695+212060610
3007+211258054+210852200+210745671+210670594+210739211+211374926+212599716
2993+214576576+217558187+220867365+223542289+225459607+226820264+227482858
2980+227678844+228127859+228799431+228726450+227430391+225808572+224750372
2966+223857725+222692688+221592231+220788521+220302900+220149825+219983447
2953+219566769+219345001+219587225+219934652+220086208+219953320+219674375
2939+219454664+218987115+217938163+216688015+215826763+215519114+215582712
2926+215713870+215689184+215433752+214866133+214112103+213627520+213603296
2912+213798244+214102605+214528896+214984371+215423466+215763395+216003254
2899+216299541+216646949+216954136+217243098+217628707+218124383+218631037
2885+219110486+219562232+219962106+220219249+220369152+220487120+220507365
2872+220465242+220349849+220152344+220071423+220057158+219778847+219252237
2858+218813738+218616521+218490651+218039002+217209857+216534728+216394496
2845+216673864+217207030+217923206+218549770+219003092+219518147+220184951
2831+220980547+221615763+221851219+221872810+221870599+222029057+222465787
2818+223015660+223442854+223730393+224044810+224513762+225157860+225855155
2804+226460072+226950941+227473341+228095156+228651720+229042232+229270363
2791+229485210+229698922+229643264+229360974+228985977+228603233+228374198
2777+228204012+228078795+228023060+227894479+227771512+227624012+227326188
2764+227147216+227338281+227742192+228051437+228166157+228134204+228014024
2750+227990684+228055551+227916069+227586849+227353373+227261263+227181418
2737+227102882+227075177+227025191+226823590+226480970+226120796+225942286
2723+226121931+226485276+226677918+226538608+226109415+225696698+225610509
2710+225792537+225975470+225941575+225729785+225574326+225521840+225417060
2696+225188140+224891219+224608814+224472023+224565671+224682755+224554770
2683+224269500+224009223+223711667+223289664+222746193+222088310+221422718
2669+220991640+220835470+220554199+219949571+219415386+219217246+219122714
2656+218840481+218452200+218215955+218220607+218465388+218725358+218747083
2642+218645341+218496842+218334808+218342921+218443952+218485306+218612542
2629+218911135+219149168+219116542+218971927+219057866+219505151+220103107
2615+220511883+220707062+221054450+221739345+222484570+223007297+223351167
2602+223742986+224269577+224801070+225374149+226106435+226829896+227397150
2588+227779932+227961096+228126917+228435566+228802757+229103869+229315255
2575+229621712+230110986+230466430+230564712+230713557+230914657+230850770
2561+230571133+230348231+230278192+230361958+230505650+230593069+230632924
2548+230688640+230750335+230722631+230664031+230756987+230947687+231048583
2534+231119391+231253606+231283655+231240917+231349734+231493157+231510864
2521+231484140+231519862+231699449+231976452+232180109+232266010+232301596
2507+232376980+232607380+232916606+233129549+233299389+233524021+233828056
2494+234185077+234469905+234736411+235099237+235499919+235975755+236459068
2480+236772889+237002482+237112625+236999309+236888089+236856847+236704003
2467+236398104+236107220+235993961+236092108+236278732+236402987+236460164
2453+236515842+236630696+236826490+236950322+237019227+237331836+237839567
2440+238207719+238407993+238565086+238657792+238661233+238557626+238437024
2426+238517887+238729523+238860392+238950253+239073028+239151718+239161927
2413+239210299+239329363+239513987+239772515+239982555+240072647+240232085
2399+240613868+241028931+241244124+241321526+241428094+241523069+241418135
2386+240931591+239752578+237588018+234441374+230482522+226089805+221756398
2372+217509085+213080262+208611372+204553297+201413439+199575427+199198816
2359+200598771+203971182+208968816+215552412+222564280+226420121+225017993
2345+220649923+217911190+217725969+218521931+219881897+221735846+223589911
2332+225159436+227119550+229809355+232507388+234952757+237726655+241011897
2318+244259976+246984329+249243767+251519297+254057776+256600274+259007749
2305+261279588+263241086+265007905+266839188+268579398+270046316+271316036
2291+272537404+273781843+274955319+276046106+277056415+277773013+278226066
2278+278779169+279532199+280267004+280871920+281381285+281821187+282279200
2264+282872158+283530541+284009260+284247504+284526622+285009994+285476658
2251+285800995+286051217+286113566+286050602+286201196+286528821+286778697
2237+287001714+287336356+287689012+287909377+288003256+288025039+288003890
2224+288032037+288198512+288454078+288703801+288905978+289095312+289383658
2210+289854841+290446453+290965450+291407659+291935153+292513538+293108995
2197+293827112+294612250+295254079+295795089+296493923+297316358+298129123
2183+299064490+300126515+301063901+301849653+302643962+303392859+304126702
2170+305104654+306262596+307342213+308418888+309630989+310771475+311593776
2156+312325389+313358595+314607763+315816307+317018334+318248238+319411717
2143+320545378+321715682+322839441+323957067+325244187+326676883+328118307
2129+329553849+330997081+332326343+333608118+335109104+336702334+338268341
2116+340044369+341979432+343805100+345500958+347266642+349295565+351572575
2102+353940100+356345076+358875288+361537388+364328570+367407021+370855605
2089+374465453+378008396+381697339+385865770+390397142+395103546+400121558
2075+405510703+411097372+416835694+422685293+428463181+434297207+440572155
2062+447336050+454365451+461545928+468867867+476339458+483990079+491753478
2048+499368685+506777831+514282145+521986367+529648369+537063706+544291094
2035+551443347+558673848+566124446+573388015+580059089+586399673+592565881
2021+598253715+603353514+608332883+613689767+619141357+624047246+628344719
2008+632245721+635857915+639365329+642609928+645421335+648203673+650820746
1994+652490226+653588088+655170821+657208126+659258350+660857695+661470455
1981+661358408+661560431+662816020+664448817+665300745+665039737+663811064
1967+662613074+662441351+662549783+662302388+662180497+662051224+661632104
1954+661379864+661560739+661891420+661993470+661729771+661427005+662395901
1940+665090262+667821998+670023567+672591807+675670758+678850990+682161956
1927+685354031+688037626+691784630+697387295+703278345+710009787+718178693
1913+725750220+731931269+738127930+745313483+752776884+759951131+767199051
1900+774494420+781150729+787240649+793237055+798113606+802385470+808563752
1886+815281966+820264950+824124617+827060606+829049769+830656189+831897782
1873+831518729+827836323+823582837+823845537+826379325+826320341+823237622
1859+819596205+816965134+814437114+810975418+806865357+802036179+795488611
1846+787190354+781068443+779648897+778109383+774151665+769859729+765245109
1832+757995343+749690396+745402536+743650847+741456584+740159237+738917567
1819+736370782+733541303+730777268+727261433+724128497+723286105+723347320
1805+721907933+718380255+714540737+713433416+714404773+713356129+709254219
1792+707493917+711548301+715665361+716155000+714937401+714073169+714505208
1778+716186915+715780715+710838951+705537206+706974209+713260462+719099449
1765+721406682+720193696+719869628+721636313+723392846+725093240+724353514
1751+720305051+718721011+722550531+727086019+729134859+729836288+731880129
1738+734057012+731711405+728418741+733485010+742351039+749872271+754705448
1724+756539961+756253806+752771808+746904829+747212593+756436373+766529998
1711+773663564+776251107+774905388+774548791+774992826+772354297+772395978
1697+779586298+791531432+804172226+811256036+813490289+812680811+807908157
1684+807917231+820591940+833791355+840835022+843198702+846039793+849598924
1670+852727862+860863008+871387596+876736097+879510129+885710713+891772563
1657+891130349+881795830+876187935+885871285+891554467+892842817+903013576
1643+916428088+922547847+920610977+913394817+910392231+919008787+927409555
1630+929672492+929750548+929782001+929742243+933310910+937928913+937247402
1616+936077636+942055509+948606230+950664529+950662068+951747703+953220158
1603+953605209+954056474+955880681+958388938+960925264+962846599+963412372
1589+963848256+965332939+967452606+971093716+975889057+976525195+970588081
1576+967324948+971809218+973318124+971658489+976116381+984224534+988730337
1562+985126602+970030921+961830639+979274157+997577832+1007390686+1012243165
1549+1017041198+1020600098+1018742823+1012163956+1006855520+1015508067
1537+1031978306+1040297095+1042715991+1047788412+1051210118+1048170311
1526+1043487170+1039634579+1037005277+1039903046+1046248206+1053508738
1514+1059461233+1059269515+1051721136+1040193507+1040630699+1058498566
1503+1070171156+1070646184+1067304303+1067113969+1070508759+1070622421
1491+1063614207+1058382981+1064023021+1071962373+1073741823+1071278554
1479+1068358100+1063764167+1055856268+1048563821+1049898774+1056373746
1468+1056602070+1049230337+1043112039+1041593597+1037027195+1026027810
1456+1019736713+1022922866+1023139577+1015759616+1006368496+1001875690
1445+1000293572+997016827+991088710+980512905+965533885+954999685+949659488
1431+943573567+939128518+938441546+937818097+937236866+937507333+937100595
1418+940215075+948593156+957346753+964032438+968116045+969650253+970593310
1404+973855674+978767292+983057152+986670192+990102587+995481466+1003180420
1391+1007591017+1006240145+1004840363+1007305785+1009856107+1011789286
1379+1015963484+1020431297+1022872033+1026028887+1029550182+1031333938
1368+1032584529+1031981843+1029380534+1029578097+1032795396+1034509018
1356+1033852038+1033565345+1033854038+1031520120+1026512450+1022407080
1344+1020389770+1017043505+1010094044+1003256630+1000672548+1000975467
1333+1000330946+998206280+997172401+997390420+997742250+999050748+1001512709
1319+1003684440+1004965868+1006665263+1010008759+1014542862+1019326129
1308+1022815971+1023889224+1023917448+1023755952+1023469644+1024599267
1296+1027969063+1031300178+1031384463+1029241033+1028961723+1031799430
1285+1035364483+1038132363+1041439561+1045410505+1047144660+1044338944
1273+1039062192+1035047336+1031731679+1026930339+1021669891+1017680182
1261+1014457654+1010929130+1007514499+1004634418+1002061256+998874026+993742389
1248+988128650+984867363+984185698+985299633+987739292+989596645+989035486
1234+986920664+984871670+983718284+984360421+986096114+987259574+988590220
1221+989985618+989330869+987475516+986452634+986872523+989105006+991894034
1207+993042960+992536325+992326612+993484765+994661145+994121519+992408129
1194+991435695+991643178+991062255+988016372+984659957+983794802+984150554
1180+983564786+981418587+977711034+974430214+973141095+972629077+972106293
1167+971309658+969541359+967582187+966030599+964070428+961655531+959500950
1153+957647289+955542771+953144332+950658992+947835819+944957968+942460478
1140+939720668+936494141+933549231+931125337+928906849+926607306+924368517
1126+922616213+920608131+917836406+915640759+913944825+910755519+906009318
1113+901525664+899180210+899067778+897257260+891311916+885026740+881566275
1099+880495714+880884533+881495064+881926103+883034347+885012052+887105880
1086+888304100+888660775+888476439+888135607+889348284+892123162+894929955
1072+896765467+897070924+897418755+899306254+902362211+905539059+907185852
1059+907081187+906170737+905342034+905933800+907329968+907702561+908724366
1045+911984500+914935408+916457927+916443007+914000580+912379933+913531704
1032+914456997+914119471+913133425+910840266+908007711+906141207+904600847
1018+902662977+900407807+896742089+891764796+887726408+885168857+882625302
1005+879777828+877469595+875954613+875215501+875330010+876619513+880226478
991+886789041+894962408+903175456+911180713+917999748+921666081+921942315
978+920185244+917416595+914145849+911450257+910212817+909321977+907371034
964+904609767+902178106+900949432+900330212+899152218+897589171+896635040
951+896765006+896908737+895937072+894531676+892829206+890092625+887145716
937+885163089+883785839+881496448+877286720+872305890+867788860+863420174
924+860025769+858142269+855697765+851910310+848127546+844201128+839040268
910+834080894+831180049+828949719+825867769+822379926+819249220+816542093
897+813854961+811460367+809149750+806941183+806223527+806890504+807962065
883+809507655+811209587+812710880+815073945+818723744+822345551+825610376
870+828989708+832454249+837167074+845105426+856091968+867901676+879979466
856+893238866+907686411+923499824+939556942+952666151+963355926+975894209
843+989708769+1000028873+1007147750+1013801905+1018856485+1021745333+1023782022
829+1024835358+1025655755+1027191731+1027499573+1026835518+1027906542
818+1029725750+1029771892+1026957640+1023597071+1025001390+1030766320
806+1034588997+1033757448+1029873096+1024456843+1017874438+1011161068
795+1007744822+1008972573+1008902207+1002263817+992644373+983957143+976466672
781+970223870+964202854+957328604+949092178+940271983+933448027+928294935
768+923512052+920444175+918635656+916436317+914104629+912828814+913180490
754+913470105+913088668+913871691+914557816+912687544+910239194+909431563
741+908697143+906892007+904271780+900706343+897478739+895791957+894539597
727+892005348+888007487+883572665+879355171+876980033+877453445+878289069
714+878089046+879177218+883847131+890661243+895691599+898491701+901372704
700+903688474+904827632+906807876+910231197+913420272+913579999+910743291
687+909011828+910353318+913657594+915975901+915748961+915786182+917421209
673+917858477+913079670+905631265+906892853+913192717+915134740+915290929
660+916432933+917763041+916277359+913856849+915046840+918717788+920520232
646+918702715+916566667+915595848+914877270+917474503+916007200+898177169
633+884238565+898422873+925386400+935844929+929493924+921119534+918310050
619+917076531+915926222+919067310+921064856+921456214+926733427+935236090
606+941882939+942955654+941910240+942164326
##END=
