##TITLE=Sample description
##JCAMP-DX=4.24
##DATA TYPE=INFRARED SPECTRUM
##DATE=13/9/2023
##SAMPLING PROCEDURE=Instrument type and / or accessory
##ORIGIN=Default
##XUNITS=1/CM
##YUNITS=ABSORBANCE
##RESOLUTION=4
##FIRSTX=4397.6552
##LASTX=599.8556
##DELTAX=-1.9287962
##MAXY=1.6542331
##MINY=0.27707115
##XFACTOR=1
##YFACTOR=1.5406246e-009
##NPOINTS=1970
##FIRSTY=0.304299
##XYDATA=(X++(Y..Y))
4398+197516638+196787473+196419409+195973832+195269080+195114751+195355859
4384+194606808+193039184+192027593+192307195+193616457+195217721+196367431
4371+196541278+196266241+195939960+195219849+194761157+194714169+194124632
4357+193264642+193024521+193013630+192373643+191970527+192674254+193477816
4344+193787461+193824641+193695053+193352872+192609489+191543908+190236580
4330+189206728+189181290+189486505+188962409+188090116+188062686+188732986
4317+189097587+188526447+187183081+185808706+185476100+186912783+188477718
4303+187992041+186429833+185787002+186140732+186526960+186411997+186004625
4290+185815728+186352765+187708085+188658955+187972058+186705431+186258403
4276+186306648+186417278+186506958+186178221+185453003+184506621+183429994
4263+183138050+183864197+184446170+184339332+183592080+182618036+182202985
4249+182352980+182409176+181815557+180876255+180552470+181318601+182435581
4236+182706420+182452778+182345127+182466048+183333930+184179896+183831234
4222+183172347+183150624+183340140+183436939+183597690+183458779+183136851
4209+183096537+182726248+182112608+182403721+183383510+183541766+182348260
4195+180889622+180631298+181969015+183305088+182959250+181715759+181517442
4182+182384686+182606739+182016834+181832754+181973213+181796793+181528797
4168+181518680+181879548+182405771+182481891+182121816+181784548+181689993
4155+181981454+182341238+182504717+182361415+181892238+181913594+182530503
4141+182735611+182396911+181753597+180695850+179843385+180096757+180987504
4128+181260801+181029404+181289411+182160640+183146117+183697023+183573084
4114+183075084+182662934+182513867+182382539+182313750+182770005+183620342
4101+184156257+184380728+184847603+185049481+184281879+183299343+183163778
4087+183987188+185165140+185786325+185661535+185733689+186390003+186931992
4074+186766675+185980135+185570230+186198997+186889067+186844110+186666801
4060+186882722+187415406+188120313+188678048+188807713+188693311+188263190
4047+187387279+187139885+188295708+189781544+190275907+189868787+189720416
4033+190170636+190442501+190323707+190297534+190583250+190884131+190757368
4020+190390677+190418572+190837898+191271250+191624960+192055449+192622063
4006+192767513+192403569+192335516+192502960+191937023+190595998+189922680
3993+190737985+191972171+192845199+193728519+194604332+194920032+194583885
3979+194183071+194251279+194653951+194955025+195328235+196063996+196814710
3966+197283307+197596162+198158985+198637544+198270563+197647367+197543565
3952+197580107+197264775+197191208+197194826+196590374+197474487+200144814
3939+201594032+200943018+198711226+196942034+198598913+201560682+201718725
3925+200412017+200306494+199568760+197904337+198989185+203581079+207446402
3912+208283565+207121514+202860833+195041978+189359355+190126124+195541951
3898+202943162+207305130+205077575+201206101+202447329+203430310+200710519
3885+199878501+200187352+201441676+206654484+208434625+204378065+199815168
3871+196677675+198248085+201739578+201917894+204155296+210251656+212898402
3858+207542485+193784385+184531730+196502841+211813167+218058265+215619760
3844+208797176+201903870+197032837+197166448+202593088+207651200+211073905
3831+214414068+216106366+215621830+212162777+204131038+200770100+205952673
3817+210133094+215802041+223187622+225253614+220770183+215720331+214375302
3804+211584498+210287307+215555846+220558595+225485107+231512563+234779933
3790+235202548+234321163+233086590+233247302+233597918+233320424+236266060
3777+241628883+244225992+242525782+239863966+241132972+245348562+250212766
3763+253305361+251786600+250945722+255116936+256918472+251563696+249275534
3750+263884745+282595279+300713509+330726169+359598908+372090884+370512388
3736+365620792+371543285+387909772+403466389+412616249+418842099+426922373
3723+438652028+454710012+472657548+487428322+495058453+499501764+512930547
3709+536231930+558954222+575871248+589153478+605311781+623442779+636166267
3696+641307250+639080758+631326901+628057093+637855451+651154278+656690078
3682+653023558+644631376+634890200+628240632+632643591+638037017+636149128
3669+638442551+645515721+648370825+648002510+645324831+637078042+626750578
3655+622165861+617668037+604977202+592635028+594569343+603012555+608113766
3642+609565595+609005345+605469399+598519297+590265118+581462876+572494041
3628+572992196+580073645+580713826+573418351+563008326+558405463+560025394
3615+560000053+558241230+556179513+553104774+552510632+553907756+553263706
3601+551335233+549220165+545678841+542446097+542667396+543491928+539980548
3588+536552349+539301563+543023447+544122281+543443180+541834275+540899055
3574+541127859+539771320+533402322+524555975+523010442+528965704+533958548
3561+536224425+536717163+534640861+531073267+529644109+531090754+531095126
3547+528050331+526141744+527670022+529719397+529750000+528578083+527792510
3534+527708711+527656520+526491218+523974020+521952076+522378811+524158604
3520+525053936+525273068+525097925+523561174+521430166+520488833+520574219
3507+519777930+517836225+517646690+519659813+520305062+518809941+517413552
3493+516664153+515456333+513927978+513221253+513229339+512962619+511916982
3480+510807083+509960731+508333062+506558028+505694343+504669017+503292282
3466+502304446+501547464+501112797+500945314+500389127+499369527+498417477
3453+497559131+495645940+492457185+490147939+489508106+488889553+488218150
3439+488418248+488986119+489318339+489159251+488039177+486148657+484344916
3426+482914327+481359470+479701121+478525606+478023853+478357658+479091117
3412+478725046+477007503+475506384+474816063+474357758+474395595+475104332
3399+475471951+474613567+473174737+472664705+472799999+472254915+471593843
3385+471540839+471133874+470042003+469704252+470722420+471710760+471512403
3372+470205192+468774293+467814428+466553295+465331818+465371010+465914740
3358+465651618+464934602+464563346+463896973+462452882+461250130+460977336
3345+461208346+460694136+458903974+456776913+454930885+453730570+453268667
3331+452486306+450872178+449133975+447191071+444492656+441644361+439466694
3318+437610414+434971734+431338756+427868929+425814408+424692593+422846256
3304+420766007+419436240+417866411+416078029+415636553+416659171+417052789
3291+416079770+415376643+414911219+413872159+412910321+412444433+412229014
3277+411937147+411505769+411205042+410825275+409634323+407472751+405231210
3264+403557114+402050425+400613374+399610294+398787774+397691377+396380143
3250+395332648+394422344+392797963+390433198+388090138+386335686+385370986
3237+385183307+385582922+385625982+384461223+382536851+380737017+379704379
3223+379525754+379690954+379694862+378954207+377565363+376611572+376294093
3210+375945393+375617777+375567134+375174522+374069072+373118299+372835562
3196+372783178+372810763+372774744+372226139+371145450+370013614+369609589
3183+369872517+369488880+368428193+368324121+369190823+369029453+367833162
3169+367652912+368047342+367511969+366670724+366066949+365487548+365308846
3156+365916025+366569901+366293819+365668882+365246093+364500099+363914895
3142+364049840+363938379+362837455+361084938+359466786+358675333+358508121
3129+358335144+357953519+357390561+357208570+357662233+357317672+355631815
3115+353995944+352998784+352810486+353158645+352653681+351176201+349508412
3102+347976304+347197579+347396129+347957231+348322451+348608244+349134409
3088+349892513+350785717+351319001+351393709+351918791+352997468+353947313
3075+354600570+354885976+354626375+354028984+353469469+352907362+352372879
3061+352080045+351612764+350610767+349785461+349793199+349968110+349836260
3047+350060267+350908128+352008432+352842249+353248093+353630840+353943366
3034+354019970+354289862+355017014+355729852+355806765+355266788+354661272
3020+354628697+355319056+356465903+358121467+360205081+362226717+364163005
3007+366458478+369459477+373419374+378307991+383811989+389927770+397287932
2993+406561982+417131366+427926729+438976432+449684244+458491283+465171144
2980+470308452+473933885+476325655+478220120+480082204+482186246+484527875
2966+487089990+490613440+495418180+500734964+506499221+513068239+519364851
2953+524503165+529341989+534244109+538387776+541005565+541627329+540659534
2939+538342975+534207355+528911308+523235455+517244831+511417125+506104713
2926+501759516+498927896+496481692+492773387+488158299+483331932+477875792
2912+472385489+468007407+464103841+459604006+455209482+452149057+450286858
2899+449162063+448912599+449537149+451149227+453859752+457376470+462060579
2885+468211103+474847092+481105750+486787097+491721096+495740882+498755229
2872+500581448+500235417+497461559+494336562+492062948+488809428+482986288
2858+475393336+466898785+457426959+447168245+436380155+425364575+414729112
2845+404452292+394509200+385627375+377739577+370146316+363055311+356999381
2831+351934537+347477762+343410892+339798071+336611289+333618298+330896554
2818+328911634+327658819+326566871+325503515+324920903+324866274+324789361
2804+324435283+324098653+323992550+323836441+323329775+322485879+321317193
2791+319792784+317919133+315965241+314226284+312540215+310798917+309139930
2777+307552903+305907360+304113755+302160057+300245493+298804477+297940328
2764+297188782+296113006+294935189+294179697+293655311+292959845+292405359
2750+292234143+291979630+291242457+290321551+289630379+289165033+288644864
2737+287873374+287229460+287048726+286904824+286426091+285676712+284888547
2723+284411207+284202462+283788455+283028243+282264936+281807578+281612452
2710+281397363+281104626+280935208+280732112+280160333+279371491+278589439
2696+277668844+276605545+275674677+274959731+274284131+273576690+272946143
2683+272230597+271266515+270344275+269494286+268549916+267748733+267124956
2669+266405212+265602520+264874381+264213289+263514534+262743063+262043554
2656+261530098+261066414+260564836+260134754+259813599+259538930+259271088
2642+258946762+258521458+258192469+258159448+258189335+257976857+257652898
2629+257569505+257751805+257860327+257823960+257936563+258257059+258582141
2615+258886427+259314439+259875637+260423332+260830530+261130986+261523424
2602+262105765+262683115+263017965+263170166+263336837+263533607+263746279
2588+264023250+264326608+264583326+264712527+264668964+264437722+263959472
2575+263418779+263026129+262628758+262243419+261991285+261661813+261190528
2561+260833973+260706746+260608399+260386152+260117847+259888230+259758468
2548+259720573+259634316+259438881+259326181+259455401+259658768+259805339
2534+259999827+260279507+260490573+260477748+260371857+260386462+260503592
2521+260760774+261263417+261801672+262124161+262303038+262467291+262636728
2507+262837212+263190671+263746898+264290241+264665578+264915391+265095157
2494+265268657+265394549+265451867+265580506+265775033+265959829+266195385
2480+266373932+266348998+266312843+266390008+266413995+266292880+266134005
2467+266156599+266374261+266555208+266661505+266707448+266552500+266265662
2453+266078874+266096903+266314952+266572038+266687233+266753816+266900407
2440+267034754+267119888+267155810+267053769+266955442+267004673+266960297
2426+266702070+266551281+266729655+267016628+267154766+267183105+267236089
2413+267362620+267598002+267972643+268428086+268838920+269134250+269402381
2399+269739591+270069624+270314291+270555650+270835853+270962500+270760932
2386+270065698+268382936+265221843+260644128+255232441+249595102+243926407
2372+238073012+232114055+226458687+221247407+216973881+214615210+214362825
2359+215897951+219292703+224945246+233039777+241564718+246126629+244369624
2345+238863111+234942754+234153661+235164730+237275330+239627540+241289119
2332+242460321+244402316+247276397+250046792+252599197+255622964+259208490
2318+262986976+266503868+269407836+271979411+274643800+277376358+280045563
2305+282600231+284941570+286990538+288744158+290229047+291627795+293076820
2291+294498182+295930318+297367717+298529556+299178383+299414442+299591906
2278+299997886+300648667+301283412+301726010+302052503+302397412+302863552
2264+303284310+303506460+303800668+304357997+304906524+305165428+305328269
2251+305633096+305940632+306109856+306208086+306389053+306656159+306841090
2237+306995129+307219678+307380700+307482161+307568050+307582094+307698778
2224+307986893+308274465+308503386+308578093+308519500+308644483+309076268
2210+309642611+310152604+310526491+310870762+311247879+311601261+312026739
2197+312601517+313166003+313641912+314163783+314806942+315505427+316194374
2183+316927795+317745188+318495903+319056172+319519468+320082368+320825867
2170+321643396+322441716+323267641+324207059+325201279+326101177+326939946
2156+327836864+328758234+329756787+330961667+332212277+333423888+334734465
2143+336108801+337432842+338619345+339732958+340931802+342189763+343536552
2129+345053882+346581541+347947365+349254034+350683347+352204970+353699396
2116+355225739+356844510+358479182+360213477+362123302+364065006+365985664
2102+367975382+370124225+372477847+375122795+377962966+380672833+383428933
2089+386606932+390014897+393476291+397179334+401187127+405368980+409658813
2075+414187548+419177375+424568209+429991773+435144440+440247702+445883744
2062+452022816+458422959+465220898+472041354+478362146+484588422+491321016
2048+498388190+505390560+512232333+519078594+526296576+533743594+540994151
2035+548129301+555119909+561715700+568137315+574652982+580907385+586664910
2021+592196145+597571929+602999401+608808846+614400628+619124471+623554434
2008+628138068+632221923+635534675+638652746+641896323+645214375+648136953
1994+649831127+650815675+652545366+655139052+657981814+660352963+661950261
1981+663384448+664601902+665202736+665568111+665886519+665889227+665476806
1967+664953194+664833879+665050767+665183547+665200415+664973699+664546422
1954+664478795+664760989+664739788+664023430+662461492+660590511+660674001
1940+663388162+666040809+667520417+668756054+670268083+672248863+674781265
1927+677446060+679661448+682521311+686499817+690313819+695464126+702862628
1913+709712913+715039408+720683691+727833967+735586548+743022192+750385488
1900+757495374+763317470+768477371+774873374+781375926+786670077+792423617
1886+798618671+804084987+808923850+813051385+816435246+818987380+820285770
1873+819351208+815440717+812045171+814264196+819204733+821160365+819511301
1859+816563692+813899671+811414469+807937445+803195148+797793366+791106424
1846+782494182+776248987+776001999+776311121+773440193+768838723+763269573
1832+755672598+747686647+743052447+739919984+737272212+737499314+737784913
1819+735465530+732186902+728731466+724477729+720872337+719847785+720006021
1805+718819286+715230917+710953967+709494090+710041844+708136429+703363104
1792+702202755+707457521+712013648+712646284+711670635+710734525+710863048
1778+711915379+710532029+704527167+698504664+700561893+708301010+715128624
1765+717459459+715589637+715078174+717222375+718979767+720200083+718399205
1751+712827579+710518720+715053026+720893461+723647317+723627121+724437958
1738+725945808+722652555+719001742+725824094+736479404+744808988+749510506
1724+750967597+750864144+746638263+738014414+736324882+746816385+758986433
1711+766439100+767819433+765277590+764387674+764311690+760903996+761039638
1697+768784404+782032781+797325930+806029864+808265679+806273912+798918121
1684+798107053+813640303+829261298+836944472+839422246+842842243+846421637
1670+849427047+859986255+874104971+881367600+885499622+894534731+903898770
1657+904606385+894043927+890140864+906993782+917890510+921779878+934068467
1643+949688612+958043188+957638118+949942641+946530150+958328091+970773060
1630+975566348+977206823+979016135+981362368+986898555+991434719+989211748
1616+988533459+997616387+1006280394+1008330118+1008157025+1011091325+1015022011
1603+1017049373+1019644296+1024077702+1028080737+1030951587+1034342258
1591+1038664861+1041580203+1041106422+1038726298+1037198330+1036012678
1580+1030527251+1019415337+1015161755+1024004968+1029207272+1027191750
1568+1029646465+1036638041+1040676592+1036976954+1023136486+1020471536
1557+1042624177+1061346530+1070704921+1073193450+1072476396+1068529614
1545+1056608721+1038449288+1024097588+1030971783+1048282156+1054055969
1533+1053246835+1057038397+1060313002+1058415016+1053764875+1045164317
1522+1037134416+1039784819+1046979742+1053559207+1058926789+1058450222
1510+1049997300+1035186444+1033295112+1053838152+1068409215+1069413185
1499+1064177376+1062719280+1067045751+1067705315+1061587870+1058436217
1487+1064665859+1071641263+1073741823+1072849741+1069783203+1063817959
1476+1055702479+1047214582+1045991016+1053056719+1056285826+1052516548
1464+1050050922+1048994723+1040953757+1026152651+1020924735+1028735039
1452+1032940956+1028711207+1020687264+1014990209+1012466318+1009697838
1441+1002768319+988019210+970590759+963883081+961957161+953488531+944336583
1427+940922621+939494624+940533181+943718880+944412722+948685106+959900319
1414+969906280+976290522+981564400+983734368+983097785+986539293+992370132
1400+994619566+995451681+998287789+1004769217+1013223842+1018100852+1018812181
1387+1019198990+1020664592+1021785711+1023671317+1028007383+1031592967
1375+1031914083+1033690665+1039235441+1043439114+1044167079+1043670008
1364+1042250058+1040881951+1041613630+1042748135+1043034586+1043608338
1352+1043878075+1042059246+1039052521+1037056110+1034826485+1028468784
1341+1018859149+1012892125+1012359073+1012189695+1010261222+1008023007
1329+1007089141+1008167084+1010232824+1011388685+1011313552+1011826486
1317+1014487335+1018731863+1023545347+1028227831+1031084522+1032383066
1306+1035012345+1039306241+1042870624+1043991897+1043291943+1042320781
1294+1042042300+1043594720+1045778538+1047154615+1050863461+1057666236
1283+1063084578+1065727011+1067774799+1069263538+1069518728+1069150103
1271+1067014491+1062238225+1057392630+1053755358+1049919381+1045556620
1260+1041376546+1038397987+1036875899+1034394411+1029378431+1023831875
1248+1019359548+1016529552+1016021725+1016183289+1015238281+1013916291
1236+1012579986+1011135971+1010793809+1011853104+1012825117+1013358401
1225+1014066944+1015185819+1016625577+1016679355+1014584211+1012565903
1213+1011801416+1011584682+1011427219+1011307594+1012036023+1013404363
1202+1013370007+1012133441+1011215206+1010270816+1009032084+1007683708
1190+1006463546+1005582684+1004361826+1002569769+1000790556+999233649+997800854
1177+996338115+994577164+992474669+990171535+987976885+986652882+985659900
1163+983717190+981898283+981509462+981530509+980354994+977643308+974885428
1150+973329836+971596509+968341093+964346338+960023426+956215228+954423635
1136+953639107+952165071+949352795+945381407+942312703+941343863+941409866
1123+940785973+937819561+933005304+928526245+925015949+921750010+919358511
1109+919050240+918825073+915225948+908679600+902128688+897406045+895310283
1096+895515255+896258928+895739417+894677492+895133940+896978381+899320900
1082+901331625+902658335+904970058+907292845+906466070+904303221+904556477
1069+906421810+908265323+911155595+914326669+916121048+918135487+921321495
1055+923987063+924247747+922118713+921106696+923481790+926386609+927161929
1042+926879193+927325040+928493205+929208480+928015632+924723385+922099213
1028+921468898+920234499+917256791+914655213+913330824+911838140+909431398
1015+905870342+902169698+901420222+903024562+902734475+900072697+897511511
1001+896289105+897218483+899293044+899462114+898560669+900822483+906593819
988+912742447+918208144+923954333+929731086+933138161+933251209+932480609
974+932484787+933790141+935488649+935087061+933668118+933555998+933334699
961+931919314+931149101+931513161+931028857+929634906+929635602+931306719
947+932228591+931163261+929032292+926825725+925123580+923946440+922378081
934+919832524+918081013+918404837+917850971+914169826+910092509+907626806
920+905088136+902041716+900327346+900286568+900394509+899762724+898750939
907+897277367+895661034+895179438+895453895+894992649+893872768+892600067
893+891178802+891708295+895477572+899005356+899928389+900335935+902252105
880+905755437+909356187+910648619+909616794+909480532+912298457+916918962
866+920836262+924106534+928455135+932407797+935330103+939587012+945855962
853+953710758+962511414+971064076+978901772+986024811+992711830+999414093
839+1005682733+1011250103+1016098251+1019351113+1022956584+1029283025
827+1034807141+1036708377+1036967281+1035592752+1033513780+1034754137
816+1037531594+1035948223+1031302725+1031000954+1036651969+1040220066
804+1036449705+1030633257+1029403578+1031181630+1029786054+1025508795
793+1020960405+1016163713+1012236508+1007415441+999536658+991303178+983974547
779+977029475+972372370+969987217+967183375+962797555+956796021+949998895
766+943430882+938721239+937106762+936128327+934420534+933149767+931831414
752+930664333+930697682+930680582+928990121+926893972+926092576+925709945
739+924384164+922262247+919916324+918272367+918120166+916319984+910932594
725+906588945+904706124+901377278+896420569+893703389+894404969+895715198
712+896142398+898135171+903673680+909872216+913136066+914889357+917204252
698+918957929+919095274+918608726+917877124+916123910+915429295+916739524
685+916929098+916149677+917183360+922276872+929289571+930788678+927125407
671+921926894+916379101+919213352+928058886+932871906+933458038+929930023
658+924749075+922365855+923197893+923338720+922493451+923394663+925449648
644+927580153+926701225+922250795+920046240+916678860+906309845+900769325
631+908439886+917981119+921498843+922747403+919525956+910308778+905949344
617+910291678+912452592+912437117+921118612+934331473+936434818+929611074
604+926680565+926369199+931104300
##END=
