##TITLE=Sample description
##JCAMP-DX=4.24
##DATA TYPE=INFRARED SPECTRUM
##DATE=13/9/2023
##SAMPLING PROCEDURE=Instrument type and / or accessory
##ORIGIN=Default
##XUNITS=1/CM
##YUNITS=ABSORBANCE
##RESOLUTION=4
##FIRSTX=4397.6552
##LASTX=599.8556
##DELTAX=-1.9287962
##MAXY=1.8043087
##MINY=0.44963712
##XFACTOR=1
##YFACTOR=1.6803934e-009
##NPOINTS=1970
##FIRSTY=0.45378548
##XYDATA=(X++(Y..Y))
4398+270047171+269164519+267578485+267961054+270378768+272274515+272352817
4384+272749237+274111327+274493985+274116932+273750130+273137445+272596766
4371+271840337+271156924+271927612+273570205+274205590+272989249+271184307
4357+270390775+270026509+269934942+270312846+269944519+268981048+268488999
4344+268799775+270225074+272034787+272324972+270952648+269880211+269993788
4330+270490714+270468793+270153991+269977294+269490140+269068554+268875913
4317+268190318+268047159+269270080+270020710+269244258+268717376+269619360
4303+271021976+271759251+271570848+271063565+270786876+271173187+272198909
4290+272609092+271654470+270375753+270287875+271307603+271791334+271045049
4276+269674144+268298468+267804096+268277115+268224547+267829564+268397946
4263+269007792+269192133+269566544+269663042+269555477+269761384+270134695
4249+270246463+269732529+268856031+268015217+267838786+269149994+270760397
4236+270518115+269404425+269557783+270182456+270253646+270546367+270933263
4222+270782229+270780562+271139135+271004152+270412891+269840874+269653358
4209+270597640+272018222+272043690+270843895+270324924+270905082+271345982
4195+270836588+269720557+269391886+270775685+272387471+272579971+272030424
4182+271707889+271612544+271710195+271777997+271501007+271323547+271733393
4168+272387560+272557837+271517057+269666748+268721385+269407050+270916574
4155+272165088+272436155+271782342+270638094+269318373+268611585+269303990
4141+270490022+270579603+269887855+270073278+271325338+272201534+271957638
4128+270876156+269978731+270306816+271090806+271182799+270931383+270940925
4114+271131509+271116487+270862375+270615943+270186535+269384952+268613518
4101+268455940+269403645+270925655+271576878+271152348+270394588+269822394
4087+269885567+269970874+269149072+268352845+268741461+269653855+270071132
4074+269681025+268889835+269084640+270643983+271598888+270400831+268263902
4060+267596610+268957318+270806775+271816855+272013628+271999706+271676427
4047+270817842+270355571+271027881+271972199+272038298+271291552+270488976
4033+270229809+270640897+271141121+271416923+271972128+272915150+273348655
4020+272833408+272433761+272870990+273318452+273055703+272787119+273512192
4006+274643954+274743148+273855194+273354242+273614401+273619190+273333048
3993+273876831+274943948+275657475+276289349+276602165+276128915+275789639
3979+276509587+277445781+277237657+276451823+276346457+276655903+276950327
3966+277284532+277217155+277071495+277403411+277256616+276673337+276868993
3952+277527612+277561522+276620450+275289786+274847574+276143192+278146841
3939+279285484+278706142+276663139+275502415+276756001+278175678+277670931
3925+276471580+276373645+277098204+278186089+279391045+280427852+281133469
3912+281274270+280845483+279141686+275695198+272693459+272949929+276092771
3898+279637654+281042540+279554086+277679763+278407710+278906462+277167354
3885+276441217+276875076+277537313+279996209+281101688+279019951+276809704
3871+276064767+276669364+277034180+276466312+277503279+279762192+280624182
3858+279400746+275288137+272033261+276637760+282141137+283764381+282276263
3844+279850248+277618984+275562804+276065955+279881586+282464257+282894250
3831+284019308+285520958+285167529+282416248+278087463+277163985+280749340
3817+283082156+284984252+287833609+289114135+287533368+284901055+283756967
3804+282349332+281839992+284845473+287579586+289354413+291311453+292538135
3790+293063615+292822751+291788888+291631452+292004355+291886858+293437457
3777+296319572+297329670+296112689+295066110+295961797+297611803+299437016
3763+300846123+300496560+300624928+303076802+304472643+302494267+301454161
3750+308171735+317423260+328118335+347288696+367452271+380186979+385195896
3736+385458059+387439521+391957701+395630403+397423941+399009408+401854260
3723+406127197+412971436+421954094+430433708+436513874+441093099+449403482
3709+462960364+476640472+488400056+501301760+517363225+531268961+539959696
3696+545521352+547015588+543366368+538188220+535850740+534979723+531999372
3682+526574030+519429248+510382424+501672464+498880675+497768174+492696226
3669+488154776+486051402+483229677+479104334+473598367+465730657+455773798
3655+448244301+442109085+431650599+421177464+419759312+421813630+420766253
3642+416637966+411233729+405453006+399945301+395003707+389447975+381937881
3628+377802003+378750027+378137023+373716778+367480824+363648114+362432854
3615+360224807+356995665+354549964+352582088+351086893+350242692+348692802
3601+346604219+344866157+342597490+340294239+339343093+338342466+335186217
3588+331796074+331567998+332279220+331568494+330018604+328161148+326119600
3574+324527464+323291844+320900732+317230300+315834388+317251370+318072090
3561+317770766+317117433+315840099+313794542+311875899+311041310+310412912
3547+309318359+308733767+308904878+309152321+308984970+308099587+306672178
3534+305413572+304615589+303610351+302137929+301104811+300789512+300576653
3520+300220527+299639234+299109693+299037404+298827098+298166458+297765675
3507+297361487+296330798+295460774+295228796+295050663+294877974+294976830
3493+295065489+294675241+293951587+293330106+292952520+292833711+292920668
3480+293150216+293305950+293207288+293031514+292953017+292924410+292676293
3466+292076945+291330643+290695328+290476173+290732608+291008463+290926118
3453+290828343+290921382+290650227+290120349+289993648+290019665+289759346
3439+289281893+288976562+289194441+289516284+289545245+289689504+289887998
3426+289539765+288753008+288320923+288870168+289872036+290197515+290104511
3412+290599930+291270112+291241470+290741688+290515456+291114839+292066322
3399+292329762+292054670+291930700+291929565+291755226+291623364+291933679
3385+292392457+292881686+293618269+294047145+293890648+293669595+293569249
3372+293470534+293310242+293081208+293037012+293229883+293297490+293177050
3358+292968092+292870778+293374834+294184966+294205113+293199804+292269072
3345+292263255+292507612+291998466+290954530+290536863+291032991+291150789
3331+290531897+290045293+289607674+289084304+288536478+287572598+286502147
3318+285638827+284542820+283337491+282557474+281794873+280476943+279065761
3304+277965142+276845689+275327953+273960541+274084245+275510219+276617258
3291+276880255+276801208+276893273+277514275+278465349+279395851+280510960
3277+281873157+283021076+283917046+284774088+285437177+285936036+286262703
3264+286017139+285260781+284847051+285686376+287529892+289104629+289747481
3250+289490000+288633933+287820290+287451519+287465087+287450508+287505967
3237+288378846+289787474+290772601+291432922+292272176+292820995+292702435
3223+292732159+293408939+293998213+293873055+293946373+295146664+296483162
3210+296854558+296618040+296744617+297612867+298677980+299324503+299712410
3196+300505321+301501479+302412365+303861483+305427335+306041545+305868129
3183+305548999+305660377+306672426+308199366+309405262+310013052+310324094
3169+310815362+311315818+311398358+311585927+312448608+313590976+314327382
3156+314638460+315118520+315997766+316683662+316628150+316343179+316482331
3142+316956715+317691348+318494687+318797322+318527746+318081950+317639702
3129+317281555+317079727+316946429+316854453+316880630+316857042+316293769
3115+315095605+314045993+313813058+313976045+313832318+313441396+312971233
3102+312025089+310593706+309558389+309369117+309605139+310111873+310848847
3088+311516936+311988802+312082977+311962341+312113233+312494507+313005781
3075+313627369+314132365+314421273+314542583+314601677+314604302+314433617
3061+314112501+314142757+314914705+315514088+315277073+314977949+314728449
3047+314026378+313315617+313093465+313035754+312686936+311928715+310843065
3034+309875319+309470741+309136678+308229020+307198810+306461446+305718549
3020+305151480+305049466+304936634+304428872+303715592+303005293+302316311
3007+301745588+301456325+301497329+301890805+302513882+302994155+303474747
2993+304977213+307965863+311625441+314832165+316824197+317692908+318058717
2980+318149522+318014769+317745157+317334194+316860164+316338603+315564137
2966+314580040+313752332+313170152+312645683+312090709+311668360+311556628
2953+311533714+311455891+311474052+311577343+311822622+312182153+312189921
2939+311514418+310347256+309180626+308421519+308089265+307853137+307516308
2926+307163872+306632415+305936162+305595289+305608838+305600680+305610328
2912+305696664+305840249+306127668+306556295+307183381+307916984+308156269
2899+307759850+307457285+307673017+308192059+308638280+308777928+308848763
2885+309256143+309995458+310686533+310942347+310763681+310512762+310524396
2872+310848988+311017155+310570615+309995706+309797993+309529409+309031792
2858+308817691+308947762+308937617+308468518+307884777+307678693+307724237
2845+307703203+307596401+307618960+308039004+308834504+309502274+309654479
2831+309810443+310431960+311024284+311364377+311691665+311854971+311843727
2818+312029026+312532816+313063882+313438346+313794471+314104946+314348026
2804+314685281+315194427+316002945+316866158+317310393+317624698+318251039
2791+318880820+319191543+319445194+319829909+320083807+319937881+319526670
2777+319248119+319223290+319308277+319341158+319190976+319009685+319005571
2764+319161606+319446648+319712501+319735663+319615879+319555898+319614070
2750+319942102+320371013+320368318+320043265+319933412+320177060+320470615
2737+320474871+320439436+320674961+321000050+321234121+321170699+320865545
2723+320828514+321146047+321377990+321305807+321177261+321234014+321384126
2710+321541332+321790691+322036715+322107160+322115318+322133089+322103364
2696+322155577+322414974+322733571+322775569+322440371+321985602+321622418
2683+321390511+321205354+320875441+320465188+320277052+320214162+319978353
2669+319645319+319401920+319221055+318943781+318611563+318396078+318273669
2656+318229686+318150160+317804144+317410952+317434788+317814608+317956526
2642+317621187+317251760+317148115+317139708+317148860+317210614+317171454
2629+317073910+317096966+317015774+316696892+316605414+317133962+317876256
2615+318163320+318069678+318131893+318467091+318801792+319076512+319443775
2602+319821325+320114880+320479092+321013316+321711307+322410611+322795929
2588+322927312+323086185+323298016+323656943+324240577+324821870+325231947
2575+325501665+325740347+326038939+326293867+326294222+326079518+325902697
2561+325887834+326047523+326268612+326338347+326304792+326353741+326512614
2548+326704688+326800920+326854303+327028606+327247424+327417613+327528387
2534+327576415+327696660+327926616+328108474+328203465+328310125+328498510
2521+328844384+329359028+329875267+330200569+330221674+330031374+329986929
2507+330359087+331025545+331596977+331879466+332010530+332197141+332562985
2494+333010589+333385195+333723124+334109363+334546043+334951649+335420820
2480+336119946+336641968+336559392+336238347+336085575+335987286+335838522
2467+335886407+336279564+336642003+336655092+336438827+336187660+336115832
2453+336314148+336589223+336705992+336695351+336983373+337661040+338112191
2440+338081934+337949771+337967506+338196327+338522267+338632793+338539115
2426+338509533+338616761+338865942+339216321+339540807+339750899+339789988
2413+339733341+339811199+340122845+340438143+340586836+340771567+341070620
2399+341348533+341658936+341983599+342154107+342299253+342622993+342873310
2386+342666232+341941673+340581728+338379569+335537731+332352431+328888119
2372+325308457+321971804+318996135+315836410+312622166+310912623+311246153
2359+312813637+315492770+319366946+324352416+329590615+332557593+331573389
2345+327951127+325170086+324707052+325780997+327588829+329283085+330288430
2332+330946268+332254922+334446618+336803501+338967353+341247300+343806401
2318+346386607+348758493+350805363+352697828+354732318+356749286+358565206
2305+360308624+362039379+363635203+364930556+366026421+367228415+368523839
2291+369615200+370500867+371542675+372833416+373984262+374821582+375612471
2278+376497109+377451163+378446044+379338556+379998559+380545942+381252482
2264+382185431+383231566+384233293+385037803+385691811+386456451+387492017
2251+388518396+389115048+389312477+389658245+390414018+391117827+391573447
2237+392085998+392790694+393482194+393879465+394133719+394450294+394720652
2224+395033290+395605928+396305906+396823529+397214451+397671384+398126047
2210+398586385+399058464+399368406+399650682+400152450+400775385+401407685
2197+401981777+402455098+403037987+403898611+404867421+405650578+406191682
2183+406740236+407573796+408638341+409632264+410468982+411296618+412292067
2170+413405561+414320562+415028450+415869282+416962629+418107231+419119173
2156+420137678+421357549+422577952+423623343+424684057+425934469+427472370
2143+429123848+430478330+431535497+432538217+433722475+435295634+437099530
2129+438793537+440152914+441294856+442826124+444993735+447117931+448642991
2116+449924120+451556515+453574263+455507059+457181734+459003578+461228049
2102+463621998+465916134+468149720+470494011+473016045+475671484+478389884
2089+481214376+484159575+487120736+490182137+493578594+497379841+501362131
2075+505199772+508990342+513122247+517513940+521862357+526489291+531701667
2062+536943165+541783348+546505378+551640252+557462368+563472905+569250152
2048+575035309+580938902+587108241+593797083+600693606+607486519+614372153
2035+621044607+627059295+633081785+639627184+646038788+651918970+657716222
2021+663587892+669259861+674816764+680573864+686311170+691540608+696505009
2008+701630447+706787525+711647926+715920862+719876620+723850113+727234723
1994+729705395+732328237+735793223+739156408+741609203+743620957+746177965
1981+749264834+752003948+754273502+756258724+757701811+758397320+758752452
1967+759527273+760689930+761750573+762730344+763660881+764397038+764964427
1954+765199810+765224214+765732863+766676311+767203476+766806418+766639351
1940+768215028+770441095+771767839+772385383+773367140+775312138+777453075
1927+779051383+780345565+781617329+783035304+785436029+789936970+795324607
1913+799412529+802554235+806273900+810979933+816126866+821343748+826703505
1900+831984020+836541147+840329271+844222600+848545976+853120626+858449736
1886+864183070+869407258+874109247+878501223+882767917+886388761+889238969
1873+891905227+893173232+893076964+894407894+897116362+899825539+902466045
1859+904587332+904995883+903406301+901180305+899406489+898073999+896514638
1846+893992958+892249008+893209766+894014950+892217369+888810980+885435026
1832+881782613+877276705+873472336+870812676+868726931+867868187+867000504
1819+864532172+861331513+858589277+855755811+852788691+850984867+849964163
1805+848364650+845823107+842970415+841056774+840161424+838643989+835693399
1792+834052172+835718086+837653933+838027651+837312705+836056334+835018250
1778+834864663+834431850+831979267+829050597+829593440+832548997+835624657
1765+837605834+837007586+835937366+837019150+838937332+840400992+840016703
1751+837334200+835893879+838118527+841397150+843859239+845641355+847093595
1738+847675810+845643696+843600800+847596072+853849264+858553949+861305762
1724+862224097+862138825+860122532+855780428+855564482+862618530+869894979
1711+874018939+875288221+875134065+875836668+875790343+872906367+872906509
1697+878209938+885550660+893704582+899315258+901460240+901263732+899326183
1684+900997915+909699504+917663516+921742783+923211409+925083196+927717104
1670+930180328+935760287+943138608+947572722+950978118+957206764+962876747
1657+962435989+954660468+950521043+959033006+963893832+963425052+968566807
1643+978033498+983448163+983034717+977232996+972258450+979056897+989950926
1630+994857936+994449527+994169451+995730159+999542758+1002671340+1000471450
1616+997916003+1002878701+1009769442+1013730946+1015201418+1015327480
1605+1015018176+1016031644+1018710245+1020400989+1020542943+1022059739
1593+1025850416+1029023195+1029703025+1029614774+1030555172+1032555930
1582+1034822007+1035357685+1032656950+1030698970+1034251498+1037768838
1570+1036996145+1035925287+1037399660+1038038557+1034167077+1023058025
1558+1015868692+1026613603+1039221006+1047089248+1052310669+1056882694
1547+1058241788+1052603373+1041260994+1033814570+1045642613+1064032442
1535+1070161912+1067237996+1065568250+1065196305+1063052388+1060954938
1524+1057983278+1054947699+1057405532+1061746642+1064286128+1066023835
1512+1066222826+1063047422+1053961048+1048731113+1059477018+1069836079
1501+1070994125+1066170755+1064003569+1068526928+1073055324+1071256749
1489+1065496316+1064501577+1068351561+1071581164+1071917780+1069552456
1477+1065788665+1062669163+1059757732+1057498819+1056373407+1051819543
1466+1044696398+1041981474+1041021780+1032482363+1016116844+1007795359
1454+1012776431+1017243179+1015408566+1008962414+1003607552+999365050+992952524
1441+986089946+977994480+966206093+957772379+954701968+950140656+943887393
1427+939373966+936535959+935493406+934601532+933576004+939804579+951754286
1414+960850238+965600822+969840700+975749755+979697071+980620372+982854030
1400+986781269+989817628+992266379+998946496+1009675090+1015675802+1013774646
1387+1009626496+1008228881+1009020160+1011341998+1015459715+1018760968
1375+1019699876+1022249649+1027325144+1031272956+1032719591+1030880083
1364+1027233062+1026635452+1028393945+1027719932+1024646329+1022611875
1352+1022808028+1022302500+1019880422+1018304390+1017527441+1013878362
1341+1006946617+1001742789+1000295799+998333421+994761030+992860442+994321691
1327+997964030+1000785862+1002592808+1006539414+1011307521+1012548426
1315+1011257933+1011500481+1014320043+1017463452+1020124531+1023602499
1304+1027082666+1029615058+1031413775+1031660012+1030789491+1030479478
1292+1031085033+1032757758+1036459616+1041846047+1046890470+1051858419
1281+1059139975+1068027005+1073741823+1073486860+1070553721+1068770611
1269+1068055381+1067419109+1066019437+1062881207+1058976952+1055818149
1258+1053765888+1052864863+1052320814+1051277126+1050210452+1049268139
1246+1047472402+1045086007+1043626958+1043260617+1042430817+1040051942
1234+1036863840+1034403312+1033939285+1034447721+1032436181+1027859757
1223+1024452802+1023326963+1023404715+1023671099+1022590734+1020518610
1211+1020009748+1021817403+1023489844+1023510630+1024416267+1027090257
1200+1028022284+1025681008+1022376988+1020892967+1021828541+1021944317
1188+1018841345+1015938143+1015782994+1015860179+1014538117+1012992589
1177+1012333403+1011806096+1010191827+1008053940+1006149804+1004540714
1165+1002734123+1000478544+999061492+998722605+997713678+995892757+994157958
1151+992036246+989879772+989098992+989922621+990331597+988303740+986613067
1138+986677766+983430002+976367228+971211144+969053748+967278513+965377144
1124+963136321+960204176+957993716+956086530+952264283+948020930+944668244
1111+939192782+932917030+931083907+931658745+929256814+924442383+920390996
1097+918549786+919125616+921768251+924004107+922783279+919975351+917766239
1084+915913040+916307402+918262048+918994446+920225348+922629336+923017740
1070+922093587+923156146+924787867+924771621+924758001+926538840+928455603
1057+928632034+929225103+931199825+933074520+934466956+935287676+936634071
1043+938069639+937244024+934970072+934107496+934731780+932562395+926601978
1030+922698859+923468146+926034873+928924170+931605893+932599426+931585178
1016+929163810+926510251+924716358+924625837+926724281+928664241+928650337
1003+928472842+928873022+929522986+930905490+931922930+931970035+932759754
989+935821154+940196459+941704104+940002789+940086642+943381369+947674736
976+950633981+951267203+951553310+953063934+953680201+951299127+948120389
962+947407287+949003892+950049993+949675423+950076241+950933496+950156476
949+949429043+950767351+952198805+952145102+950945130+948269011+944947398
935+942577533+941589675+941421331+940551520+938268062+935587828+934547049
922+935623583+935671681+932951650+930212039+929673949+930234882+928969076
908+924157837+917682174+912726853+911334417+913432080+915453978+914984560
895+914736549+915766900+915033580+912916195+913141363+916104794+918379598
881+917924367+917351445+918456285+919670516+920980093+923511633+927199162
868+930616617+933035290+935581373+938696051+942131099+945392909+949222533
854+954849810+960939695+968085754+978428853+989214343+996851457+1002165741
841+1006027218+1007482579+1008105230+1011517791+1017302699+1020665742
829+1020912263+1021931335+1023151951+1022462614+1023994875+1028978644
818+1028921962+1021734047+1016972396+1017065471+1016678699+1018178398
806+1023719410+1025141287+1021516045+1020753000+1021511575+1018170098
795+1012946407+1009390545+1006265368+1003988720+1004295186+1005315180
783+1003170554+995474203+985813275+979706222+978032646+979130392+979267309
770+973964234+964967529+958868847+958035855+958300608+955944718+951276426
756+942997009+933766552+932289271+937006158+939188454+937858801+936307528
743+936439266+937738556+938729535+938622201+936192248+931366325+926681574
729+924318661+921625659+916003206+910943460+909233632+908901627+907201945
716+904885002+906058300+911417986+917408482+922080321+924253395+923890460
702+923271993+923237161+923251491+925123916+930748426+935561438+934825564
689+932342690+932536147+933845510+932724212+929293278+926585945+927682981
675+933175966+938487696+935530650+922838613+916894370+924020850+929935439
662+931822193+928391685+920913763+917819658+919363341+917439909+913752309
648+915421842+922260158+925618022+915411910+904323005+908582604+912538362
635+899148121+885405656+889160437+898967930+892894716+877734135+880205588
621+904994322+928662894+935731414+919333261+886141459+864862617+857019914
608+853457739+859027624+869883416+875554038+866605857
##END=
