##TITLE=Sample description
##JCAMP-DX=4.24
##DATA TYPE=INFRARED SPECTRUM
##DATE=13/9/2023
##SAMPLING PROCEDURE=Instrument type and / or accessory
##ORIGIN=Default
##XUNITS=1/CM
##YUNITS=ABSORBANCE
##RESOLUTION=4
##FIRSTX=4397.6552
##LASTX=599.8556
##DELTAX=-1.9287962
##MAXY=1.7103405
##MINY=0.31661192
##XFACTOR=1
##YFACTOR=1.5928787e-009
##NPOINTS=1970
##FIRSTY=0.34021282
##XYDATA=(X++(Y..Y))
4398+213583632+214646943+214223935+212568405+212512687+214200211+214925512
4384+214095979+213432345+213775575+214991370+215907043+215243540+214227172
4371+214404091+214773140+214350693+214087578+214296547+213957583+213040582
4357+212095835+211273598+210740614+210562442+210943970+211617502+211457983
4344+210195881+209231263+209508036+210308551+211217750+211838033+211214868
4330+209387639+207191791+206044997+206357300+206896477+207423006+208190535
4317+208668625+208529555+207847342+206903512+206419847+206764143+206809065
4303+205785942+205027132+205549695+206228240+206059610+205619744+205287497
4290+204801362+204189966+204275693+206102193+208259499+207789529+205136940
4276+203275808+202899144+202800843+202645702+202761422+202603830+201451030
4263+200560709+201306123+202593614+203256687+203523151+203653165+203610525
4249+203425149+203530373+203698947+203138067+202623980+202850405+202648060
4236+201266477+199696825+199411651+200458984+201675322+202152458+201688270
4222+201025683+200740154+200666980+201138091+202320265+203131687+202909116
4209+202268832+201670402+201321409+201213379+200898438+200558876+200860140
4195+201794185+202535783+202411606+201716166+201163630+200998012+201109877
4182+201268255+201060483+200899280+201239161+201254990+200755159+200504262
4168+200866838+201448635+201339670+200564563+199896346+199639629+199878197
4155+200271644+200283207+200278492+200511316+200124211+199097085+198767120
4141+199552517+200258697+199977265+199709772+200232709+200512999+200581851
4128+201064151+200961303+200239875+200145166+200682734+201081401+201045459
4114+200948693+201027367+200876174+200364407+200112218+200686701+201628267
4101+202040181+201879651+201661159+201629465+202028786+202973571+203690827
4087+203821983+204045283+203914427+202841275+202371605+203411959+204445222
4074+204410834+203564836+202600855+202526690+203071479+203162334+203183438
4060+203879403+204757357+205081802+205010630+205133703+205453134+205223884
4047+204552859+204742220+206040376+207386166+207632985+206557850+205394123
4033+205331165+206326766+207400068+207701800+207268819+206665861+206520598
4020+206962335+207513355+207942930+208492753+208957952+209128996+209611501
4006+210448368+210750212+210435309+210349207+210486237+210166076+209587684
3993+209640557+210846006+212372963+213028009+213128499+213181541+212889726
3979+212582549+212768636+213058001+213163468+213479007+214416645+215404051
3966+215211022+214526246+215329118+216854952+217144149+216859461+216710120
3952+215747056+214490679+214742400+215747037+215949551+216693394+218653219
3939+220083203+219995024+218264730+216489851+217479109+219983050+220459774
3925+219674433+220057290+220134206+219269723+220002546+222792727+225382396
3912+226389653+225437777+221956215+216690924+213268055+213798139+217288550
3898+222832934+226818143+225813880+222949028+223874111+225312889+223938641
3885+222825132+221766031+221704625+225694268+227793761+225479817+222763091
3871+221383454+223086413+225303628+225177468+227490813+232670245+234156284
3858+229148476+218816199+212975678+222044862+232661208+237090362+235580244
3844+230801836+226156623+222978701+223071034+227069938+230952244+233432929
3831+235853293+237501508+237764828+235702605+229949776+227268710+231054922
3817+234299020+238613595+244372991+246256854+242808409+238778147+238368255
3804+236896566+235744496+239806415+243495991+246302731+250592291+254079222
3790+255827721+255950550+255072128+255411074+255883158+255093121+256609506
3777+260956617+263721990+262791125+261063656+262789160+266753639+270899882
3763+273354224+272139738+271717235+275876875+279039660+276930550+276979046
3750+289923575+306002244+323674159+353620945+381902864+396541615+400859931
3736+401195397+406153287+417402396+428527910+434660471+438095240+444059638
3723+454185079+467532634+482322335+495438263+503539836+508829300+520733998
3709+540670669+560288864+576835520+593874279+614213845+633541590+646354757
3696+651649011+650459072+645341364+640758230+642861652+650883633+656005159
3682+653614280+645150375+633117702+624250902+626860871+630867970+629188136
3669+630262149+635086938+636942494+634447589+629980755+623654174+614826589
3655+608264415+602024310+589609322+578251996+579912259+586524014+588583693
3642+585771883+581189797+576782534+572751411+567807329+558854875+545194120
3628+539347480+543718858+545335490+540263995+531878296+527408468+527247452
3615+525859977+523194552+520404820+517919569+518145695+518992422+516360713
3601+512091340+509208060+506215589+503102328+502324527+501339760+496193987
3588+491295107+492786497+496335395+496934256+495088504+492964314+491118712
3574+490149174+489131814+484658880+477783842+475741713+478583945+480411062
3561+480753711+480935533+480700651+479741328+478311157+477186665+475763005
3547+473331863+471768965+472769224+474297285+473353117+470689638+468725229
3534+467750715+466964719+465755285+464011127+461911223+460467655+460918036
3520+462039796+461727381+460335415+459361012+458973534+458445471+457047218
3507+454551004+451906459+450887977+451791581+452767331+452643323+451374355
3493+449050794+446621598+444840806+443522182+442575358+441506546+440029451
3480+439268676+439605227+439549996+438482045+437293790+435752520+433316439
3466+430902922+429315028+428419842+427565407+426434628+425332513+424324471
3453+423641154+422551462+419975171+417715934+416953625+416152362+415131859
3439+414699964+414624189+413814956+411747083+409683999+408511797+407567555
3426+406398646+404824485+403207964+402560533+402162727+401214256+400838602
3412+400738019+399771699+398721709+397848339+396491809+395242411+394280919
3399+392881394+391665898+391421698+391452682+390934123+389843982+388623958
3385+387668228+387223461+387242320+386944648+385785656+384457901+383692262
3372+383117350+382006404+380606916+379720786+379436324+379406837+379111223
3358+378076164+376554203+375159093+374353977+373899405+373041639+372020537
3345+371558033+371061626+369652709+367587006+365644675+364428093+363675439
3331+362882408+361783174+359939032+357890616+355976462+353624275+351701177
3318+350617360+348424992+344585121+341346205+339878165+339141077+338161848
3304+336426521+333873279+331578606+330340023+330027757+330706022+331703774
3291+331774909+330969418+329997859+329165838+328491390+328122845+328017098
3277+327530570+326676471+326498056+326957828+326726202+325722014+324708321
3264+323594905+322489946+321755065+321104940+320457958+319868190+318775504
3250+317244637+315798226+314387662+313303003+313030870+313418293+313512272
3237+312648519+311557816+310814797+310137412+309573164+309218745+308504595
3223+307708496+307835966+308179776+308006580+308130064+308277216+307473315
3210+306665429+307208086+308703292+309817588+309776033+309137714+308498776
3196+307893049+307668009+307616744+307424651+307500089+307777853+307716710
3183+307249378+306813535+306771308+307064489+307250239+306990174+306521926
3169+306369853+306847400+307787096+308657959+308983414+308916546+309062594
3156+309429529+309633465+309612959+309320302+308697848+308129896+308129409
3142+308480927+308532173+308206792+307732875+307205673+306913726+306915223
3129+306810822+306490961+306172428+305862857+305388397+304851578+304603000
3115+304568425+304264055+303735917+303450855+303169817+302317233+301116013
3102+300305526+300205972+300375238+300492997+301001378+301868405+302492450
3088+303101077+304031194+304955417+305815933+306693269+307406110+308013970
3075+308747111+309465152+309658106+309357852+309323669+309782881+310067568
3061+309692850+309132250+309090359+309380622+309435142+309219625+309007980
3047+309128265+309700727+310281626+310847109+312003856+313391650+314176280
3034+314403715+314568960+315066788+315711113+316084971+316362361+316711148
3020+316993104+317311618+317970911+319186370+320909760+322904628+324910535
3007+326879285+329322326+332511586+336121328+340372177+345518100+351450317
2993+358715752+367443839+376668332+385815741+394662672+402586240+409282264
2980+414872393+419058095+421753118+423997387+426480430+428507666+429776522
2966+430891883+432222482+434180754+436867283+439517815+441993897+444838973
2953+447786204+450438457+452603584+453862449+454784614+455747154+455510102
2939+453581803+450588696+446985165+443280752+439755092+436629969+434129826
2926+432176942+430563640+428267396+424525263+420263450+416145028+411781920
2912+407210648+402974654+399173137+395555163+392334321+389838407+387860489
2899+386254634+385275891+384807886+384702662+385534571+387417518+389702424
2885+392127878+394790983+397535625+399856229+401532022+402601096+402803086
2872+402098403+400712274+398863454+396821063+394379594+391047579+386887696
2858+382436316+377840384+372563381+366333305+359623212+353046294+346949394
2845+341386319+336255439+331492542+327226762+323535258+320201372+317157413
2831+314565517+312454948+310624968+308729729+306681594+304857378+303677131
2818+303012748+302377011+301645573+300910449+300308202+300170517+300429197
2804+300532456+300276713+299940911+299757855+299664662+299457489+298999400
2791+298263397+297354123+296440920+295584651+294717118+293862832+293129037
2777+292372547+291427631+290452536+289610131+288751242+287716744+286816619
2764+286276413+285728031+284989465+284359789+283992835+283608799+283080755
2750+282855621+283008666+282858034+282232044+281769465+281607439+281282900
2737+280877460+280710102+280539955+280154498+279775962+279525570+279297312
2723+279100336+279017713+279010697+278970677+278812281+278539905+278259876
2710+278139947+278295930+278512121+278389142+277975395+277676245+277491131
2696+277097104+276575196+276221414+275992201+275666016+275104518+274398395
2683+273771282+273164021+272422049+271695981+271192502+270838402+270315222
2669+269547805+268896632+268469900+267997255+267458471+267006669+266611781
2656+266255286+265980646+265660373+265216429+264816527+264543290+264315069
2642+264143875+264082040+264013974+263858833+263782946+263821132+263781337
2629+263765508+264001831+264250539+264202044+264097681+264364126+264984933
2615+265571240+265981301+266467473+267091087+267613893+267932819+268164408
2602+268506328+268938991+269291762+269756924+270461738+271013955+271223822
2588+271313704+271363752+271322273+271245582+271251905+271324312+271187039
2575+270811160+270603782+270627525+270633268+270544509+270198492+269534390
2561+268950890+268732398+268647849+268473362+268322131+268302186+268305367
2548+268250323+268213147+268245290+268343516+268477515+268555946+268541390
2534+268536975+268685418+268947410+269154003+269309462+269575851+270000730
2521+270469427+270914812+271340253+271673959+271865042+272113769+272624339
2507+273146957+273414712+273605046+273881819+274172812+274437255+274727686
2494+275029511+275276966+275478283+275664463+275902713+276215221+276457512
2480+276574860+276622756+276525354+276361382+276362317+276401608+276255428
2467+276008048+275903779+276108351+276448195+276660232+276775802+276871820
2453+276883027+276841380+276918632+277146909+277376740+277445685+277387573
2440+277492908+277832172+278035210+277963589+277927086+278000204+278013862
2426+277996088+278016968+278100900+278330412+278634763+278801597+278875763
2413+278996459+279158897+279438308+279891944+280396620+280715471+280831565
2399+281077561+281564593+282045134+282398392+282721846+282961499+282834142
2386+282082423+280496474+277779167+273794819+268901945+263547035+258156445
2372+253202746+248460804+243502989+238674009+234665600+232040495+231311321
2359+232854517+236720545+242671660+250401657+258278470+262489225+260674063
2345+255106274+251136538+250592272+251900493+253955607+255984620+257470603
2332+258859800+261138064+264101385+266609910+268626426+271219669+274900957
2318+279006039+282423183+284859339+287063756+289633686+292472513+295192944
2305+297561764+299679293+301643926+303366643+304839229+306210035+307621178
2291+309130435+310664277+311980619+312933093+313626046+314159666+314659440
2278+315314355+316109967+316819253+317278277+317605959+318016114+318557723
2264+319145021+319659389+320102136+320547802+320970005+321368822+321784515
2251+322099100+322292820+322553597+322912037+323237624+323389173+323422326
2237+323618404+324005060+324371059+324638908+324790194+324840149+325004870
2224+325424304+325864769+326132842+326307778+326519834+326865440+327253068
2210+327555005+327917151+328510810+329236897+329803615+330103494+330383616
2197+330905131+331674587+332477459+333165303+333804727+334465218+335156804
2183+335858381+336485868+336996830+337567178+338421651+339419403+340267702
2170+341008981+341862631+342835387+343790070+344704526+345615054+346545563
2156+347555364+348671399+349860627+351049331+352185422+353316350+354476466
2143+355640622+356793366+357922535+359174552+360710359+362345065+363914699
2129+365460533+366932203+368369933+369875093+371414080+372997933+374619280
2116+376250432+377979173+379830276+381746937+383711346+385682528+387673168
2102+389847425+392214280+394540535+396837977+399318400+402052377+405135590
2089+408539562+411952067+415281163+418766710+422501133+426394215+430476827
2075+434891386+439719468+444804397+449840382+454752957+459888589+465570021
2062+471503287+477454738+483614728+489900634+496276684+502886044+509638982
2048+516506835+523470221+530237453+536809880+543708755+550978979+558173168
2035+565151371+571811622+578192499+584787153+591583273+597919808+603882223
2021+609879214+615470091+620598165+626019682+631669794+636839141+641511857
2008+646127696+650765313+655004937+658567717+661832789+665146057+668096505
1994+670088492+671881932+674721544+677882140+680240090+681948437+683488098
1981+685007926+686310572+687457329+688535682+689426490+689993544+689733404
1967+689000432+689038076+689747698+690349702+690563891+690111340+689323811
1954+689046682+689354420+689716191+689665151+688742312+687171219+687031271
1940+689388546+692042334+693665889+694911956+696185116+697657796+699725594
1927+702038940+703796381+706080839+709741584+713482705+717808543+723604367
1913+729305370+734169898+739152073+744915193+751364659+758260241+765214570
1900+771945207+778232797+784108099+789951596+795010181+799552902+805814972
1886+812906557+818605763+823467224+828012190+831492498+833805095+835851415
1873+837441816+836469734+834089857+835234368+838868695+840941358+841254110
1859+840702697+839201728+836885913+834098239+830436222+825277053+818658899
1846+811013956+805611934+805174950+805081626+802269255+798493707+794203044
1832+787592599+779750605+774935320+772569513+770416697+769576780+769092198
1819+767311931+764934897+761934830+757327748+752993004+751598082+751634828
1805+750403503+747177947+743396187+741759236+741831082+740297109+736496340
1792+735113467+738842315+742325018+742546167+741325545+740260063+740311777
1778+741579623+741252577+737361478+733310897+734829903+740007632+744829427
1765+747226517+746729063+746884129+748762960+750096813+750824697+749341090
1751+745270079+743928591+747427160+751091797+752459926+752592017+753681222
1738+755437766+754129957+752642533+758176122+765950910+772047212+775849702
1724+777798432+778748736+776260867+770408764+769950151+778432916+787994409
1711+794129926+795725491+794409973+794540567+794877642+791965136+792130530
1697+798862738+809794905+822220931+829829129+832976029+833199947+828744414
1684+828293135+840326482+852360202+857714626+858758330+862303373+868336287
1670+872785459+880141225+890380982+896802834+901231276+909277355+916943328
1657+917336607+909686350+908551493+923185117+932635848+936268603+944667922
1643+954731135+960348617+961292486+958428626+958360747+967635906+977236763
1630+981700604+983520761+984884101+986610635+990764493+994083748+993932948
1616+996920217+1005878059+1013042237+1016019329+1017316661+1019134797
1605+1021124838+1022202294+1023172206+1024786855+1026497972+1029545038
1593+1034842359+1040380662+1044828937+1047558611+1047153807+1044195126
1582+1041308815+1038013882+1031853668+1029145248+1034977593+1038246257
1570+1036443313+1038549579+1043554131+1045419640+1041699399+1029365050
1558+1024194056+1042271243+1059771571+1068184511+1070762337+1071602029
1547+1069665498+1062510525+1052294192+1042191464+1043402358+1054035918
1535+1058897378+1060986356+1067744009+1071886342+1068866667+1063600628
1524+1058368641+1055084485+1056957853+1059982093+1064097035+1068655472
1512+1068333814+1061465475+1049235227+1045295632+1058533212+1068933648
1501+1069826327+1066658097+1067732634+1071495982+1069060874+1062253229
1489+1060587839+1066073455+1072185847+1073741823+1069957444+1065196867
1477+1062104225+1058246354+1051642270+1049290982+1054014514+1056039580
1466+1052180886+1048902269+1046460350+1038085129+1025377484+1021375773
1454+1025806984+1027268364+1023583072+1016699465+1010648590+1006882771
1443+1002967499+997344853+986870176+970698388+960014611+956305221+950571439
1429+944096527+940339914+936913041+934653205+934240469+935231261+943869391
1416+958199394+969299275+974645018+976019509+976877911+979992631+985333509
1402+989338213+990766738+992507641+996107766+1002826578+1011761744+1017028531
1389+1016265174+1014221399+1016171102+1020486912+1023704610+1026185370
1377+1028930311+1030338779+1031571974+1035589701+1040496962+1042566632
1366+1040104582+1035587456+1034675319+1037577721+1037912027+1034291246
1354+1032786011+1035813544+1037806204+1034565905+1028671892+1023025821
1342+1016941269+1010853798+1007134529+1006022648+1005749935+1004811904
1331+1002926263+1001196138+1000836088+1002013753+1004760490+1008472724
1319+1012111990+1015768618+1018337164+1019555766+1022257226+1026420139
1308+1029606555+1032339372+1034788550+1034984928+1034352988+1034814744
1296+1033983658+1032216637+1033352766+1036712958+1039800062+1043987074
1285+1050795693+1058014354+1062488073+1063540982+1062283763+1061143667
1273+1062366610+1063919517+1062025120+1057638513+1054047293+1051031286
1261+1046768237+1042620291+1041081080+1040745053+1037946752+1033211021
1250+1029944228+1028067044+1025643312+1023169138+1021572899+1019946051
1238+1017613472+1015169308+1013599862+1013852144+1015098735+1015311502
1227+1014893078+1014997329+1014538716+1013276408+1012537973+1012408651
1215+1012703442+1013745124+1015133386+1015791744+1014841290+1013078160
1204+1012424741+1012807692+1012813679+1012701047+1012506391+1011008715
1192+1009140212+1008795354+1009076674+1007674342+1004003569+999973794+998055748
1178+997589427+995969763+994308938+995071023+996115325+994292249+990789714
1165+988011694+986458113+985920920+985104951+982558483+979630186+977965395
1151+976656986+974323135+970939893+967758267+965535253+963554342+961373686
1138+959674394+959284408+958797132+955645367+951274700+948146659+945419155
1124+942933681+941026785+938381380+934986987+932376980+931223114+930216306
1111+927935067+925114988+922069045+917564641+912710889+910463702+910590628
1097+910762758+909714564+906802508+903224984+901396146+902252976+904336566
1084+905104189+903877429+902143263+902293240+904707617+907158741+908845834
1070+910443420+912759759+916048480+918641198+919615825+920578778+922423107
1057+924136694+925071656+924906487+924086402+924410529+925828502+926726868
1043+927242957+927996136+928455497+927906553+925682790+922907240+922808528
1030+925528547+926946520+924441887+920604896+919666491+921297979+921472578
1016+918874322+915057837+912046993+911458909+912017507+912715230+914107233
1003+914083584+911011747+906454657+903591470+904760154+908231182+911446486
989+914515405+918343340+923306206+928862695+933863730+936851897+937123188
976+936526348+937044907+937957642+937698026+936258126+935266360+935967975
962+937314551+937578658+936714867+935241738+933557489+933198936+934284100
949+934677753+934262621+934418136+935438864+935915363+934255511+931772881
935+928509156+922806732+917865643+916635366+917159239+917723748+916789460
922+912801444+908391862+907026725+907916185+907618327+905042447+902694601
908+901909615+901577480+900867559+899525173+897623517+895710410+894550557
895+894528928+895767363+897943004+899919874+901986924+904662340+906453833
881+908086743+911401658+913890126+913299722+912131262+912822175+915423949
868+919062392+922415698+925617681+929598436+933482201+937682534+943834741
854+950079673+955283072+962347639+972541595+984593128+995611509+1001603037
841+1004874769+1011806123+1020521712+1023874494+1023462506+1027095186
829+1033508431+1035006855+1033131991+1033205708+1035484328+1039736075
818+1043329465+1043181658+1041246998+1039500856+1038339057+1039068737
806+1040926687+1040361504+1037081464+1033392356+1029220162+1025507329
795+1023286859+1020838430+1017957656+1015246991+1010438592+1001423423+991328180
781+985239886+983125687+981507595+978282038+972147718+963249747+955805073
768+953587522+953995244+952849086+951346695+950771484+947517264+941383917
754+938253555+939289700+939747190+938583295+938921343+939884744+938096543
741+935220559+932842029+928957067+924922427+924039179+925730538+926142750
727+923236382+919271791+915650786+911500819+907535256+904934379+904644753
714+907454654+911258940+914125195+916403441+918752783+922613198+926284795
700+927274015+928199847+930588405+932258810+932937598+934956902+937490124
687+936275189+932761877+932243393+934100745+936274141+939590851+941890501
673+939817015+932027557+919864365+914422006+920331809+928240784+936033833
660+942207668+944639858+944288788+941448577+938436012+942516978+950812346
646+953700828+951977288+945745004+935649386+929915080+932591319+937342392
633+935341050+932332676+938159034+948210871+953343023+955746325+964022309
619+970319853+957916653+937908772+930114975+932601572+939854584+953716619
606+967629769+975744775+980717595+979469657
##END=
