##TITLE=Sample description
##JCAMP-DX=4.24
##DATA TYPE=INFRARED SPECTRUM
##DATE=13/9/2023
##SAMPLING PROCEDURE=Instrument type and / or accessory
##ORIGIN=Default
##XUNITS=1/CM
##YUNITS=ABSORBANCE
##RESOLUTION=4
##FIRSTX=4397.6552
##LASTX=599.8556
##DELTAX=-1.9287962
##MAXY=1.8062435
##MINY=0.4418253
##XFACTOR=1
##YFACTOR=1.6821954e-009
##NPOINTS=1970
##FIRSTY=0.45591679
##XYDATA=(X++(Y..Y))
4398+271024874+269057175+267504498+267911106+269635507+270908495+270817150
4384+270558828+270486014+269040256+266826016+265746454+265521882+265738163
4371+267435564+270448845+271809495+270388769+268999065+269054057+269942690
4357+270823599+270384234+268685345+267245503+266777456+266935414+267236043
4344+266953875+265649121+264118093+263193762+262678713+262648028+263968851
4330+265575580+265142416+263851516+264473058+266503898+267812249+267802930
4317+267225732+267145052+267706659+267748594+266912330+266448198+267110523
4303+268262190+269193679+269299499+268135908+266730596+265993048+265666093
4290+266389681+268206933+268838396+267345406+265712262+265742450+267207130
4276+268030301+266628692+264406675+263977798+265649156+267052608+266611082
4263+265704555+265897911+266414572+265863346+264836118+265190675+267053565
4249+268449664+268585867+268141506+267181104+266134123+265845896+266384065
4236+267209149+267519681+267131587+266743051+266990211+267772599+268443570
4222+268561525+268475105+268481217+268062952+267015545+266058031+266429542
4209+267779721+268067346+267464690+267315058+267395862+267320585+267084391
4195+266896031+267344236+268082299+267747513+266855620+266832996+267169288
4182+267410867+267679713+267678685+267791768+268162323+267798235+266762857
4168+266542661+266954070+266746009+266601940+267162750+267500565+267528203
4155+267523526+267047328+266568757+266658827+266964274+267351075+267752704
4141+267836626+267598873+267228318+266641855+266258828+266604155+266740304
4128+266023573+265751822+266423661+266628196+266134707+265910135+265949040
4114+266063877+266248907+266207096+265764099+264930281+264280800+264841291
4101+266067952+266376925+266162150+266242671+266450005+267123650+267932312
4087+268162801+268117784+267796251+267275851+267411470+267687844+267050588
4074+266522075+267079909+267999634+268212744+267763883+267846547+268414834
4060+268403974+267851579+267473654+267821620+268832479+269530537+268846935
4047+267563387+267227096+267538124+268103824+268914363+268954562+268564572
4033+269117782+269740051+269467024+269408064+269844914+270004591+269922670
4020+269711846+269752009+270613696+271683018+272168179+271912125+271300310
4006+271320453+271797412+272064167+272588003+273017234+272564423+271964530
3993+271967241+272221187+272490333+272704098+272446007+272247637+272810308
3979+273232328+273223612+273678408+274267316+274563161+275051600+275327762
3966+275012642+275007841+275539649+275664266+275317203+275310861+275772123
3952+276321276+276973396+277713266+277733852+276867577+276285542+276428938
3939+276825695+277059356+276812249+276414482+276589058+277266336+277415844
3925+277246742+278118367+279272710+279400887+279382002+280552413+282075787
3912+282580330+282344986+281649284+279906547+278091757+277831008+279093704
3898+281204976+282428501+281751791+280594029+280876604+281753173+281931753
3885+281662252+280954397+280745751+282282218+283198152+282513433+281599413
3871+280852049+281415712+282838670+283128154+283295095+284473887+285329939
3858+284831756+281984087+278823725+281769737+286361543+287985333+286820715
3844+284621729+283245011+282977158+283610924+285538726+287223939+287578354
3831+287913192+288742653+289063584+288198035+286244598+285888641+288432724
3817+290466310+290910387+291172802+291324099+290525217+289266295+288866455
3804+288730376+289637664+292250291+293918814+294522569+295318457+296126871
3790+296912041+297359077+296965899+296887220+297418675+297563169+298548055
3777+300868291+302408124+302399088+302280389+303642385+305954790+308105730
3763+309388144+309692262+310750458+313697498+316684542+317644341+318863685
3750+326054600+336271358+349237122+367898685+385474415+400034790+411500761
3736+416933863+418987185+421487419+423574473+423417081+422574635+425523836
3723+432855773+441996122+451446223+459892481+466039834+471559178+480014649
3709+491573702+505040590+519181975+533279387+548904762+565354725+578001135
3696+584165495+585842133+585034693+580890880+576007658+573768704+571757972
3682+567990454+562986654+557084637+549761204+545377370+543422338+537781991
3669+531409641+527147802+522385830+517151754+511402346+503486018+493956583
3655+487923572+484730665+478168360+467723417+460352504+457051562+453832825
3642+449072767+443647744+438006122+431753357+425739231+420586438+414837454
3628+410285528+408310334+405705999+401218276+395442754+391229351+389750357
3615+388037046+384795136+381010680+377728766+376329106+375999228+374310259
3601+371140383+367694629+364114513+360859245+359236925+358579756+356959988
3588+354945216+354062766+353304507+351681196+349519308+347629826+346210607
3574+344875965+343406183+341487292+338980680+337309818+336772942+335805348
3561+334646452+333911224+333015699+331570331+329827717+328203697+326784584
3547+325802320+325295810+324597326+323780285+323303007+322809714+321942783
3534+320909248+319824583+318588267+317269181+316217150+315263480+314060754
3520+313162075+312820505+312417706+311567500+310603413+310227118+310295326
3507+309775352+308750569+308102505+307618460+306975960+306474269+306270035
3493+306146091+305346376+303832587+302642369+302232767+302253177+302123529
3480+301728880+301523264+301255783+300395124+299557177+299486064+299805135
3466+299693557+298837930+297690301+296883624+296601651+296677246+296829625
3453+296949848+296994581+296688780+296042984+295381864+295022772+295234429
3439+295443003+295106942+294983973+295634658+296404539+296504796+295992882
3426+295250586+294483292+294075320+294184028+294321560+294051651+293678492
3412+293650518+293843113+294144060+294496101+294738850+295083433+295494983
3399+295469330+294926430+294284781+294129586+294532933+294982928+295421354
3385+295828829+296007197+296136367+296228262+296143152+295746785+295001530
3372+294385480+294196518+294130011+294058667+294415066+295325668+296060063
3358+296074395+295811946+295985566+296294964+295890004+294908909+293983833
3345+293464391+293293446+292977617+292445472+292006550+291652861+291096462
3331+290388181+289900645+289295881+288410348+287957891+287845693+287221264
3318+286059055+284949499+283964312+282818296+281409529+279917035+278724885
3304+277720919+276633314+276001567+275992886+275781725+275379016+275750917
3291+277169197+278657847+279261814+279649749+280602302+281189067+280792682
3277+280595092+281296570+282433798+283948916+285030675+284659164+283930846
3264+284079610+284708344+284928860+284557384+284343725+284717699+285186366
3250+285647079+286334721+286976637+287622290+288180177+288305042+288573533
3237+289120082+289234334+288967172+288927363+289127044+289280184+289669465
3223+290301566+290617979+290841187+291574909+292774854+294251013+295447663
3210+295593503+295242206+295508731+296606665+298109682+299316518+299943889
3196+300250275+300222567+300157264+301017286+302599566+303541579+303751836
3183+304136316+304655652+304797985+304657849+304536102+304604700+304858079
3169+305368628+306500099+307977711+309271428+310388407+311011420+310938747
3156+310872134+311446497+312406403+313168524+313587303+313680774+313486603
3142+313230000+313122214+313193469+313228157+313255086+313657141+314311156
3129+314780249+314897177+314494308+313960302+314080773+314250177+313489190
3115+312520851+311987270+311332617+310614787+310212413+309753986+309140469
3102+308741462+308314145+307337302+306376545+306468670+307308708+307830276
3088+307771919+307665408+307850721+308130639+308520929+309131115+309693786
3075+309982597+310064270+310254366+310555047+310774694+311093553+311332617
3061+311189292+311109993+311398061+311667101+311842741+312102923+312152599
3047+311888130+311499363+311115946+310884039+310468414+309592059+308570925
3034+307644432+307041652+306762655+306200977+305142816+304241799+304028636
3020+304121399+303847504+303248126+302749057+302516229+302424423+302169591
3007+301765694+301536941+301495591+301440883+301622405+302511870+304058506
2993+306216744+309029034+311975719+314598232+316661015+317988818+318962755
2980+320023538+320873284+321054238+320806954+320271212+319083510+317602992
2966+316515386+315755285+315280417+315128623+314768309+314196603+314118332
2953+314356829+314288090+314070533+314026597+314107525+314137572+313980782
2939+313620574+313053900+312318247+311527922+310750104+310021750+309428501
2926+309046998+308816828+308582759+308006625+307134060+306789159+307029357
2912+307056144+306971637+307284720+307821028+308238071+308339798+308214224
2899+308391281+308801343+308815835+308767895+309285035+310042726+310642991
2885+311145001+311479769+311568315+311517079+311395758+311313341+311341121
2872+311249917+310805095+310251779+310013317+310190941+310520536+310585909
2858+310264429+309805576+309447281+309003416+308193886+307318700+306806308
2845+306754966+307057419+307428151+307732518+308155548+308616527+308839327
2831+309204957+310075750+310929287+311226496+311200595+311390585+311784985
2818+312064124+312308290+312642845+312772104+312602771+312589519+313040010
2804+313834623+314640999+315409462+316234901+316836725+317263334+317785541
2791+318243614+318423257+318322877+318183768+318168320+318220158+318342117
2777+318583590+318822406+318768442+318436616+318171579+318083494+318012841
2764+317968054+318031868+318132639+318313558+318643542+318916480+318817162
2750+318521867+318585716+318870382+318832044+318585574+318570764+318791013
2737+318904823+318847599+318885689+319070293+319239236+319330298+319280657
2723+319122698+319106293+319369522+319725939+319857040+319740360+319545303
2710+319477804+319902642+320610834+320874382+320706679+320611897+320512827
2696+320225575+320170123+320383569+320348987+320284499+320513536+320515591
2683+320029349+319638881+319717967+319783836+319449777+319088612+318958326
2669+318883209+318756289+318533985+318207047+317879402+317638814+317445210
2656+317192044+316980759+317047301+317241047+317181945+316879882+316584870
2642+316402675+316247515+315979680+315731085+315683676+315613271+315389230
2629+315368467+315607850+315743663+315830048+316079777+316405403+316678554
2615+316838638+317018317+317351526+317677294+317912779+318162721+318367912
2602+318569134+318977141+319459663+319926311+320515697+321144414+321716793
2588+322128096+322380093+322706250+323029538+323280366+323673526+324067183
2575+324183615+324154666+324173871+324196016+324199489+324277440+324417612
2561+324588893+324778139+324812403+324668511+324595094+324675172+324752132
2548+324836709+325101994+325361148+325378829+325396935+325612862+325905925
2534+326200193+326503887+326661066+326527449+326324137+326350817+326677010
2521+327173351+327612964+327977601+328331113+328589984+328857961+329204776
2507+329363550+329387927+329638046+330092116+330549906+330869260+330968472
2494+331111726+331514737+332002574+332486017+332978353+333436887+333905980
2480+334347223+334535619+334417947+334276818+334277350+334266933+334127115
2467+334011570+334166658+334504438+334741022+334763521+334616015+334520595
2453+334599326+334747647+334903445+335020727+335189493+335566850+336085053
2440+336605204+336993759+337174997+337159336+337023629+337017073+337150477
2426+337121564+336953755+336917791+337091836+337397868+337756766+338085829
2413+338274826+338380061+338586705+338850430+339111710+339501186+339895339
2399+340124765+340362341+340612389+340762199+340993503+341321113+341464580
2386+341299428+340724675+339411612+337274598+334705872+331923346+328827950
2372+325509469+322183087+319079293+316336239+313877567+312205677+312287562
2359+313886354+316145965+319508134+324702455+330188847+333015062+332247271
2345+329750403+327952444+327160064+327427439+328864481+330382203+331116084
2332+331473493+332562020+334724829+337321227+339799671+342162107+344579677
2318+346905795+349016696+350903130+352519993+354099510+355870398+357781069
2305+359586858+361055329+362372609+363716676+364974606+366177013+367394337
2291+368607090+369792135+370929240+372060746+373127305+373974677+374720144
2278+375577118+376466017+377267787+377975129+378671594+379456462+380237504
2264+381113470+382223150+383268095+384151112+385069065+385909776+386486442
2251+386912449+387369353+387861371+388395412+389061262+389858851+390692263
2237+391315204+391471781+391473234+391876883+392610551+393322322+393899768
2224+394297571+394649700+395205143+395814797+396190489+396441742+396677688
2210+396934362+397437045+398111967+398645476+399058160+399631106+400436632
2197+401179478+401772514+402467065+403187233+403730345+404317748+405154242
2183+406051751+406755691+407316236+407984885+408782439+409646925+410605803
2170+411574461+412603213+413782766+414975110+416096057+417077542+417912087
2156+418840281+419961370+421145955+422348893+423594138+424865497+426154785
2143+427453215+428664763+429860580+431272004+432757483+434096128+435471907
2129+436963162+438423164+439935465+441570221+443181167+444730034+446399479
2116+448358055+450384696+452253981+454214505+456307441+458190757+459891064
2102+461821860+464080444+466406810+468838411+471611831+474689370+477871116
2089+480891218+483628745+486399082+489366992+492360945+495683996+499697913
2075+504012866+508139388+512038894+515887872+520051988+524871821+530089173
2062+535344615+540831361+546479007+551871750+557106181+562496196+568276501
2048+574572671+580946509+587088087+593469932+600164365+606658533+612993962
2035+619407768+625730512+631930447+638254254+644697895+650979821+657064245
2021+663232928+669511523+675571003+681160149+686127524+690588424+695180779
2008+700424245+705949896+710881625+714939515+718455709+721844842+725702608
1994+730135020+734334782+737752261+740660431+743520909+746252696+748037722
1981+748828863+749537586+750638550+752532000+754908751+756537165+757443533
1967+758585314+760129824+761239149+761311077+761128245+761450257+762122131
1954+763005325+763999778+764914578+765575255+766139981+766833894+767538508
1940+768691912+770369435+771466572+771784403+772435867+773805623+775177008
1927+776442521+778336254+780919507+783619617+786364231+789721900+793964889
1913+798268468+801907118+805508705+809672751+813909858+818445238+823772254
1900+828789517+832911398+837511052+842968248+848188044+853133592+858179698
1886+863042475+867588343+872140517+876883745+880910453+883796372+886560261
1873+889094829+890509513+891778923+894539056+898127817+900967035+902321980
1859+902607709+902545277+902419632+902437491+901850655+899672043+896736448
1846+894008771+891719893+890240367+888814628+886911327+884772329+882244776
1832+879150655+875924087+873441959+871327480+869298393+867378085+864311531
1819+860908437+858964815+857421510+854955610+852134817+849608114+847316401
1805+845208442+842841824+840214422+838756156+838765864+838463624+836670590
1792+835077396+835704837+836636858+835879804+834124187+833362314+834243028
1778+835206654+834257413+831309062+828914311+830282649+833824710+836608299
1765+837785655+837455706+837184150+838304177+840019259+841413321+841509485
1751+840039101+839162993+840584339+842637803+844046817+844834981+845122128
1738+845562697+846012550+847006649+849691239+852045881+853926079+856396443
1724+859077490+861112175+861173048+858786234+858444451+863503029+869241630
1711+872933217+875018003+876178422+877320346+878009228+877029940+877420408
1697+881936725+889074278+896251445+900626173+902659015+903326283+902466545
1684+903984622+909962536+915195797+918652819+921692515+925918426+929581383
1670+931639028+936324429+942938572+946811715+948721535+952528561+957256127
1657+959000902+956178478+954878667+961393881+966579237+970459467+977529911
1643+983324922+985085712+984275367+981847734+981608210+986668488+991364094
1630+993209002+993879884+994335193+994964265+997170868+999195561+998715661
1616+999025201+1003621312+1008263840+1009657052+1009426669+1010523380
1605+1012373886+1014659646+1019518243+1025363992+1027363599+1026033103
1593+1026324430+1028549175+1029028366+1027444456+1027040666+1028123487
1582+1028421193+1028698914+1030036780+1032892014+1036869258+1037826152
1570+1035542376+1035677800+1039284844+1042761141+1042414964+1034004386
1558+1024735701+1030853432+1041680942+1049133279+1053156231+1055771870
1547+1056515105+1054502530+1051914459+1050814629+1054497641+1062127496
1535+1067046611+1068309856+1070297486+1072027308+1069925230+1066525325
1524+1063035280+1058896888+1059395284+1063012249+1065323875+1066521215
1512+1067076232+1066277013+1060125976+1054695993+1062756992+1071375418
1501+1073400110+1072276541+1072328769+1073741823+1073406418+1070613049
1489+1067867514+1066389406+1066438728+1067896286+1067897136+1064770417
1477+1058899793+1050661914+1043828444+1045201672+1052631545+1056059087
1466+1050346351+1042696371+1041296214+1038772417+1028272730+1020934344
1454+1022180227+1020180479+1014363217+1008971501+1003555762+997850396+993054019
1441+987703476+979569557+969504557+962426531+957945930+952422192+947321166
1427+944125778+941627493+940351421+940287784+941471022+947181703+956616284
1414+965534399+971678280+974575466+974035897+972050819+973746200+979813900
1400+986628520+991305276+993480558+997756925+1005243986+1010253242+1010156298
1387+1007557667+1006547270+1007546400+1009246883+1011913545+1014433657
1375+1015609383+1017848656+1022095685+1026093409+1028534152+1028979257
1364+1028093795+1027710555+1027142641+1025103846+1023767397+1024373225
1352+1024743638+1023319670+1020250848+1015767625+1010965296+1006831510
1341+1002729401+998832093+996166920+995300946+995437361+993849837+991501502
1327+992280525+995525872+998192392+999572848+1000912415+1004036087+1009035138
1314+1014014276+1017685028+1019970576+1021643493+1023458070+1025233600
1302+1026690378+1027869081+1029673312+1031579092+1030881069+1028577734
1290+1028551585+1032009174+1038752645+1048374524+1057883514+1063443181
1279+1064789409+1064799188+1065450299+1066348021+1067017202+1066206077
1267+1062747425+1059309820+1058181432+1058660198+1059829617+1059833656
1256+1057638816+1055324922+1054520672+1054145086+1052780291+1050654119
1244+1048651395+1046021512+1042505105+1040030843+1038265801+1036243376
1233+1035484408+1035208317+1032548459+1028468672+1026596978+1026977099
1221+1026721205+1025248695+1023943568+1023248450+1022712921+1023135704
1209+1025275127+1026808653+1025930490+1024328438+1023234632+1022464680
1198+1022674725+1023741177+1023754570+1021903285+1020042858+1019756633
1186+1019217844+1016992249+1015250309+1014863455+1014791952+1015126365
1175+1014431814+1010307099+1004142385+999689280+998975453+1001183191+1003583257
1161+1003011233+999058720+995656123+994937974+994053929+990991556+986979871
1148+983967528+982850053+982561702+982111849+981570722+980039110+976533829
1134+971853246+968185683+966882399+966255808+964283343+961943938+959678232
1121+955888568+952089054+950881297+950585505+949118947+946136581+940511010
1107+932578631+926524395+925250024+925582879+925713484+927178553+927184647
1094+923968213+919799490+916128668+914378082+914653535+915904379+917914331
1080+919867946+921043602+921651484+920907895+918278437+916311571+917101365
1067+919675263+922163770+922915013+921847285+920992720+922517813+926146116
1053+929271276+930510214+931303481+933760593+937600005+940224359+939210560
1040+934891604+931093436+930916698+933137829+933951363+933354606+934720180
1026+935322535+930944831+926036771+925497132+927744625+929082066+927176569
1013+923551879+922511010+925216080+928947422+930519994+929170364+927385905
999+926609575+926626654+928735109+931671838+931704011+930572647+932227706
986+936060456+939760759+942370515+944691708+947322795+948838604+949658658
972+951340575+952673268+953209931+954406987+955397826+953795349+950074708
959+947096239+946290288+946697976+946362854+944713677+943867120+945695515
945+948578954+949870403+949292780+947445038+945559808+944898777+944456506
932+943382897+941912088+940397413+939394669+938471081+937088357+934361602
918+930124849+927340126+927055460+927072397+926805093+926016433+924098392
905+922052298+919557485+916568599+915340078+915497187+915773491+915254615
891+912921020+912040023+913939213+915152285+915055554+915401589+918051385
878+922423562+923888064+921767562+921021704+923850151+927923702+931166994
864+933474935+935461998+939163364+946482687+955246245+962097928+967377252
851+971518124+974439901+979945993+989606068+998821817+1004932745+1007782806
837+1007386882+1006869282+1008402240+1010065449+1009461676+1009169853
826+1013823861+1019642399+1018282139+1012369563+1012789936+1020038465
814+1024291446+1022756787+1018478011+1015352142+1018193628+1023826995
802+1024457483+1020015788+1015694847+1014372571+1016186935+1017593612
791+1013215270+1003846239+995143129+991848317+994055701+995020532+989351662
777+980407751+973562801+969247458+965895175+963625217+961385944+957808876
764+955162199+955428156+957057704+956725558+950195887+939890088+935171096
750+936727298+937435810+936774140+938084936+939540793+938680842+937610209
737+938233186+938862399+936885966+932799447+928826384+924326437+919329157
723+915991331+913308724+910136864+908138888+906506931+903925095+902568520
710+903905749+908835423+918232871+927806065+931474762+930321287+929915654
696+930550041+928725968+926445947+927142341+929195238+930359980+930748038
683+932278800+935151963+936840612+937681783+936520088+928804274+914008732
669+898029172+900383531+920409853+932833746+933529147+928876202+921459439
656+911983827+906186903+908776321+916456916+924489923+929050672+926220808
642+919684759+915683350+912684259+907686342+902222769+897594414+893743097
629+893662240+905672279+928179100+933673712+906768991+870618472+844587449
615+833974236+840158509+855144183+862016558+862520977+870441805+880935185
602+884993500+880617850
##END=
