##TITLE=Sample description
##JCAMP-DX=4.24
##DATA TYPE=INFRARED SPECTRUM
##DATE=13/9/2023
##SAMPLING PROCEDURE=Instrument type and / or accessory
##ORIGIN=Default
##XUNITS=1/CM
##YUNITS=ABSORBANCE
##RESOLUTION=4
##FIRSTX=4397.6552
##LASTX=599.8556
##DELTAX=-1.9287962
##MAXY=1.7326597
##MINY=0.33928663
##XFACTOR=1
##YFACTOR=1.6136651e-009
##NPOINTS=1970
##FIRSTY=0.38596618
##XYDATA=(X++(Y..Y))
4398+239186051+238821627+237757219+236759558+236578232+237618224+239512394
4384+240331481+239027885+237462292+237174365+236612270+235694061+237042240
4371+239832992+240867129+239791438+238060771+237393127+238788235+240575490
4357+240223255+237931693+236384735+236687973+237202253+237285381+237357113
4344+236768589+235382364+234161526+233593226+233829237+234814802+235229240
4330+234435639+233641207+233530303+234352290+236252868+238030464+237831722
4317+235707949+234065711+234115022+234920258+235863806+236409945+235881592
4303+234993690+234630484+234703232+235309136+236161836+236288568+235643586
4290+235191176+235350653+235464587+235716094+236831179+237350150+236140560
4276+234648731+233382461+232178873+232559698+234829171+236604365+235882829
4263+233458145+231876189+232120789+232729998+232717476+232809764+233107738
4249+232779697+232179205+232190416+232744680+233355145+233991319+235281506
4236+237058769+238004571+237806789+237043385+236245259+236078117+236221619
4222+235948172+235690810+235909387+236323807+236361114+235679009+235127219
4209+235654519+236492001+236282769+235124929+234292913+234125568+233874246
4195+233371656+233152156+233717391+234614989+234827213+234808910+235395274
4182+235493029+233875317+231876780+231706332+232911434+233396700+232528984
4168+231467015+231692074+232292400+231582370+231038947+231825566+232730293
4155+233188761+232990776+232369987+232160109+231876041+231109313+230661816
4141+230880984+231493813+231877057+231793431+231802000+231758008+231429246
4128+230985923+230495228+230736743+231411830+231219552+230865710+231304435
4114+231794280+231620527+231246480+231407508+231242250+229900129+229256919
4101+230590323+232317924+232746527+231753926+230934081+231301203+231486462
4087+230799167+230180170+230092794+230521712+231190833+231535090+231691539
4074+232102930+232068208+231298451+230933287+230951571+230471495+230110303
4060+230679232+231424481+231708475+231769754+231273019+230531426+230326147
4047+230211456+230352723+231096292+231619363+231730046+231679239+231238409
4033+230646856+230658861+231557308+232706247+233014490+232207813+231150276
4020+230901447+231580486+232092569+232012562+232056942+232517700+233146578
4006+233598729+233628316+233223279+232806052+232648108+232262333+231717580
3993+231739225+232652448+234084272+234595818+233746682+233056137+233032996
3979+233036579+232886963+232733581+232913614+233284650+233404383+233575274
3966+234123629+234286837+233675153+233398805+233852157+234174159+233822515
3952+233092613+232934373+233732812+234033797+232841087+232306769+234179829
3939+236387210+236437020+234276679+232101489+232078735+232963756+232323926
3925+231639845+232872872+233653600+232767397+232782726+235324151+238123417
3912+238791929+237433758+233778042+227789044+223141908+222988489+226418480
3898+231326006+233877921+231621986+228532890+230147536+231824495+229794580
3885+228677186+228741346+229307043+232448608+232854348+229320913+226177981
3871+223859677+224688627+226940111+226650835+228741346+234196654+236062752
3858+230916296+218768720+210258391+219935130+232993528+238887874+237408474
3844+231954386+226720813+222945808+222272937+225901264+229953984+232871006
3831+235455278+236649927+236316031+233262580+225372172+221386180+225966274
3817+229660183+233940511+240020782+241623460+236761977+231006904+229859128
3804+228369756+227378466+231781463+236009543+239661510+244510472+247547467
3790+248026453+247225410+246284650+246323749+245543408+243829622+246128774
3777+251335475+253222590+250191135+246038333+245650471+248220375+251908060
3763+254370827+252657428+251623217+255638778+258460909+255549814+255254444
3750+269755249+288649004+309098471+341037696+368947620+379990804+377897264
3736+370747987+369374358+376030372+383972327+387424795+386449425+385529387
3723+388500893+395744508+404403639+411084771+414467686+417821863+430385872
3709+454551042+484140400+516116803+550745534+584381757+605359005+609999344
3696+605325171+594034949+573983021+551961626+541209287+539078403+534543816
3682+523534393+507752838+489315556+471863247+465816959+464493823+458721463
3669+457495399+460111271+457839619+451630732+444943025+437092713+427840883
3655+420977317+412815992+397225957+384267124+387447659+396558683+400913680
3642+399906507+396880038+393736774+390056291+385595247+378942446+369303918
3628+366791028+372083793+372842081+365505162+354391501+347950389+345534274
3615+341495868+338786840+339266325+340592194+343558343+346748002+346771161
3601+344264070+341085382+337823881+335850425+335428673+333234073+326613112
3588+320773599+321451660+323315005+322551619+320790406+319108940+317464375
3574+316119852+314146728+309012204+301645698+299087633+302213592+304477377
3561+304209765+303593704+303150547+301769881+299609116+298006474+296621671
3547+294967890+294237526+294886129+295681281+295205878+293446271+291690155
3534+290564579+289355524+287649237+286387583+286003988+285704167+285381869
3520+285387964+285357140+285139098+284638448+283217798+281577166+281147011
3507+281227775+280747478+280394300+280622740+280809182+280573225+280114333
3493+279868200+279633112+279184045+278889414+278317327+277210035+276651098
3480+276820955+276566197+275749769+275437168+275750489+275697964+275237355
3466+274898361+274427169+273979598+273975258+273889489+273517474+273258025
3453+273034554+272356807+271353513+271094212+271541081+271639686+271501059
3439+271596949+271876990+272085225+271909828+271557112+271495907+271528652
3426+271210953+270617017+270227900+270540243+271152056+271338092+271264974
3412+271015462+270467144+269981361+269867742+270139029+270607284+270967554
3399+271278788+271876159+272403164+272409739+272342291+272514770+272577767
3385+272470538+272662631+273126824+273469455+273560746+273293190+272919789
3372+272721343+272709615+272924813+273049514+272990912+273193791+273529128
3358+273384573+273027684+273381230+274406059+274950868+274131965+272694822
3345+272209815+272796363+273328243+273063347+272308863+271962648+271783465
3331+270774223+269503779+268980412+268551328+267476560+266403823+265861951
3318+265230727+263797666+261837285+260074372+258482406+256713029+255004267
3304+253620517+252458354+251654023+251436332+251474286+251395350+251279164
3291+251414521+251751778+251691570+251270188+251423183+252243969+252749901
3277+252781243+253033341+253613628+254414302+255208900+255239410+254599802
3264+254470983+255018931+255388878+255377316+255172775+254854448+254802034
3250+255324644+255774006+255435548+255077865+255328208+255425704+255114248
3237+255116870+255734224+256536394+257428083+258599849+259346336+259154557
3223+258897380+259402351+260463822+261415017+262245204+263112753+263335634
3210+263308965+264263225+265511064+266106237+266706230+267708176+268880773
3196+270205885+271468961+272537007+273354949+273926833+274772848+275815721
3183+276259653+276377428+277332963+278848598+279639595+279704235+279709222
3169+280318449+281811719+283207252+283923986+284743535+285875871+286788909
3156+287422072+287805667+288046443+288365232+288531266+288373414+288808610
3142+290520291+291643023+290648261+289229457+289205392+289851816+289349227
3129+287947174+287739235+289432668+290822882+289927888+288155243+287531499
3115+287783301+286935236+284572404+282942854+283420806+284525198+283577420
3102+280604659+278732097+279703312+281213554+280302825+278294444+278284323
3088+280613210+282251865+281019374+279064146+278800284+280301643+281656397
3075+281042940+279773955+280046738+281529258+281923159+280777286+279934226
3061+280415465+281419960+281154066+279844320+279203308+279262574+279275521
3047+278844406+277904773+276828287+276020003+275366414+274498754+273484673
3034+272492922+271575433+270897096+270199551+269180059+268277604+268651706
3020+272883554+280705147+285032164+281680702+275134909+269957426+266950460
3007+265125566+263697768+262708898+262278060+262271910+262490542+263319086
2993+265553856+269015964+272338856+274644250+276125515+277132485+278104549
2980+278887438+278673459+277851620+277190698+276554174+275982161+275100797
2966+273322001+271503885+270899441+271690308+272354480+271424303+269958128
2953+269488708+270329533+271580992+271551904+270445074+269850326+270300888
2939+271210122+270903172+268917988+267090952+266512382+267232625+268379810
2926+268091642+266611042+265767539+266122138+266845152+266467337+264982009
2912+263999880+264326056+265633899+266671897+266376730+265607471+265542276
2899+266209791+267014159+267151141+266853961+267137881+267969121+268678763
2885+269000728+268977069+268795208+268811793+269374922+270220476+270614653
2872+270300427+269754842+269602014+269776358+269576656+268758769+267951058
2858+267762696+267987793+267992853+267453493+266661111+266184876+266165466
2845+266415532+266724625+266898341+267133984+267791489+268692799+269497204
2831+270341593+271139257+271395031+271236994+271145758+271159536+271140310
2818+271160422+271408513+271814972+272099686+272312760+272750579+273343332
2804+273854491+274259048+274558962+274833204+275169981+275466385+275638624
2791+275804289+276003806+276039543+275936266+275823330+275705666+275774406
2777+276023217+276146200+276027686+275761349+275482250+275249821+275154079
2764+275273572+275473219+275608705+275631052+275607689+275737524+275875947
2750+275695249+275475176+275605178+275829536+275866104+275922322+276083776
2737+276074246+275846434+275603589+275522327+275714512+275985578+276000796
2723+275800540+275646141+275558008+275417369+275189244+274993863+275077729
2710+275341186+275366894+275081903+274737683+274540161+274602880+274809952
2696+274820405+274550004+274204381+273837167+273450137+273251469+273295092
2683+273270362+272991152+272488471+271872299+271402270+271123153+270873788
2669+270674086+270526687+270237061+269760346+269327033+268989997+268598405
2656+268189600+267933864+267907878+267949729+267824178+267597327+267456817
2642+267388464+267342514+267381040+267524782+267667933+267762437+267868688
2629+267949064+268003177+268187883+268459243+268675512+268924858+269187797
2615+269371764+269656552+270085968+270469231+270774002+271092014+271521818
2602+272018220+272382645+272653877+273103571+273765121+274380111+274799498
2588+275045705+275108979+275057783+275091507+275336051+275746242+276110038
2575+276281280+276431819+276717124+277031609+277297281+277440155+277337377
2561+277121995+277040049+277017979+276877210+276864929+277192083+277448799
2548+277438493+277527715+277765777+277882444+277918015+278080687+278386659
2534+278804920+279175771+279242924+279219745+279424176+279706728+279862937
2521+279903568+280014602+280392601+280858345+281024601+280893214+280851678
2507+281087339+281406367+281706410+282055598+282367479+282557319+282639634
2494+282683424+282841978+283118307+283481623+283973907+284477179+284908424
2480+285286331+285485313+285381482+285176276+285132579+285076748+284846831
2467+284716331+284821566+284944272+284865669+284597835+284429881+284571905
2453+284845963+285034824+285199805+285399433+285570749+285713531+285847650
2440+286078380+286465041+286710952+286672223+286618091+286684523+286817867
2426+286987521+287166834+287294988+287335860+287353072+287406355+287576396
2413+287898269+288166065+288275160+288444444+288768219+289049590+289223676
2399+289523867+290295342+292102672+296054885+303843955+317357736+337831379
2386+364887605+396330742+429216692+461809174+494353785+528181270+564634267
2372+603335314+641751980+676287814+704854633+728410741+746145954+754836888
2359+750906524+731440793+701563803+668568629+638150285+621637332+627716716
2345+649876589+661505158+652638549+639889816+631149755+627131553+629571640
2332+635530682+636849791+632295406+628436183+626859029+622396322+612363820
2318+597399247+581475483+574243171+578257974+581313476+571614703+550080070
2305+525965098+508363894+497712358+488438920+477870419+465286353+449940992
2291+433895409+419802079+407706104+397020290+388019266+380871909+375446761
2278+371226622+367384132+363677387+360423015+357745863+355542361+353754072
2264+352278200+350919678+349547305+348219072+347071241+346046449+345013272
2251+344060065+343346433+342842496+342464626+342143640+341781062+341459300
2237+341293636+341166608+341084570+341237565+341464656+341492618+341519065
2224+341797684+342158821+342424660+342715948+343095000+343498653+343906442
2210+344385927+345051281+345779982+346444819+347154129+347915224+348674399
2197+349520673+350535529+351588172+352476074+353273701+354234443+355254434
2183+356082164+356871148+357740507+358634652+359539878+360313643+361038835
2170+362009366+363078816+363910499+364589446+365265253+365852485+366457187
2156+367225708+367984587+368589105+369117643+369757399+370629492+371575312
2143+372618905+374065301+375839332+377684468+379534368+381407318+383306049
2129+385192666+387075293+388948833+390834674+392804547+394824877+396825962
2116+398808135+400734053+402656129+404734414+406916936+409198931+411613420
2102+414113160+416815614+419634605+422428700+425361273+428574017+432079934
2089+436019163+440442568+444973351+449602978+454784302+460539597+466453723
2075+472311151+478494181+485178194+492000353+498909611+506275969+514246513
2062+522521643+530853582+539151724+547501135+555981378+564405588+572770032
2048+581001059+588838628+596322078+603532819+610443849+617348563+624471689
2035+631414818+637802556+643511605+648624263+653663858+659145890+664765847
2021+669515705+673280959+677158725+681749752+686377938+690545293+694513851
2008+698157064+701140574+703619371+706233286+709226843+711990132+713847051
1994+714611064+715575279+717940383+720608743+722687065+724409974+725800669
1981+726986656+728092267+728908141+729584835+730597585+731636192+731763848
1967+731299913+731705413+732906396+733713331+733846528+733671518+733741404
1954+734238951+734732066+735245201+735973533+736055682+735323803+735973163
1940+738761496+741772784+744311419+746530694+748607908+751070600+753526939
1927+755344409+756897185+759118306+762028163+765247334+770166661+776907447
1913+783096757+787926918+792690443+798531802+804782871+810498791+815615438
1900+820532845+826126428+832436523+838530239+842987110+846031936+850464945
1886+855992041+860690113+865252698+869420275+872072974+873726515+875259418
1873+875638175+873015986+870566813+873574332+878648206+881117916+881765134
1859+881562643+880355454+878424365+876006736+872960137+868947550+863467291
1846+856097386+850559948+850623333+851332679+848891411+845190428+841528229
1832+835903101+828549228+823588531+820919506+819066798+818652508+817848897
1819+815476332+812603856+809568190+805561586+801623687+800129272+799792994
1805+797985867+794475555+790679052+788779064+788426977+786149784+781022351
1792+778633386+782297431+785697891+785589960+784219434+782710170+781968540
1778+782785966+781812517+776282318+770690213+772474512+778883895+784197862
1765+785816682+783798273+782809680+784425692+786176231+787814258+786783852
1751+781852705+779073384+782142072+786968391+789765663+789506953+789222018
1738+790531524+788208824+784417566+789868423+799721705+807112072+810969300
1724+812454924+812561599+808419362+799840865+798355906+809047667+820545847
1711+827113470+828445951+825990055+824196078+822774725+818316156+817463714
1697+823704958+834465866+847756988+856326177+859399888+857888926+849919823
1684+847449743+861195417+875139519+881474363+883009556+885088912+886878974
1670+887687386+895148452+906326827+911839370+914695815+921679502+928301718
1657+926956605+915542052+907956802+917349696+923292781+925142681+935465586
1643+948466527+955059859+954398236+948003480+944964194+954662265+966704902
1630+972355368+971691972+967942379+964734585+966392559+969155183+966579019
1616+964838823+971102894+977815460+980812415+982327071+984642975+987958478
1603+991484452+993974995+994604557+994730883+995694211+996749883+997368585
1589+997984258+999148009+1001142630+1004307651+1008213710+1008466658+1001285652
1576+995355864+999901458+1003736746+1001632420+1002308375+1006812600+1009605217
1562+1005985349+989771589+979318296+996621784+1015538255+1025891744+1029858898
1549+1032072263+1032902321+1028089669+1017630096+1009192035+1018973954
1537+1037054088+1045006200+1047934009+1053501440+1055637236+1051474683
1526+1046475054+1040351123+1033099123+1033416711+1040318618+1049876917
1514+1057851783+1056487757+1045370255+1030678022+1030574228+1049951753
1503+1062494892+1062600976+1058450982+1059529629+1065841645+1067428477
1491+1060817933+1054685063+1058415670+1067803023+1073741823+1073188131
1479+1069431151+1062974044+1052723390+1043975572+1045757286+1053412125
1468+1054208201+1046727558+1040005980+1035438445+1023211859+1005164969
1456+1003926530+1017285322+1022770605+1017743272+1008690868+1003378822
1445+1002149618+998828943+990794534+978633771+965759599+959437757+955031122
1431+945072864+935512718+932346441+931501904+931037822+930940972+931548888
1418+938869074+951054733+959379766+963061837+967659586+973547709+976541709
1404+978529460+981640331+983968349+986008773+988493480+993072761+1001445591
1391+1008441836+1009328999+1008616476+1012190468+1016629978+1018337817
1379+1018335527+1017747557+1018723961+1023902958+1030554208+1034026401
1368+1033445744+1029826023+1026269318+1027565527+1032676485+1036023755
1356+1035686812+1033763628+1032111121+1030699372+1028856416+1025020833
1344+1019360024+1013201298+1006756085+1003083914+1003703207+1003944851
1333+1002073158+1000673007+1000320403+1000637695+1001579009+1002903807
1321+1006003744+1010584133+1013156160+1013631397+1015665025+1020370041
1310+1024722378+1026395496+1027326615+1029480141+1031365723+1032196889
1298+1033341507+1034583121+1034883866+1034634612+1035729881+1039848405
1287+1045826876+1051273743+1055071946+1057938955+1061247810+1064327136
1275+1065800201+1066278689+1066369998+1064197191+1058863869+1052798964
1263+1047997615+1044507249+1041830689+1039293235+1035589814+1030730326
1252+1026957462+1024813762+1023485787+1022947092+1022909563+1022618718
1240+1021038461+1018328952+1015976703+1014784215+1014983012+1016165157
1229+1016902502+1016026494+1013750631+1011136939+1009602632+1009613713
1217+1009432276+1008264315+1007625740+1008218586+1009460866+1011058705
1205+1012804812+1013725514+1013668704+1013466583+1013429423+1013696112
1194+1012686021+1009673847+1007621086+1006928435+1005737794+1005193189
1182+1006230022+1006450465+1003501750+999188935+997115711+997756058+998646842
1169+998098838+996624295+994953542+993223171+991232169+988372695+984330188
1155+980250892+978409635+978986598+979588900+978291879+975362297+973068187
1142+971684141+968533378+963915756+960914147+959861799+958764166+957012815
1128+955228441+952939798+949902507+946699736+943118209+940082026+938641170
1115+936399216+931639976+928037468+928297803+928053720+924676531+921729737
1101+919650159+916746508+913684394+910355150+906280803+902775884+901940655
1088+903874994+906421461+907656132+907547166+908765732+912684720+916292547
1074+917806981+918907791+919708077+919236017+919380368+921060726+922280326
1061+923853713+927996246+932870435+934359014+931403133+927346147+926120711
1047+928745632+932290296+933569957+932768636+931132751+929835804+930065037
1034+930540496+928815296+926026594+924614698+925077154+926967464+927895259
1020+926837740+926603335+928214324+929096464+927294582+922482078+915593173
1007+910810810+910893476+912739830+913383281+914585077+917085150+917528178
993+916908146+918832290+921131129+922823011+926623429+932600718+938917241
980+943519866+945316946+945490035+944537049+941868172+939171223+938011830
966+937784739+938017888+938580741+939480832+939998326+939034259+936833526
953+933811084+930975028+930603364+932313493+932476830+931026076+930468394
939+929704528+927642385+925427764+923462176+921120786+917976302+915191811
926+913238338+910768110+908386015+906679580+903819736+900078787+897275310
912+895932043+895887644+895527947+893437289+889950247+886836274+885900871
899+886157290+885934114+884255382+881227768+879123295+878284594+878478220
885+881189427+884522735+886111266+888512495+892755424+895885945+897892830
872+900817092+903814417+905613639+907321626+910814725+916450048+922458217
858+927440485+932967433+941410222+952723936+964877459+976712434+989247004
845+1002470531+1013805816+1021852340+1027527998+1029735231+1027186622
833+1024710854+1027043010+1032446291+1037190756+1038374380+1035315517
822+1031695058+1031494561+1034851435+1038503365+1038254628+1035577034
810+1034676869+1034189295+1033096464+1032234270+1030215787+1027014642
799+1024151104+1021661891+1019986113+1022736992+1027382760+1024815904
787+1015634736+1005645598+997204583+990915541+984633445+978468218+973745693
773+968039599+960422214+952574265+947550848+948583988+952581579+952925319
760+948346702+943630457+943072924+943589604+941808481+940856825+940179393
746+936549478+932634627+930471349+929008996+928430334+928236561+928025943
733+927828624+926586935+924849103+922044074+916921591+912850495+911602379
719+910381671+909185415+909972330+912249227+916283829+921423968+922740640
706+920700069+923189725+931527390+938603568+940204141+937391282+934606642
692+937325311+943672640+947394972+948331263+949184369+949354799+947744696
679+946412141+947181844+949488438+952246409+951801091+945823211+942173793
665+944089737+942942165+939268220+938743709+941226791+941082070+938799189
652+940364893+944052357+943106167+937450677+934836024+939449879+943191049
638+941292687+947303442+971958586+992517370+980128408+955641476+943358302
625+937129321+931164960+927162642+922772554+919086125+921762611+929999363
611+937106642+932985385+918730195+915198460+930107294+941754036+935751777
##END=
