##TITLE=Sample description
##JCAMP-DX=4.24
##DATA TYPE=INFRARED SPECTRUM
##DATE=13/9/2023
##SAMPLING PROCEDURE=Instrument type and / or accessory
##ORIGIN=Default
##XUNITS=1/CM
##YUNITS=ABSORBANCE
##RESOLUTION=4
##FIRSTX=4397.6552
##LASTX=599.8556
##DELTAX=-1.9287962
##MAXY=1.7033165
##MINY=0.30884135
##XFACTOR=1
##YFACTOR=1.5863371e-009
##NPOINTS=1970
##FIRSTY=0.33562398
##XYDATA=(X++(Y..Y))
4398+211571669+210515827+210332016+209403362+209143765+209907471+209990997
4384+209781523+209586290+208346751+207476993+207855962+208001297+208242803
4371+209120714+209595327+209518225+209848292+210745816+211066396+210354223
4357+209174162+208079545+207527868+206887743+205949902+206064070+206745958
4344+206562899+206258326+206358141+206160559+206032564+206708572+206868411
4330+205116666+203128620+202496310+202539125+202983209+203608380+203217519
4317+201896464+201091521+200814865+199980352+199177307+199807907+201094790
4303+201458804+201429121+201572014+201203491+200592692+200212971+200172241
4290+201193383+202933875+203760723+203530772+203437157+203394736+202919484
4276+202632928+202161885+200611159+198937530+198156090+198114872+198373567
4263+198696983+199423133+200145602+199775801+198795727+198504455+198996559
4249+199479813+199493284+199079334+198513416+198065011+197571780+196935431
4236+196789344+197228300+197053939+196591782+197639000+199399500+199984598
4222+199759268+199694623+199952773+200333809+200064799+198702037+197719971
4209+197869872+197837840+197655401+197783997+197512489+197110337+197197264
4195+197386993+197529623+198049568+198675754+198545636+197476381+196240429
4182+195705417+195789206+195994866+196292056+196545942+196619774+196934623
4168+197481096+197479462+196666478+195479768+194688351+195057438+196157128
4155+196755190+196544533+196141554+196139863+196598132+197061735+197010598
4141+196534237+196464651+196952509+197191515+196898064+196557420+196705536
4128+197120632+197370197+197771260+198354930+198469493+197936622+197359996
4114+197353026+198145306+199047358+198860842+197978723+197678264+197854091
4101+197468622+196692367+196780195+197512339+197982574+198468065+199247514
4087+199736405+199570404+199646660+200626546+201654808+201749832+201176269
4074+200907316+201019455+201124661+201570267+202167051+201946831+201184122
4060+200842933+200827810+201129301+202130473+203171830+203319119+202735598
4047+202434783+203143593+204182864+204252564+203420493+202983679+203441666
4033+203784207+203382806+203241041+204030484+204896127+205090646+204853030
4020+204746076+204953427+205251500+205527047+205720270+206165444+207476430
4006+208940134+209055880+207874279+206824431+206428047+206064258+205941485
3993+206929243+208509238+209329812+209664763+210675629+211786252+211523612
3979+210091469+208931887+208705712+209174106+209960769+210642789+211308803
3966+212423090+213669336+214376118+214429472+214167057+213789967+213212346
3952+212581069+212340447+212885454+213286328+212978205+213940412+216086381
3939+217263060+217305612+216241467+215147958+216293845+218266260+218055716
3925+216754255+217102488+217742989+217082105+217366519+220337608+223605811
3912+224541829+223448564+220524143+215223800+210657819+210391007+213943024
3898+219263411+222346019+220869051+218578461+220359100+222207259+220924134
3885+220312377+220579038+221418774+224571513+225455717+222852532+219988754
3871+217706562+218770162+221554997+222071787+224019141+228472946+230364935
3858+227030546+217641164+210993878+220237229+231657566+235922207+233832072
3844+228773292+223837209+220334132+220600981+225130159+229492266+232421835
3831+234848724+235790003+235162728+232579871+226930788+224581470+228090032
3817+230929462+235518571+241863632+244117400+240617668+235750852+234300242
3804+232664393+231997759+236460225+240558658+243748783+247986765+251053666
3790+252576944+253277601+253354401+253967887+254333160+253997833+256126819
3777+260270941+262288990+260787825+258412355+259070647+262431376+267314086
3763+271226528+270879065+270415555+274070317+276995678+275526601+275840755
3750+287203078+301887354+319989620+351330868+380011820+393982381+396742099
3736+395792084+401546993+413543242+423919273+430106018+435795060+444494513
3723+455539694+468300945+482908720+496538376+504279810+508071528+519736639
3709+541653487+563565038+580412885+594436501+611756764+632117607+647176568
3696+652695853+650173752+642450240+636429797+640768665+649061644+650729167
3682+646254583+640363093+633772656+627418032+627337774+628622309+626228560
3669+628635008+634117583+635504957+634311689+631257619+623823538+613718865
3655+608103730+603584096+591096570+577586286+578184348+586101552+589787350
3642+586542217+580184963+574529736+569109384+562345093+553968211+545332033
3628+544531299+550157781+551596105+545783557+536818008+532729382+532412785
3615+529989052+526186889+521871129+518011402+518171842+519889376+518149373
3601+513603099+509513646+507491126+507699811+507838571+504149429+496907801
3588+493484118+496897656+499467250+498293145+496145579+494679301+493423586
3574+492308810+490749575+486158625+479512879+478027476+482296869+485912254
3561+486885264+485993864+483819471+481081508+478954120+478287862+477710428
3547+476570441+476333012+476488455+475710114+474803685+474810786+474778586
3534+473230622+470521329+468292942+467649980+467725691+467426529+467133228
3520+466858038+466094426+465164513+464225658+462775048+461034481+459645417
3507+458426449+457191399+456750997+457492553+457492778+455192100+452580047
3493+451323581+449795456+447376307+445828644+445469739+444903804+444044116
3480+443786661+443583424+442431075+440670293+438934498+437616749+436916750
3466+435632404+432943212+430674133+429997617+429473351+428160298+426826242
3453+426371412+426144692+424686003+422358121+420161522+418250332+417109067
3439+416535353+415930679+415644104+415334684+414014567+412048521+410463246
3426+409171348+407570443+406217261+405867825+405842501+405363585+404227054
3412+402547057+401129812+400157929+399017490+397792924+397145190+396911519
3399+396121493+395116470+394675843+394076391+392686726+391042498+390128704
3385+390007303+389933095+389813611+389639156+389243091+388465915+386937152
3372+385101298+383784187+382757296+381644474+380976977+380829800+380305120
3358+379181439+378082144+377362757+377062280+377038495+376792199+376124175
3345+375430151+374932186+374441585+373290513+371168535+368846101+366943479
3331+365796991+365220759+364094073+362006174+359258894+356519654+354756055
3318+353267420+350651422+347597765+345551611+344150147+342373209+340480055
3304+338679108+336537366+334476145+333230274+332685755+332541585+332683012
3291+332657988+332489733+332646904+332381483+331227518+330134121+329403725
3277+328858079+328920151+329881400+330812252+330252629+328374768+326466735
3264+325035062+323848257+322711238+321943794+321899907+321869999+320971385
3250+319739153+318577147+317055372+315666834+315011886+314722925+314091780
3237+312959683+312419090+312958029+313639448+313921759+313654177+312776135
3223+311689070+311005584+310882737+310584251+310151213+310340284+310453306
3210+309894528+309526662+309744477+309938226+309780924+309686388+309958103
3196+310347536+310592799+310674653+310564431+310154745+309574907+309192387
3183+308979795+308572458+308139138+308057153+308280096+308706051+309141794
3169+309292183+309197911+309065426+308887627+308682004+308688730+309096856
3156+309887164+310445002+309962386+308900214+308353873+308550627+309237964
3142+309881133+309850060+309258667+308441175+307690057+307432376+307413702
3129+307184089+306915756+306966706+307371751+307458997+306701811+305632931
3115+304887825+304539892+304465477+304523547+304573107+304283564+303343543
3102+302339516+302005767+301866820+301716600+302398413+303752628+304734317
3088+305263882+305813943+306387882+306932946+307438125+307766783+308390432
3075+309593168+310517595+310929967+311539545+312223406+312270054+311730682
3061+311145509+310583048+310090776+309933905+309866573+309536319+309098303
3047+308978574+309440919+310449248+311812593+313098179+314053586+314855861
3034+315406035+315534049+315627231+316041670+316500671+316642061+316603247
3020+316835228+317714040+319115241+320557773+321868383+323186095+324814391
3007+326954555+329378062+332179937+335857957+340429481+345958948+352945375
2993+361430619+370623753+379784611+389107938+398559128+406986809+413728331
2980+419118962+423143939+425495267+426883730+428475242+430576479+432907254
2966+434896183+436490551+438525132+440940899+442922051+444919096+448014009
2953+451759361+454704317+456776284+458782047+460402528+460919731+460376715
2939+458832508+455886237+451562099+446937558+443166017+440388941+438100887
2926+435828313+433297458+430452786+427264803+423655693+419584389+414861630
2912+409579136+404667757+400829372+397767938+395110534+392739705+390598489
2899+388903198+387743973+387002981+387025487+388210113+390142531+392257784
2885+394618167+397200123+399755251+402242484+404313211+405265405+404983076
2872+404157468+403096422+401616542+399824462+397563950+394717925+391531182
2858+387590371+382275263+375828057+369035698+362201558+355139532+348229530
2845+342139087+337021241+332665240+328485610+324152116+320330339+317469661
2831+315021016+312611562+310395781+308547941+307119762+305684201+304123894
2818+303092945+302432323+301546860+300670884+300063843+299700035+299597909
2804+299803663+300152742+300211564+299988846+299680008+298972851+297968505
2791+297324434+296880932+296008488+294807537+293748164+293036254+292493745
2777+291742946+290673747+289478939+288272747+287145440+286312543+285700804
2764+285122074+284703747+284381477+283889430+283264108+282640140+282044464
2750+281534194+281197063+281017799+280834401+280466460+279908847+279316515
2737+278790239+278407813+278219080+278058941+277785798+277453439+277273236
2723+277448724+277674035+277590696+277405326+277217251+276917901+276705797
2710+276676076+276656218+276629315+276572692+276402877+276079292+275542288
2696+275009210+274709278+274526293+274248191+273661064+272817439+272063127
2683+271587312+271248922+270804613+270236441+269619499+268903268+268100129
2669+267430057+267019733+266619873+265976892+265248675+264726776+264398982
2656+264144457+263917662+263612751+263290782+263070581+262819719+262513493
2642+262321585+262173883+261915845+261720800+261738553+261819337+261881484
2629+262026030+262188612+262172436+262174879+262453676+262836271+263170865
2615+263419622+263663419+264162756+264898056+265622928+266156795+266432812
2602+266671180+267103222+267568404+267888213+268144259+268372858+268629411
2588+269001542+269338391+269489926+269454982+269251332+269002087+268838246
2575+268749554+268703112+268603655+268350201+268071441+267778798+267342041
2561+266942444+266672194+266452050+266369951+266334031+266179377+266005279
2548+265958857+266010389+265988878+265903191+265895319+265994364+266230496
2534+266539785+266745313+266818432+266878249+267070382+267446684+267907000
2521+268314262+268593716+268796784+269021945+269249097+269535803+270008763
2507+270466223+270740944+271043225+271449923+271847491+272202187+272463945
2494+272630246+272838349+273159191+273513549+273837416+274157995+274472488
2480+274651170+274637718+274521803+274308591+274014839+273809123+273820790
2467+273939072+273984048+274081796+274365722+274595523+274616095+274641457
2453+274758875+274792222+274775933+274826188+274857562+274942479+275188099
2440+275354964+275361164+275453163+275621080+275689690+275623767+275444803
2426+275324360+275459964+275733801+275965162+276212021+276447740+276562077
2413+276677804+276945931+277314773+277635578+277893485+278195465+278537931
2399+278864747+279198440+279516314+279736271+279875106+280007196+280115183
2386+279862631+278639756+276081979+272279608+267650578+262675793+257642056
2372+252622277+247540370+242530153+237969620+234302270+232116004+231750129
2359+233189073+236644017+242305105+249823201+257287848+261174327+259675435
2345+254910180+251293199+250398079+251364815+253431615+255628966+257203927
2332+258383705+260180539+262893533+265663114+267937153+270418580+273851863
2318+277697180+281004347+283621942+286058581+288579349+291039434+293472241
2305+295792796+297700435+299368597+301090057+302752452+304211798+305473994
2291+306623282+307805277+309066196+310346822+311518428+312320064+312715190
2278+313034755+313529620+314185808+314766473+315155624+315587328+316152325
2264+316719989+317232608+317658920+318047883+318484340+318893255+319195987
2251+319543281+320012577+320364305+320489313+320595083+320836307+321166129
2237+321494336+321724588+321871727+322193772+322655478+322895875+322922402
2224+323013180+323317002+323732117+324015272+324107140+324240940+324641815
2210+325118475+325344932+325492034+325952387+326614324+327239927+327981446
2197+328776732+329396060+329968346+330613825+331241833+331777635+332289953
2183+332938326+333737783+334511051+335216122+336014114+336872261+337678744
2170+338507884+339331614+340097179+340924027+341826924+342778780+343833513
2156+344897339+345939748+347092999+348276009+349376958+350488991+351679327
2143+352984602+354422738+355872033+357222922+358579222+360079805+361696867
2129+363315018+364758151+366061435+367544959+369187646+370699164+372122570
2116+373686653+375431541+377236810+379052599+380935833+382972068+385253697
2102+387671719+389927271+392043350+394357818+396981857+399808719+402756793
2089+405828448+409075121+412464161+416038854+419846390+423747786+427845505
2075+432359729+437143808+442042862+447086350+452188754+457419622+463170324
2062+469405313+475615804+481654133+487745665+494044342+500601001+507416805
2048+514386174+521299031+527978105+534705047+541964899+549411792+556460366
2035+563192945+569876151+576823163+583899730+590352572+596232076+602298509
2021+608379597+613765457+618789895+624217650+629875356+635255242+640166583
2008+644572331+648638789+652736432+657123695+661345257+664611994+666755202
1994+668226064+669945740+672572296+675804390+678794585+680571223+681334872
1981+682328773+683673688+684639183+685270497+686025955+686542895+686170314
1967+685684560+686261994+687156475+687418815+687467736+687319845+686618493
1954+685945623+685950958+686267479+686252224+685721833+684888748+685188887
1940+687390860+689557363+690692541+691803447+693300460+694994060+697171609
1927+699415364+700916511+703005837+706575494+710423874+715152005+721362121
1913+727387449+732562257+738025857+744447513+750991960+757430824+764202968
1900+770637249+776538057+783054624+789836312+794983616+799320079+805292503
1886+811918409+817188279+821177635+824606616+828137723+831601197+834206336
1873+835437853+834438842+832551963+834003513+837845279+839488229+838307962
1859+836326097+834369556+832315023+829941489+827053194+823249302+817670876
1846+810150113+803971109+802204315+801253173+798469334+795256477+791771886
1832+785828094+778389767+774059166+771999297+769645978+768122287+766585896
1819+763819340+760609714+757227325+753384657+750122954+748951028+748867615
1805+747629860+744303305+740421485+738883741+739077321+737446094+733597865
1792+732349364+735817572+738986468+739703976+739664449+739397525+738939876
1778+738985115+738013082+734052883+730086146+731814765+736851452+740930609
1765+742667343+741989212+742198949+744327728+746346641+748474818+748725210
1751+745368521+743116275+745662648+749484050+751206130+750797027+751127000
1738+752795725+751698497+750309620+755862345+763514842+769201706+772614305
1724+774339617+775387398+773252457+766979894+765759348+774507271+784401794
1711+790518200+792503748+792108547+792695524+793136716+790777610+791200615
1697+797584772+807982633+819875028+827387901+830653962+830523657+825335322
1684+825003395+837983926+850597211+856617580+859099852+862998581+866826219
1670+869730220+878083543+888402574+893528010+898238181+907701433+915870945
1657+916541336+908594336+906088467+920954223+930986342+934783771+945332979
1643+957571128+961842287+958750719+952624468+953859517+967443558+978807365
1630+982298117+982191709+981820405+982642594+987972131+993923363+993594217
1616+992230515+999406502+1008993371+1013336446+1013112882+1014181781+1018800122
1603+1023591151+1026057944+1028092938+1030896241+1033781831+1036610308
1591+1038464949+1038576844+1038059378+1038239206+1039434953+1040435317
1580+1037766603+1030050606+1026047649+1030838077+1033023592+1030539441
1568+1031872783+1037215922+1042191138+1042817568+1033798363+1028599884
1557+1043875946+1059880338+1069146778+1072895136+1073741823+1071427956
1545+1062700023+1049376143+1038832571+1043907357+1058139921+1065294942
1533+1066623174+1068184589+1067746404+1064230252+1061369837+1057489444
1522+1052082280+1052975859+1057179837+1059960370+1064238067+1067812534
1510+1063749082+1049340147+1042503376+1056558367+1067272824+1065672032
1499+1058527457+1057158570+1063398594+1066523829+1062063899+1058240544
1487+1062337887+1068857084+1072471980+1072720568+1070487710+1065472440
1476+1057393556+1048793223+1046976157+1052883879+1056141749+1051489892
1464+1045687302+1043346156+1036879938+1023171227+1016781960+1022842908
1452+1027405564+1024596926+1016064000+1008457870+1004428535+999732717+991554413
1439+980477894+968752853+961716490+957568648+951298865+946250080+943821237
1425+940423667+937661846+936229459+936740086+944929287+956647715+965020351
1412+970178702+972945633+975132426+979240591+984952328+989807684+991860639
1398+991572824+992872500+1000283548+1010588452+1015032000+1012920580+1010400433
1385+1012501031+1017955764+1022061599+1023806900+1025409120+1028252176
1373+1032186825+1034361293+1034861400+1037111617+1039081685+1037157006
1362+1035003053+1035641657+1036567850+1035575151+1031643508+1027713519
1350+1027555859+1028360689+1026101830+1022543520+1018974389+1014121287
1339+1009433059+1006361479+1004377660+1002873207+1001013606+999967853
1327+1001778683+1005707020+1008476130+1008734488+1010100444+1014256778
1315+1016790301+1017227810+1020224092+1024985664+1028126229+1030193537
1304+1032056143+1033240694+1033006459+1031889992+1032717066+1036060078
1292+1038901255+1040166063+1041391043+1044573164+1050576098+1056179548
1281+1059446361+1063220119+1066863120+1066972384+1064563230+1062105982
1269+1060541636+1060630009+1060985682+1057660405+1050286555+1043634121
1258+1039395951+1035905800+1033379416+1030719269+1027044105+1025240940
1246+1025505159+1024256207+1020368600+1016064902+1013727063+1014215522
1234+1015567801+1014291045+1011449567+1010758736+1011628869+1011992959
1223+1011817715+1011415150+1011735729+1013620729+1014906128+1013257692
1211+1010563202+1009771598+1010860035+1011566948+1010386155+1008754552
1200+1008239791+1008287585+1009143966+1010487679+1009362495+1005588136
1188+1002272027+1000759908+1000112212+999171140+998432139+998899556+999454746
1175+998536970+996461095+993769235+990450270+987587901+986471510+986323995
1161+985998757+986260270+986041591+982281735+976162623+971434717+969797178
1148+970422105+970220108+967619102+964454866+962557166+962121009+961718595
1134+959883868+956495992+951207862+945332528+942275978+941753853+940038236
1121+935982750+932152406+930591216+929199409+925001819+919835728+917230814
1107+916345051+913866009+909943760+906846705+903692088+899932006+897774446
1094+897756786+900066220+903437713+902837961+898872201+897988466+900517481
1080+902683833+904862736+907864202+909935043+910975986+912370498+913751184
1067+913384389+911617069+911731143+915281337+919356061+922027631+924698223
1053+926659197+927458241+928608298+928979001+928406753+928250221+927096180
1040+924924417+924342324+925103268+925085458+924788851+924990622+924620520
1026+924196914+924588207+923274628+918725348+913639364+910420946+909695472
1013+910945175+911112078+908112490+904831023+904342564+905189627+904877314
999+904123059+904710562+906514403+908442087+909744393+911124027+915119169
986+922239847+928359184+930752257+932355003+934762279+935684339+934568473
972+932432631+930525913+931131151+933733960+935037469+934758521+934494077
959+934121721+933626048+933773563+934366627+934062881+932653715+931836786
945+931658611+930457303+928430875+926647399+925431588+924501036+922540287
932+919316458+917150406+917534335+917746777+914311709+909405102+906944322
918+906381317+905746395+904735436+903326420+900582408+897046417+895397455
905+895709017+895905678+895649425+895136618+894333291+894111531+895106334
891+896806997+898881594+901202225+903151777+904170627+904448147+905771344
878+909261571+912634041+913713911+913997818+915542250+917761882+919899979
864+923305664+928824047+934449665+937968673+941326339+947529090+955022124
851+962093806+970430972+979611444+987744885+996056801+1004725443+1010937888
837+1014381823+1017176785+1020677382+1024842508+1027988859+1030053913
826+1031900363+1032782143+1034384439+1037074044+1037445648+1036635182
814+1037256351+1036685456+1033628380+1031421598+1031160009+1030862350
802+1028543824+1023389906+1020059444+1021917316+1023455134+1021103543
791+1015314554+1006207277+997100750+990272096+986109750+984362194+982322390
777+978945937+974824321+970096791+965304108+959857491+953000957+946924604
764+944696780+945081310+945891701+948216690+949858513+947065806+943113648
750+940744171+937096586+933542560+933611846+934273820+932864428+931514779
737+930977174+929820428+926871264+922915949+920069512+916979972+911089308
723+904249006+899543870+899062850+902747634+906660940+907105889+906033384
710+909259767+916204825+920916199+922470400+923455884+925728721+929159205
696+930550411+928905732+928908964+931680179+932714058+932765534+933634390
683+934054690+935330995+937917047+940044398+939221608+933922130+924660799
669+916158008+921386096+934370685+939626953+937792152+932575862+929034159
656+931843624+940203184+947826299+950061036+947847039+944976404+944728718
642+943484350+937402963+932134220+935671940+950240488+959162452+943110041
629+922486331+923206319+935850791+939320502+939718483+946467932+947525483
615+938396638+928757391+927385724+938394008+950802216+952758681+950699263
602+955485108+965344162
##END=
