##TITLE=Sample description
##JCAMP-DX=4.24
##DATA TYPE=INFRARED SPECTRUM
##DATE=13/9/2023
##SAMPLING PROCEDURE=Instrument type and / or accessory
##ORIGIN=Default
##XUNITS=1/CM
##YUNITS=ABSORBANCE
##RESOLUTION=4
##FIRSTX=4397.6552
##LASTX=599.8556
##DELTAX=-1.9287962
##MAXY=1.7161225
##MINY=0.33050957
##XFACTOR=1
##YFACTOR=1.5982636e-009
##NPOINTS=1970
##FIRSTY=0.3450523
##XYDATA=(X++(Y..Y))
4398+215891981+216513121+216708016+216277967+215910329+216609505+217204055
4384+216609990+216371089+216884880+217190835+218230592+220381544+221255477
4371+220001748+218414766+217297587+216578086+216468387+216456080+216048203
4357+215758396+215588506+215415073+215371123+214907715+214274940+213976220
4344+213650015+213377158+213479678+213865123+214183385+214489750+214773925
4330+214298920+213923487+215100783+215838577+214086982+212226620+212718520
4317+214231643+214394372+213126901+212243048+212564834+213271040+213653483
4303+213576361+213381298+213555812+213554507+212927661+213012690+214152394
4290+214467449+213742987+213434068+213916346+215039324+216049378+215752858
4276+214517478+213486129+212917983+212655419+212719620+213064509+212917424
4263+211973622+211644657+212778003+214230915+214844000+214745284+214559600
4249+214681438+214898168+214425885+213397930+212790403+212761706+212820014
4236+212626629+212427016+212564032+212961766+213355192+213313741+213163989
4222+213710281+214657440+215013796+214806706+214685167+214030221+212742649
4209+212029208+212161953+213058206+214032869+213603939+212082519+211341070
4195+211896984+212606919+213064733+213596853+213649549+212873753+212154029
4182+211847831+211395239+211301241+211953595+212350770+211947815+211120834
4168+210976826+211957045+212366601+211276721+210193367+210391581+211301950
4155+211657933+211344856+211264078+211725323+212175062+212109183+211723719
4141+211335868+210862596+210388411+210108524+210145314+210451549+210440398
4128+210039606+210074848+210590933+210896142+210818627+210361075+209787727
4114+209957449+210908579+211425614+210953723+210446812+210807421+211611541
4101+211976232+211977538+212035603+211959823+211819880+211692206+211196279
4087+210826608+211125421+211386177+211118410+210475435+209547651+208939713
4074+209326538+209969476+209939231+210061516+210935001+211240490+210361131
4060+209601912+209565458+209486937+209348448+209687594+210194914+210500422
4047+210632403+210734475+211248993+211823535+211454424+210678665+210658154
4033+211086692+211287983+211381757+211672180+211986786+211677475+210819448
4020+210608815+211224361+211543555+211391938+211269113+211349387+212043454
4006+213310366+213885952+213312230+212770190+212418215+211632742+211146623
3993+211484277+211852269+211910391+212136389+212545143+212902115+212941441
3979+212339116+211694984+211607401+211968998+212652324+212975434+212804239
3966+213070644+213919702+215033189+215834810+215556452+214681699+213951308
3952+213369382+213242081+213835344+214111838+213491667+213411431+214260452
3939+214756789+214374980+213217002+212413404+213420064+215043911+214937233
3925+213737487+213699559+214285382+214217825+214417755+216013669+217574621
3912+217613089+216950647+215884187+213530080+210907647+210152344+211808114
3898+215217195+217890924+217414390+215164574+214923341+215801171+215863265
3885+215970316+215504298+214799956+215954018+216613738+215410952+213846868
3871+212273274+212628773+214316746+214577371+215565682+218247225+219280289
3858+216737272+210629569+206792901+212204654+218445179+220753023+219735865
3844+217260014+214843459+212717774+212044908+213763890+215654944+216885775
3831+218464981+219900888+220545840+219834748+217090553+215755935+217086450
3817+217531323+218984609+221738333+222443700+220273449+217742031+217574210
3804+217232547+216418657+217832374+219648170+221669582+224315641+225901411
3790+226455124+226763690+227000726+227390274+226858825+225449863+226011836
3777+228316716+229448850+228577453+227495199+228722524+231141167+232968114
3763+233746949+233308360+234238233+237692177+240383584+240876938+244332039
3750+257673893+274444071+294427055+320517089+337082657+340467330+335854512
3736+327458468+322642737+323624746+326369352+328753070+332012810+337246077
3723+343948480+352010449+361078184+369847050+376577833+381985186+391669641
3709+408482241+428825031+450073080+471523521+489446642+498954364+501052974
3696+499084294+494091047+485758029+476329854+470126847+467390594+464400225
3682+459332391+452483724+442965187+430872810+424360044+422709962+418703460
3669+415881134+415321510+412285382+406837304+401283836+395453241+388486130
3655+382793967+377526315+368885329+360410074+358475666+359107752+357815014
3642+354427023+350119228+345274147+340190277+335742744+331105536+324311877
3628+320242200+320841766+319852522+315651982+310208492+306731631+305292032
3615+302900315+299523605+296592271+294384578+293439974+292672271+290155807
3601+286991147+284868688+282873194+280392644+278285456+276362517+273232726
3588+270375476+270461735+271254033+270588085+268825227+266656077+264610666
3574+263003042+261237275+258259791+254575709+253146310+254204173+254720165
3561+253970624+252982331+252010036+250627384+249070106+248061973+247206724
3547+246162976+245495033+244847918+243632751+242429163+241690512+241000361
3534+240153838+239150964+238032069+237220677+236671420+236160669+235904519
3520+235638282+235065959+234448773+233763097+232844878+231839877+231084668
3507+230558533+229810596+229453642+229970659+230094547+229525600+229294679
3493+229312151+228922547+228410248+228209703+228067391+227811540+227692500
3480+227651048+227343527+226883849+226696506+226827871+226844225+226397786
3466+225628945+224860776+224468152+224649901+224967547+224866370+224397816
3453+224085764+224006795+223727617+223509190+223679117+223676805+223504827
3439+223706416+224049627+224236336+224557003+224963799+224955203+224591929
3426+224114872+223605463+223586238+224168518+224883581+225532617+225901131
3412+225989908+226049484+225933763+225642669+225758577+226353705+226716439
3399+226688842+226680320+226839936+227186223+227532381+227652521+227837384
3385+228330850+228842832+229215729+229598732+229924490+229953541+229885704
3372+230237269+230891712+231233562+231007825+230745764+231159292+231848026
3358+232027127+231746476+231513989+231740453+232164442+232307872+232351785
3345+232559956+232691471+232561131+232368846+232154204+231620667+230607667
3331+229713595+229573820+229619523+229166408+228439896+227749559+226949056
3318+225981275+225241859+224830420+224288752+223314351+222256785+221491562
3304+220498608+218836983+217396936+217121282+217543798+217664945+216909307
3291+215735647+215570176+216632236+217839068+218869633+219652477+219621561
3277+219061675+219014853+219607482+220142456+220308486+220290772+220452271
3264+220945214+221238396+221097577+221121500+221487367+221952900+222489720
3250+223301018+224280230+224525117+223944963+223549933+223585753+223830099
3237+224452880+225275255+225599801+225571681+225841294+226253535+226920695
3223+228192063+229444953+230218044+230802972+231295543+231450702+231266622
3210+231430210+232606349+234262157+235331134+235836403+236513986+237540673
3196+238898618+240629273+242173890+242981721+243388181+243975253+244839080
3183+245555691+245959074+246602646+247524482+248250398+248790910+249352883
3169+250253891+251351491+252110300+252829446+253784306+254605581+255443600
3156+256582409+257435607+257607884+257787955+258402121+259014310+259469122
3142+259794991+259773864+259562411+259381762+259348794+259726819+260191681
3129+260275143+260086793+259809983+259743675+260067419+260273260+259706158
3115+258375344+257079120+256664622+256938747+256792912+255832048+254768236
3102+253967491+253202660+252456680+251828548+251389885+251344629+251651684
3088+252089956+252716019+253343032+253716712+254227072+254960315+255313204
3075+255178295+255089574+255242794+255509050+255869397+256115832+256175221
3061+256200656+256162971+256245240+256473867+256497045+256326744+255995878
3047+255339123+254593554+253989998+253235981+252273962+251493728+250739824
3034+249630421+248590327+247913639+247150616+246167227+245120421+244120082
3020+243445576+243173763+242992834+242492320+241673655+240951040+240245375
3007+239286040+238629621+238617706+238615226+238510096+238858882+239835726
2993+241654393+244501202+247710334+250359618+252210526+253435781+254171635
2980+254542462+254737226+254909167+254773718+253862808+252368426+251016802
2966+250125956+249335411+248402257+247562074+246953950+246538147+246439674
2953+246647417+246873359+247043286+247227236+247300834+247139279+246868082
2939+246642401+246236593+245399264+244489921+244023269+243852894+243655593
2926+243523481+243334945+242799841+242060183+241369975+240766345+240271835
2912+240013373+240177688+240961855+242090427+242904467+243212939+243158361
2899+242917856+242815560+243105590+243758206+244392231+244716590+245003003
2885+245616255+246404730+246935825+247132063+247237864+247309039+247342677
2872+247386702+247299230+247103254+246890793+246620267+246480846+246425279
2858+246190405+245834738+245365308+244776073+244213055+243800720+243743139
2845+244064683+244444646+244709112+245016037+245588378+246442807+247281236
2831+247865046+248276914+248578710+248768515+248961881+249175852+249410931
2818+249818417+250301832+250556042+250566279+250614873+250941786+251613160
2804+252623512+253676920+254313331+254566087+254809482+255194536+255634934
2791+256011746+256179846+256114359+256020529+256018645+256100486+256164257
2777+256075033+255911352+255745788+255561130+255358236+255125096+255032795
2764+255248817+255608940+255825708+255740213+255504481+255458033+255653282
2750+255848494+255794344+255530811+255458219+255671351+255759941+255546455
2737+255278614+255116649+255018679+255037680+255103130+254914500+254619566
2723+254603604+254661614+254577163+254565546+254715149+255025784+255359820
2710+255457678+255381376+255242253+255113423+255123548+255169624+255061958
2696+254853544+254712631+254535059+254215380+253974968+253893818+253760140
2683+253418066+253016417+252801626+252669756+252401337+251977423+251396784
2669+250814355+250500867+250317085+250058045+249862684+249652666+249262372
2656+248960650+248897382+248855744+248773400+248710729+248647349+248474475
2642+248057666+247631123+247588180+247805190+247957570+248080676+248275757
2629+248475240+248624245+248716043+248863762+249214544+249652778+249959386
2615+250070054+250078519+250287549+250886350+251588360+252083150+252412357
2602+252750011+253145806+253572852+254184632+255000051+255659417+256011727
2588+256225008+256375692+256569729+256914992+257256468+257534155+257821724
2575+258052850+258276069+258592876+258849958+258925720+259081438+259364756
2561+259381352+259128036+258885312+258761256+258801850+258971423+259234845
2548+259568210+259833459+259921938+259985970+260129177+260189014+260166862
2534+260217245+260393065+260628684+260772805+260715093+260540225+260599745
2521+260987708+261350628+261541664+261636146+261655725+261649702+261736167
2507+262042831+262422906+262631562+262768746+262972163+263222383+263497011
2494+263760936+264033719+264307694+264604307+265105885+265765735+266300727
2480+266663797+266930649+267011464+266798836+266432466+266213740+266147787
2467+266068650+266111314+266334795+266491762+266504218+266501664+266576306
2453+266702899+266792981+266921028+267156200+267346899+267527418+267832291
2440+268090231+268270097+268522965+268697889+268677229+268623004+268563465
2426+268410861+268350818+268577320+268892878+269085945+269198646+269275750
2413+269317127+269396786+269545866+269689688+269905691+270229081+270412228
2399+270500222+270795008+271168631+271397426+271583725+271765717+271813937
2386+271550907+270716897+269078711+266619846+263684559+260641401+257507471
2372+254235276+250870481+247500316+244287455+241569775+240035917+240112443
2359+241535670+244230191+248283757+253555604+258923109+261815341+260897085
2345+257799777+255573288+255196550+256002907+257337115+258773283+260027012
2332+261167462+262917659+265288156+267432898+269282220+271494631+274231107
2318+276962250+279278821+281336875+283455922+285635030+287722116+289677520
2305+291417461+292905541+294336096+295816531+297246005+298599605+299910915
2291+301115845+302222507+303357513+304446834+305296451+306013491+306812781
2278+307640079+308400975+309136569+309842961+310494551+311148509+311853242
2264+312559261+313161904+313653020+314091665+314460720+314855358+315407189
2251+315996200+316466619+316769031+316984064+317267942+317636400+318001353
2237+318222503+318348554+318694562+319247138+319658037+319847897+319890710
2224+319849352+320016575+320479647+320861718+321015590+321295328+321898958
2210+322449781+322711730+323015112+323573543+324236992+324807991+325237536
2197+325734582+326417162+327042871+327582618+328329380+329288006+330207437
2183+330987615+331765144+332617000+333435440+334189326+334958091+335836276
2170+336804822+337788845+338849879+340024545+341229643+342316372+343230806
2156+344146470+345234467+346518180+347848322+349000725+350008131+351108658
2143+352377416+353704389+355000297+356203605+357315842+358531569+359967439
2129+361478342+362976007+364426234+365828279+367399822+369116249+370729822
2116+372383820+374262026+376294702+378400286+380433259+382322877+384250870
2102+386396731+388789437+391435737+394226550+396956835+399708079+402676408
2089+405829675+409179030+412841799+416690251+420555971+424656899+429119350
2075+433728028+438552187+443710681+448961402+454317365+460021983+465936377
2062+471868037+477941114+484279832+490849544+497606470+504582233+511680356
2048+518724067+525772403+532915986+540195541+547529582+554624646+561547639
2035+568552081+575541680+582320347+588736225+594921965+601417763+608222274
2021+614569868+620283287+626033665+632016790+637373014+641612226+645581957
2008+649989362+654499922+658563333+662001633+665117942+668317564+671494662
1994+674150845+676268736+678313830+680454693+682448323+683944234+685129940
1981+686556188+688210149+689671005+690647420+691210401+691396197+691070625
1967+690906758+691482493+691957238+691964846+692109320+692281467+692067999
1954+691793073+691930312+692298323+692662903+693007196+693109156+693783047
1940+695942483+698254896+699571799+700797633+702929322+705613699+708330969
1927+711157658+714074298+717276978+720984611+724953745+729723045+735972818
1913+742825923+749040864+754626144+760557730+767107714+773524636+779511416
1900+785686528+792109491+798087694+803465175+808796561+814435468+819831745
1886+824676900+829842480+835077501+838634393+840726477+843137270+845820006
1873+847377974+846812308+844984709+844861417+846803656+848220730+847513797
1859+845775105+844795632+843820783+841381349+837670733+833241026+828323894
1846+822559606+817144832+814803256+813470167+810493484+806826352+803402820
1832+799002500+793149454+788222925+785071635+782862151+781503405+779683637
1819+777040656+774277067+771034035+767322002+764371425+762982172+762135836
1805+760696014+758358838+755830049+754757864+754757118+753692542+751123774
1792+749866540+752002033+754131410+753921896+752910127+752441274+752667123
1778+753456847+753313417+751549590+750151983+751165617+753278660+755156605
1765+756075961+756011667+757031567+759277970+761136821+762490944+762701502
1751+761636553+761265931+762714033+764810517+766697636+768374794+769992357
1738+770974664+770170023+770096704+774699452+780094535+783985353+787049228
1724+789331209+790669743+790648337+789492093+790631256+795916846+801903626
1711+806389423+808469349+808767920+810465067+813127217+813772318+815379364
1697+820243315+827312572+835415080+840979103+843681903+844510561+843395117
1684+844932051+853132790+861817372+866978179+868929294+871912167+876919474
1670+881885683+888408071+895258118+899033774+900968629+905174053+911266224
1657+914978929+913318031+911877314+918893615+924278853+925705175+930637522
1643+938079490+941441487+939467251+935134283+936161268+945394809+952684172
1630+954045902+952853708+952306315+953056211+957750850+963378793+963352166
1616+960664507+963507381+968441070+970938608+972429597+973889632+973386545
1603+972061959+974556289+980863046+984706277+984191107+983790427+985336983
1589+987981083+991331968+993720235+994010303+994969414+997119750+996090453
1576+994212955+998102878+1000743771+997593749+997710626+1003515564+1006640376
1562+1004748110+997740834+992163908+1001611364+1015196446+1024033633+1028252558
1549+1032125624+1036117358+1037202819+1035207548+1033592671+1038843205
1537+1047421651+1051622451+1052689564+1054339423+1055723007+1055624030
1526+1055131758+1054643811+1054353072+1056194917+1059295488+1062275975
1514+1065351037+1067048706+1064560194+1056489609+1053282155+1063112242
1503+1071042081+1072452367+1070827122+1070636777+1073362624+1073741823
1491+1068503596+1064630753+1067543962+1070713079+1071253236+1070529297
1479+1069590697+1069138776+1067778165+1064288027+1060758582+1058642108
1468+1056229227+1053092481+1050858161+1047215418+1037721495+1024365320
1456+1019290512+1023232273+1024921514+1020715194+1012287637+1005348459
1445+1000558199+993310008+983906931+974449779+965682256+960601481+957304075
1431+951009550+942720501+936608639+934195981+935987033+939202841+940884548
1418+944948183+952136929+958875543+964457989+969460373+973678254+976283867
1404+979771096+984702250+987536695+989615353+993577252+999372345+1006631276
1391+1011881512+1012899770+1012574498+1013843666+1015661569+1016542960
1379+1017198727+1019091067+1021542883+1023979632+1026843539+1028843583
1368+1029559691+1029629429+1029088750+1029015729+1029361364+1029002602
1356+1028793759+1030101563+1031768950+1030422883+1025445784+1019483617
1344+1014143504+1009225329+1004271426+1000871986+1000684624+1000904729
1333+999112857+997231257+996195173+995325566+996010496+999236224+1003896926
1319+1008828751+1012849872+1014594158+1014954561+1016293393+1018409717
1308+1020178244+1022662505+1026101849+1028633621+1029566254+1030433922
1296+1031929908+1032265922+1031815716+1033125981+1035746438+1039103587
1285+1044702964+1052131431+1057509061+1058107471+1056513850+1055661324
1273+1055001678+1052831577+1048444310+1042742153+1037446121+1034174298
1261+1032766399+1031373342+1028191247+1023358921+1019381806+1017037247
1250+1015153111+1012932066+1009508385+1005908978+1004432981+1004477584
1238+1003573891+1001763074+1000407310+999334827+999287166+1001071953+1002354994
1225+1001331515+999450735+998292254+998006437+997944456+998013821+999560676
1211+1002207312+1003022247+1001643660+1000636441+1000428493+1000008719
1200+1000073908+1000187801+998901702+998194993+1000196304+1001862647+999359143
1186+995181688+992979663+991620245+990288797+989660106+988851511+987536546
1173+986505086+984980682+981696180+978344848+977285716+977881515+977937530
1159+976167064+972471887+967475396+963582489+963336353+964885967+963860474
1146+959919236+956171625+953564818+951874533+951547694+950352665+946301485
1132+942169752+940701139+940618646+939686834+937747206+934422203+929527224
1119+925256759+922404935+919989965+917204374+913089199+908807771+906351480
1105+905467328+904613459+902461333+899804180+898558358+897934440+896655724
1092+895689751+894737652+893486459+893692990+895028987+896470227+898764068
1078+900778731+901018453+901400710+903387850+906396679+910255723+913316390
1065+913990580+914191591+915334559+917032899+919788805+922751614+923092028
1051+921621923+921337897+920609110+917919139+917062510+919260358+920183592
1038+918296697+916066478+914366050+914223589+917134635+920112138+919443990
1024+917169318+915805947+914149972+912692621+913183626+913532841+912518611
1011+912532036+912914741+910731960+906972414+903797853+901125112+899225909
997+898683216+899158110+900983546+904547525+909182196+914515149+920178222
984+925186126+929244465+932161031+933620246+933631136+931825391+929131243
970+927091221+925696970+924209188+922207429+920826829+920990024+922137019
957+923249406+922146044+918683877+916019936+915226110+914574147+913534184
943+913612351+915233941+915573385+911662205+905533114+901904767+901585909
930+901370129+899609658+896836224+892334019+887595224+885989745+885262375
916+881953856+878258903+875711765+873250924+871185468+868332973+862828545
903+856586902+853285618+853215730+851604507+847844962+847450473+850038633
889+851037573+850583638+851020269+851897558+852335084+853660193+855442518
876+856387233+857883294+861685876+867734116+873712169+878373692+883862754
862+892249065+902398158+910998010+918171242+927046468+937581847+948534165
849+960332446+971851027+981848710+992115725+1002964293+1011442047+1016445475
835+1019864234+1023567615+1027529439+1029666350+1030768891+1035348070
824+1041042992+1040488216+1034295427+1029534406+1031359618+1036194779
812+1036223047+1033074367+1032560763+1033932488+1033984549+1031657517
800+1027861649+1024447067+1019628017+1011838028+1006189275+1003822563
789+1000480107+996485688+993246833+990388967+987114385+981197940+972063003
775+963158688+956963736+951348995+945253094+940560096+937833279+937192056
762+938477485+939449872+938226276+936020970+934606432+933506203+933031458
748+933794779+932216374+926997689+922989024+921236086+918980807+916404879
735+913844465+910841602+909091200+909501502+909306458+906166355+901396831
721+896955638+893428505+891911037+893763399+898110986+903107851+907504143
708+910466953+912617587+915634174+919858170+922868641+922930399+921871640
694+922477732+925548767+928536115+929086714+928904946+930291663+931930707
681+931324690+927628693+921364375+917413590+919145494+920203656+916028290
667+916352220+925131976+931864847+933444893+932524343+933225906+935074688
654+935562560+936340127+936993507+934968029+932397322+930520868+925551377
640+918972975+919090822+930076331+950704640+966411266+961446698+948240741
627+937913460+926851797+918124774+917735506+925066041+936314543+946300665
613+943625537+930906184+932153274+952563491+969027770+970337588+964540183
600+951799275
##END=
