##TITLE=Sample description
##JCAMP-DX=4.24
##DATA TYPE=INFRARED SPECTRUM
##DATE=13/9/2023
##SAMPLING PROCEDURE=Instrument type and / or accessory
##ORIGIN=Default
##XUNITS=1/CM
##YUNITS=ABSORBANCE
##RESOLUTION=4
##FIRSTX=4397.6552
##LASTX=599.8556
##DELTAX=-1.9287962
##MAXY=1.6626426
##MINY=0.25533226
##XFACTOR=1
##YFACTOR=1.5484566e-009
##NPOINTS=1970
##FIRSTY=0.30263489
##XYDATA=(X++(Y..Y))
4398+195442932+195127059+193986725+192784552+191916728+192146416+192920451
4384+192105344+190606756+191190790+193104755+194136732+194582191+195157872
4371+195184586+194838997+194681792+194053202+193281187+193516399+194305966
4357+194276711+193301146+192664184+193045226+194019251+194999358+195168958
4344+193968036+192158445+190834480+190058597+189983209+190945821+192069699
4330+192252098+191385410+190059771+189264950+189069579+188674199+189019095
4317+190579022+190986277+189783507+189063535+189388801+190042719+190576905
4303+190733744+190255335+189841863+190114797+190056288+189682771+190190166
4290+191229533+191739757+191551680+191398710+191421671+191028812+190651254
4276+190487139+189878046+189374558+189599723+189834915+189736103+189713874
4263+189596740+189175261+189080588+189256481+188813774+188337636+189194873
4249+190701833+190879805+189630921+188471110+187997935+187981865+188331650
4236+189081358+190216745+190801723+190075188+189223031+189230191+189548161
4222+189883223+190327509+190446433+190220999+190351663+190791734+190811673
4209+189834895+188051999+186557222+185953633+186386717+187893812+189566041
4195+190075707+189211291+188663902+189457876+190029169+189078124+187664375
4182+187291879+187287510+186866609+187065713+187468119+186746337+185534580
4168+185280488+186559781+188022744+188247062+188015084+188183645+188452710
4155+188343506+187617279+186915668+187043830+187486152+187413324+187104341
4141+187171396+187671631+188093302+187939715+187366786+186670160+185958656
4128+185256295+184686888+184833931+185693344+186502639+187037267+187303119
4114+187383627+187629000+187785493+187362590+186839818+187120335+187723635
4101+187383973+186626932+186847304+187704234+188058427+187686374+186949811
4087+186610438+187187486+187712145+187256638+186634804+186914455+187745075
4074+187875778+187103013+186754575+187475625+187809301+186743835+185664724
4060+185579539+185687974+185709222+186305728+187406049+188186762+187893408
4047+186624681+185719769+185941084+186767740+187573454+187671592+187198764
4033+187362821+187995876+187592778+186347377+185785342+186086780+186338832
4020+186293353+186555162+187296767+187730217+187180807+186228126+186222910
4006+187245033+187856166+187452779+186796340+186379788+186412835+186946847
3993+187442636+187782625+188339637+188885371+188648158+187684160+187077492
3979+187074471+186979662+186582588+186607416+187789939+189458742+190356648
3966+190001512+188859927+188555313+189649359+190336073+189642796+188347528
3952+187079359+186435238+186875462+187013921+186151083+186792125+189187136
3939+190306318+189379639+187344287+185917989+187329659+189694204+189086131
3925+186911626+186771165+187204403+186579066+187170934+190190147+192854705
3912+193196465+191858835+187824756+180405800+174679937+175058457+180087713
3898+186954469+190560853+188008328+184608363+186274222+187386071+185053322
3885+184468133+184109898+183676333+187166950+188612090+185561910+182075027
3871+179048115+179835200+182722998+182595605+184098331+189268664+191150084
3858+185478630+172759235+164894685+175359125+188181681+193569731+191816704
3844+186147060+180435824+176324952+175934556+179893132+184063360+187413131
3831+190680297+192135195+191577317+188564975+181177583+176997616+180652116
3817+184386566+189360624+195456924+197052937+192613450+187262701+185793753
3804+182971681+181036757+186069189+191076023+194670994+198651183+200707880
3790+200953003+200165226+198566634+198137322+198189249+197547302+199735087
3777+204510733+206596184+203890669+199886345+199878435+203048848+206887056
3763+208928933+206879107+205876135+209742789+212181047+209903651+213704906
3750+236774917+265006774+291498577+320774112+338698253+339952545+330941656
3736+321045026+320870537+330319957+339966942+343892490+344873367+347631232
3723+352363901+358428656+364909250+369791656+372603565+377754344+394077159
3709+421190045+451891513+482649488+510665920+531833495+542743394+543076435
3696+535793802+522414349+502552185+483794923+477218096+477189534+472934679
3682+463412873+451539110+436325392+420022593+414486962+413587267+408724107
3669+408433370+411378157+409671611+404734660+399349460+391986069+382881372
3655+376070316+367398704+352161582+341577409+346825614+356791551+361661716
3642+361172086+358894613+356527797+353597638+349737643+343047108+333684201
3628+332400231+338030478+337785278+328462596+314812576+306487227+303168578
3615+298501925+295133696+295101728+296517671+300024609+303424209+303055158
3601+300164165+297206984+293976656+291121500+289468883+285898143+277730827
3588+270963345+271591011+273570856+272483700+269669539+266556211+263744167
3574+261796636+259398545+253447730+245198693+242350542+245553694+248156336
3561+248387814+247454610+245643325+243090993+240851281+239330079+236930987
3547+234244122+233936255+235212354+235515525+234033700+231892377+230751350
3534+230243435+228882325+226695888+224883428+223799025+223147936+223094103
3520+223437826+223529131+223123127+222104161+220671377+219877037+219993670
3507+219307361+217389161+216671152+217758270+218295862+217546732+216664666
3493+215999835+215198489+214447088+213967139+213457800+212814275+212622099
3480+213125741+213405411+212952696+212436794+212166593+211817020+211405357
3466+210965690+210167693+209293461+209238762+209924187+210113284+209363364
3453+208692163+208255595+207376705+206896717+207231106+207340271+207375993
3439+207647118+207718195+207907811+208423424+208609826+208159228+207552618
3426+207048437+206398580+205865318+206148049+207165898+208140463+208661734
3412+208783256+208577916+208118599+207818893+208287179+209253140+209676215
3399+209374893+209141991+209269692+209525188+209904421+210287984+210484952
3385+210628935+211007263+211582559+211848411+211601767+211434419+211964601
3372+212839854+213188369+212995192+213081667+213674496+214101152+214075227
3358+214002899+214220422+214497841+214535660+214707089+215027812+215021191
3345+214962566+215161479+215402252+215524313+215322802+214672637+213875179
3331+213380872+213211118+212783654+211751331+210635594+210056699+209827358
3318+209331126+208530839+207828785+207275623+206593990+205605010+204434709
3304+203070731+201519235+200611725+200631164+200681224+200609107+200678376
3291+200581181+200210436+199718593+199399063+199627595+200014815+199826180
3277+199419272+199595011+200353303+201127723+201341570+201071427+200887200
3264+201018114+201400311+201957919+202349643+202261840+202120879+202331897
3250+202761806+203107184+203006486+202773508+203123197+204031187+204659719
3237+204705930+204900358+205134049+205218887+206201150+207924671+208851254
3223+208756985+208702517+209083270+209481768+209873030+210474675+210977796
3210+211320615+212064799+213184731+214242383+215476120+217238634+219056040
3196+220381852+221404437+222254418+222869093+223434362+224107719+224881061
3183+225579342+226109775+226589358+227165097+227894211+228668304+229591711
3169+230719035+231661631+232438130+233332359+234229822+235209294+236399245
3156+237527993+238471282+239196604+239541732+239624684+239816668+240326488
3142+240930192+241301571+241348032+240935234+240326353+240259183+240753143
3129+241181627+241169752+240782821+240442852+240409074+240435076+240064639
3115+239233750+238524845+238217382+237834185+237068118+235971165+234739276
3102+233949362+233791156+233506578+232631229+231756420+231560125+231988782
3088+232732158+233583853+234247028+234586113+234618004+234382658+234244526
3075+234629225+235458517+236131104+236230492+236053444+236019667+236113551
3061+236198582+236292755+236430559+236580489+236619290+236470419+236215615
3047+235795946+235092083+234252456+233463735+232649841+231674680+230534288
3034+229187016+227837511+226867624+226074920+225080608+224076366+223457323
3020+223155057+222713293+221896049+220790975+219718869+219015276+218457975
3007+217718141+217075251+216780126+216646998+216590625+216846411+217900598
2993+220211194+223562890+226974634+229551967+231167035+232259907+233296676
2980+234151373+234375056+234121118+233619362+232747420+231645137+230433071
2966+229098829+227917018+226993861+226153137+225597453+225614255+225854836
2953+225818614+225613928+225590370+225699979+225767707+225804237+225706253
2939+225321151+224722990+223870756+222675050+221722273+221575865+221796352
2926+221883924+221835038+221639128+221237435+220635579+220048138+219620404
2912+219190342+218976225+219474112+220424426+221172574+221659895+222055525
2899+222403386+222766528+223010631+223164007+223485326+223842868+224137570
2885+224596771+225200168+225720669+226083407+226422472+226799241+226933620
2872+226632567+226073938+225525799+225274035+225412629+225555323+225298305
2858+224788736+224453231+224339947+224053001+223290995+222267679+221702776
2845+221988009+222643832+223227847+223818675+224583357+225480050+226244173
2831+226720485+226971998+227158784+227423520+227754443+228096376+228373352
2818+228549111+228697597+228727680+228628811+228833920+229516554+230363283
2804+231247274+232100931+232749364+233193169+233497782+233665823+233803744
2791+234102256+234452792+234635826+234635903+234461857+234313486+234308251
2777+234205668+234015666+233881884+233641303+233210163+232785163+232565714
2764+232561134+232681905+232916270+233066296+232890133+232634270+232570026
2750+232731908+233023241+233032095+232668837+232384047+232357352+232328502
2737+232093599+231751165+231470282+231393412+231626718+231951617+231943996
2723+231594615+231262651+231103791+231167535+231370374+231402169+231272390
2710+231189091+231168324+231083486+230817173+230594048+230590468+230455301
2696+230023929+229688791+229606204+229534011+229463665+229450847+229280419
2683+228854514+228389327+228048895+227741106+227413569+227063630+226597711
2669+226150635+225919543+225704136+225306774+224816836+224286903+223860960
2656+223757433+223825065+223799891+223710164+223644341+223541295+223423680
2642+223399295+223354932+223281179+223430647+223712974+223765786+223628790
2629+223680563+223981000+224249276+224416028+224636977+224993056+225426775
2615+225814207+226139261+226523016+226992072+227397999+227688062+228049607
2602+228657546+229440915+230202344+230857032+231403285+231864758+232340184
2588+232820133+233152289+233317462+233430401+233555464+233710283+234018034
2575+234600008+235230600+235606156+235738129+235753218+235777989+235816462
2561+235679639+235333414+234967847+234751016+234799325+235099916+235373659
2548+235438981+235443119+235499473+235644861+235895450+236100290+236161629
2534+236165401+236183550+236238383+236303571+236308383+236239615+236151409
2521+236156663+236331979+236602219+236819704+236897421+236926579+237062460
2507+237311259+237581383+237845829+238227987+238803206+239382852+239717664
2494+239822288+239993620+240474243+241171908+241816742+242272055+242547395
2480+242676058+242682121+242542488+242284046+242061826+241908182+241730113
2467+241620813+241665099+241739005+241787487+241807619+241719605+241579471
2453+241584687+241807715+242143874+242426508+242566777+242690146+242942853
2440+243284939+243638920+243858215+243843145+243824071+243923787+243946344
2426+243840797+243761270+243925577+244378793+244755581+244742936+244551915
2413+244593661+244914134+245249253+245522207+245825185+246100351+246246817
2399+246394784+246836067+247847007+250131216+255529178+266878801+286909545
2386+316805933+355379245+399852139+447949374+499054178+553416293+610877590
2372+669670588+726515729+778273565+822337741+853300691+868362978+872808297
2359+865144584+838230860+796378719+745167328+694890854+667791440+676951913
2345+715997687+749796797+751872336+738787278+728518978+724346267+723721218
2332+723482947+720903458+715109116+705203805+690669949+672934944+653027704
2318+629974322+606370452+590211462+583434934+575860987+557055723+527547460
2305+496978331+474371389+459024024+445002778+430092384+414147454+396796108
2291+379373357+363671240+349928491+338130482+329160088+323477491+320187364
2278+317954331+316082054+314402145+312908869+311675806+310661786+309772407
2264+308906682+307887446+306688622+305518437+304404490+303135685+301754924
2251+300509697+299480011+298628470+297958443+297394829+296791106+296169695
2237+295667767+295316057+295041814+294893327+294876891+294783449+294590599
2224+294467711+294493770+294603418+294684676+294765665+294940577+295293173
2210+295787114+296170542+296346339+296587517+297125186+297872161+298676259
2197+299495350+300315154+301093135+301770091+302360746+303000633+303789796
2183+304727773+305802495+306857356+307681374+308392185+309242802+310225199
2170+311218837+312206335+313198933+314174517+315119519+316118122+317269965
2156+318541618+319870491+321165335+322277319+323237410+324267597+325408373
2143+326498878+327585111+328866233+330328964+331772719+333076244+334321336
2129+335681061+337229670+338881172+340552766+342274401+344031411+345742461
2116+347477569+349337393+351318279+353556758+356073427+358626817+361219201
2102+363993157+366999532+370426751+374499342+379222387+384398764+389740506
2089+395096991+400675118+406757002+413370551+420393511+427653895+434906234
2075+441989089+449105972+456450501+463679860+470427441+476969355+483776138
2062+490624994+497052199+503244327+509713181+516775904+524202924+531312878
2048+537877502+544232455+550585253+556956796+563461718+570248331+577231682
2035+584157023+590857836+597120598+602951740+608626908+614010068+619058494
2021+623965497+628585112+633147718+638014611+642731690+646732569+649999773
2008+652957570+656168343+659829099+663537662+666672758+669180342+671110378
1994+671998102+672657563+674614237+677048530+678667158+679809244+680747778
1981+681298073+681689008+682326682+683158437+683695106+683549217+682774894
1967+682115817+682557254+683903737+684992857+685338754+685398418+685692889
1954+686342342+687162396+687889219+688223415+687886140+687586049+689301063
1940+692871591+695857643+698160829+701020701+704517707+708403569+712292280
1927+715514909+718174617+721573851+725962046+730624927+736779563+744700101
1913+752050867+757890399+763520608+770126073+777466445+785108141+792490547
1900+798739953+804076691+809625756+815787013+821086875+824925699+829223512
1886+834390188+839526840+844193031+847697120+850546060+853419866+855399711
1873+854549633+849715151+844665955+845464684+850028099+852517283+851181270
1859+847681261+844426606+842123420+839889521+836848040+832092160+824846172
1846+815585849+809071073+808820792+808764823+804719523+799170073+794046124
1832+787509176+779584327+774343051+771743161+770053475+769574854+767994873
1819+764272144+760481744+757263426+753308816+749070204+746729834+745941960
1805+744525112+741120258+736760470+734654137+734836824+733481642+729320016
1792+727747426+732245711+736297477+736120949+734425258+733264619+732863060
1778+733215117+731861705+726672626+721502716+723280936+729743285+735262941
1765+736741147+734557212+734160349+736623898+738464091+739747753+738921849
1751+734699097+732380667+735434466+739667303+741748232+741848852+742725875
1738+744625194+742746276+739879630+745234768+754013776+761089933+765557346
1724+767704944+768287342+764621044+756395257+754705725+765299597+777320403
1711+784046043+785199369+783845264+784389247+784596339+780528020+779675632
1697+786679884+798377504+811611453+819959417+823241248+822425043+816081176
1684+814857870+828396453+841892616+847049746+846417769+847803900+852256686
1670+857298337+867106261+877915386+882383185+884614928+891052410+896810646
1657+894704081+883344353+878248427+891052872+898522427+900807753+911135023
1643+923461771+928977732+927133613+919030310+914744352+924324783+934689084
1630+938250604+939551204+940170786+937658429+937484749+940880057+941030256
1616+941177146+947577443+953498658+955011508+955424152+957736038+961181387
1603+964524037+967188364+968771348+969205625+968559329+967635421+967816877
1589+969834215+973105884+976302260+979379540+983030826+984082992+978780128
1576+974080140+977025312+978722696+977322015+980537407+986664251+989060668
1562+983691750+968459170+963013728+982692781+1001135672+1011749484+1018698845
1549+1023861518+1024117034+1019435908+1013808779+1008589983+1015514170
1537+1031394971+1038942744+1040742596+1045353665+1049026354+1048533028
1526+1047051666+1044086093+1040672770+1043003287+1047961408+1053292064
1514+1059688513+1062594961+1057224503+1043940128+1042177074+1061439788
1503+1073741823+1071287051+1063428179+1062508506+1068934979+1071929883
1491+1068363590+1065869863+1069711997+1073715802+1073594087+1071433017
1479+1068673920+1064159699+1057728375+1050473765+1049603748+1056797847
1468+1060669005+1056912864+1051801772+1047199248+1036186726+1018473892
1456+1012459217+1021449089+1027052121+1024188092+1015773382+1007743062
1445+1003418072+999560926+991788354+978514834+964075825+957631876+955498443
1431+949741363+943404501+940814850+939679693+938909296+937650345+936212788
1418+942049549+954348120+964708803+970401986+972800173+973254928+973238145
1404+977002678+983157468+985152403+984345129+986407273+993869129+1005182050
1391+1013718475+1015658596+1013739800+1012600332+1013395442+1015914343
1379+1019609665+1022058663+1023315611+1027380542+1034111495+1039655556
1368+1041682286+1039166618+1034815685+1033504153+1034636923+1035057112
1356+1034984977+1034697973+1033965222+1033551884+1033019989+1031207895
1344+1027543676+1020391380+1010574987+1004495874+1004488715+1005595772
1333+1005029617+1003064322+1001150222+1000769912+1000818798+1001289951
1321+1004381935+1009935235+1015102604+1017531046+1017574389+1017327342
1310+1018898084+1023252868+1029138130+1033461118+1034571023+1034154453
1298+1033547573+1032607114+1031906080+1031893301+1032750076+1034952411
1287+1038938740+1044139059+1048696007+1051842112+1053679842+1053635190
1275+1051003428+1046067248+1042417963+1042186774+1040255276+1033069876
1263+1024742621+1018947971+1015182438+1012175755+1009511119+1006346846
1252+1002380841+999512271+998449712+997566914+996735698+996710524+996217352
1238+994090617+991938323+991895134+993297586+994053818+993924636+993392278
1225+992391539+991367550+990944512+991747475+993728014+995666441+997025011
1211+997881325+997944838+997650367+997721117+997904190+998306595+999299174
1198+999735838+998697529+996678343+994562156+993500828+993158703+991803367
1184+989885571+988897612+987860612+985699849+983675968+982695091+982167121
1171+980789151+977548431+973879207+971583334+969953158+968062077+966130193
1157+964511103+963401814+962649893+961503265+959218247+956251596+953676727
1144+951923758+949942219+946442441+943458930+942899397+941659539+937580981
1130+933336057+930668111+928758169+926692407+923747543+921149346+920258158
1117+918553460+914790698+911528960+907940956+901179133+894241088+890771181
1103+889272035+888835525+889809088+891342339+892062157+890873649+890409809
1090+892289034+892667574+891213234+891659675+892512909+891171507+890886583
1076+894220995+899174651+902839410+904286668+904761055+904815792+905415589
1063+908335124+911520107+911476918+910240755+911091834+912080641+912512994
1049+914640498+917125449+918643302+920443848+921076826+919444648+918502957
1036+918819523+919505159+920751560+919765833+916277295+912991923+909756283
1022+906889714+904881153+903473774+903386472+902957968+899803318+895903367
1009+893390394+891346804+889149319+886757137+883764773+880599037+879484666
995+881979856+886416552+891675303+899149554+908706427+917465110+922879912
982+925199881+926188611+926437660+925012190+921473611+917364798+915131668
968+915555553+916498476+915166081+911740286+908944390+907937954+907886219
955+908137655+906786861+902292195+898243661+898240813+899669902+899241321
941+897413599+895072921+892549016+890027343+887108809+883453673+879162095
928+875147436+872242913+869484586+865976724+862212038+858184214+854764732
914+853130322+851186813+847385405+843634499+840616036+837122648+833355267
901+830149190+827652923+826339775+825937678+824554088+821668965+819565095
887+819524446+820348580+821872516+824311120+826704842+829338067+832430205
874+835123171+837716132+840826593+844388652+849008267+856003589+865356757
860+875687492+887026357+900644389+916084369+931508489+946108938+960012664
847+973362170+985831418+997270673+1008544408+1017954084+1021636010+1021623000
833+1023651654+1027082222+1027511649+1027053122+1030051106+1033757206
822+1034612904+1034063610+1033547727+1033710013+1035218629+1035153268
810+1030479917+1025885939+1027090537+1030921354+1029168462+1021771505
799+1018566044+1020913190+1019894205+1015026619+1010128469+1004867331
787+1000671370+996236445+988240075+978639551+969433195+961090852+954757223
773+948472635+940022049+932316456+928371007+925671959+922711852+923308261
760+926114166+925030358+920927627+917517307+915273322+915071696+917692603
746+921039565+922517693+921082138+917112361+913215336+911642976+910952413
733+908286084+903452141+897802070+892176096+888329189+888327264+891206767
719+892009345+889990467+889316148+888593943+887398122+890455000+897382266
706+904074341+909504309+914521016+918571166+920804296+922311679+924542576
692+926831905+929266660+934552819+939984403+940115510+937950051+937025297
679+936276609+937143086+941022019+945237304+945887142+939676768+930536081
665+927459802+927606768+930059538+935196498+939241644+939779082+937244091
652+933294946+930192185+929605706+933187166+938638305+937771752+930453629
638+924605011+927806238+949670997+975635101+968714070+938530448+917620391
625+911506865+915445078+926662459+938713751+942787690+941244662+941136035
611+938368932+930399277+926401862+932358721+942846661+950391123+952338943
##END=
