##TITLE=Sample description
##JCAMP-DX=4.24
##DATA TYPE=INFRARED SPECTRUM
##DATE=13/9/2023
##SAMPLING PROCEDURE=Instrument type and / or accessory
##ORIGIN=Default
##XUNITS=1/CM
##YUNITS=ABSORBANCE
##RESOLUTION=4
##FIRSTX=4397.6552
##LASTX=599.8556
##DELTAX=-1.9287962
##MAXY=1.7716587
##MINY=0.38793823
##XFACTOR=1
##YFACTOR=1.6499857e-009
##NPOINTS=1970
##FIRSTY=0.40458411
##XYDATA=(X++(Y..Y))
4398+245204615+244828669+244418748+244602711+245774260+246178130+244356235
4384+243338197+245151837+247144023+247362846+247050388+247922827+249053880
4371+248168852+245807874+244362141+244779540+245871380+245790606+244584740
4357+243990729+244721777+245853770+246306046+246196030+246078860+245752079
4344+245132493+244817922+245135383+245343567+244917734+244248422+243690265
4330+243968025+244891074+244844871+243585143+242397357+242308310+242815839
4317+242640871+242144649+242168744+242061581+241715293+242166811+243185554
4303+243823491+243880821+243041851+241401047+240597515+241518722+242834895
4290+243230239+242861608+243300628+245099439+246027799+245185289+244163476
4276+243204573+241895391+241074592+241261752+242077764+242909871+243194025
4263+242747149+242016154+242107928+242718917+242186896+240830120+240255003
4249+241019195+242142156+242421433+242202538+241885439+241426407+241220949
4236+241098777+240827808+240705329+241071774+242023686+242411301+241670101
4222+241464608+242472351+243381962+243422782+243024602+242438484+241867611
4209+242297021+243211220+242320412+239844847+238630527+239374309+240157810
4195+240197131+240522106+241640028+242233424+241301091+240319177+240696948
4182+241588641+241594222+240588322+239266081+238404533+238781057+240238313
4168+241725498+242317251+242046047+242215994+242634079+241358637+239337751
4155+238797548+238964226+238931136+239408862+239990771+240058847+240585685
4141+241671582+241841024+240609003+238982974+238017009+237693498+237745463
4128+238286714+238812883+238835840+238486337+238324789+239075651+240318852
4114+240903200+240367494+239175065+238444234+238568393+238785085+238852367
4101+239006329+239260915+239948560+240674460+240452025+239545105+238537128
4087+237784640+238186884+239630485+240565365+240394605+239731886+239207848
4074+239316709+239679578+239459436+238859104+238553040+238539620+238538266
4060+238854661+239585691+239949607+239969674+240370402+240753428+240576473
4047+240424372+240746005+240956140+240552161+239766638+239210503+239436606
4033+240044073+240124666+239834804+239969927+240209540+239640257+238813154
4020+238860368+239635976+240281554+240648415+241062616+241212279+241237259
4006+241698748+241826700+241326487+241144926+241065958+240501190+240218860
3993+240905710+242005552+242359245+241699868+241279507+241791786+242555671
3979+243060943+243074218+242693197+242608612+242850103+243024114+243395869
3966+243601453+242866467+242083888+242493664+243820926+244810932+244382190
3952+243112185+242709417+243608082+243992011+243144047+243370691+244824244
3939+245031345+244424365+244138170+243545207+243154776+243343634+243128676
3925+242923291+243200039+242924049+242039437+242323518+244606252+246821234
3912+247607371+247402203+245505748+241496939+238106038+237701102+239467510
3898+242101534+243676989+243176197+242662148+244156648+245104153+244247754
3885+243940606+243573384+242969313+244374785+244699922+242578647+240638210
3871+239075218+239398675+241239499+241618010+242597070+245411048+246749382
3858+244453428+238470587+235116116+241172489+247357770+249197023+247911972
3844+245030098+241320851+238147617+238403594+241876444+244584595+245900207
3831+247209335+248247314+248425064+246906541+243153240+241911466+244755861
3817+246561066+248535099+251455643+252295950+249931322+246623543+245390258
3804+244210925+244073652+247504832+249803858+250638926+252596938+254356699
3790+255144065+255394045+255275828+255676321+255874192+255217235+255954659
3777+258066271+259057324+258085760+256654261+257398422+259787361+261992607
3763+262951528+262192158+262192375+264799071+267305559+267207517+267836966
3750+275947115+287184115+302642262+328328347+349166962+356741152+354466800
3736+347728816+344809752+346910491+349404841+350116021+350724499+353914567
3723+360190196+368924267+378680801+387527001+393915049+398729159+407420170
3709+421955087+437753381+452753435+468693444+485762412+499173826+506270127
3696+508561639+506282049+499035939+490960560+487843824+487338264+484486645
3682+478388459+469263270+457449057+446335657+442744392+441836551+436706353
3669+432837761+432144138+429636314+425332315+420676321+414280471+405605825
3655+398296498+391739388+382025156+373372329+372444656+373995727+372822011
3642+369410753+365535406+361548327+357471586+353053146+347152127+339615614
3628+336273824+337162446+335722602+331124191+325388585+322032670+321456161
3615+320290176+317832565+314556954+311210287+309697436+309040515+307045512
3601+304384773+302321243+300382070+298648788+297815905+296264546+292290688
3588+289167088+290054338+291307997+290584842+288920341+287224863+285698068
3574+284591092+283209245+279871194+275272746+273453723+274518325+275121728
3561+275005986+275044169+274650919+273095803+271327155+270478757+269491822
3547+267883801+267193411+267679373+267831619+266917330+265709892+264907607
3534+264191821+263215886+262196746+261560759+261220341+260887148+260801678
3520+260775326+260274787+259595595+258875438+257969945+257497800+257677681
3507+257669228+257148767+256819457+256659481+255899912+255058053+254995648
3493+255220739+255034969+254553703+254124708+253893097+253844871+253843426
3480+253678320+253275497+252996798+253346716+254025258+254074188+253293505
3466+252361425+251817952+251875860+252239903+252263564+251966459+251814809
3453+251742723+251317829+250634754+250347908+250554251+250868243+251327926
3439+251845605+252138321+252412667+252740839+252590525+252094322+252173055
3426+252497505+252083611+251485753+251649197+252346126+253034602+253690584
3412+254294836+254435341+254011242+253536965+253663599+254414353+254850898
3399+254494116+254161699+254511257+255199949+255682173+255975358+256343953
3385+256676640+256981927+257535659+258081985+258177642+257885162+257545521
3372+257564576+258154812+258969668+259497373+259705810+259686755+259301507
3358+258806405+258735926+259205940+259985250+260543407+260468052+260186842
3345+260251234+260396146+260169593+259688705+259445841+259632297+259664701
3331+258934556+257736384+256972534+256898805+256688850+255959897+255089391
3318+254154077+253012837+251639408+250431319+249709248+249116917+248337480
3304+247214266+245731868+244592723+244308894+244277683+244090432+244085032
3291+244421439+244946489+245408411+245866756+246620473+247337216+247410205
3277+247149062+247472718+248720073+250155709+250561367+249960962+249655910
3264+250202111+250895824+250922773+250631810+251013788+251788168+251987502
3250+251737973+251532209+251359950+251209853+251250005+251864715+252840524
3237+253356470+253556237+253767601+253879930+254310134+255277237+256346463
3223+257209113+258024222+258904735+259492767+259667916+259706153+259741429
3210+260118585+261257838+262803816+264090854+264775807+264917577+265363135
3196+266733331+268489624+270025035+270975846+271270620+271531420+272049840
3183+272506434+272875173+273364532+274164559+275242781+276187649+276853782
3169+277420753+277882657+278372250+279310345+280652870+281687291+282323025
3156+283284330+284518409+285290116+285456595+285357831+285240499+285274528
3142+285457425+285789282+286376772+286661937+286067078+285171953+284854041
3129+285246911+285738635+285715949+285448918+285561337+285760725+285456125
3115+285026932+284995648+285202640+285185174+284480768+283038070+281312302
3102+279964701+279471369+279545677+279624735+279663117+279620707+279364080
3088+279168918+279412541+279966381+280248368+280261625+280569965+281097814
3075+281421199+281641955+282111914+282793002+283259476+283163548+282690861
3061+282343995+282320803+282738166+283620358+284287051+284062321+283371606
3047+282836568+282219854+281374345+280527663+279565130+278437310+277456769
3034+276756860+276104906+275209077+274029653+273034987+272675424+272636446
3020+272475457+272153861+271626626+270816989+269786344+268682691+267753934
3007+267299273+267280561+267254370+266971968+266598533+266513984+267367331
2993+269630449+272751357+275761978+278325578+280144601+280949650+281437599
2980+282339281+283274991+283381757+282456324+281161790+280006443+279019436
2966+278214080+277613657+277111655+276426575+275609316+274899545+274403991
2953+274410873+274775566+275137803+275568893+275934959+275921701+275531920
2939+274988664+274447305+273952528+273359294+272588183+272094291+272032663
2926+272008767+271818500+271315433+270491129+269675622+269138923+268758064
2912+268531962+268833745+269503454+270090005+270536303+270790943+270855190
2899+270978790+271326685+271876769+272569489+273110830+273170815+273086717
2885+273341340+273831800+274225736+274354989+274445011+274691343+274851843
2872+274925826+275087572+275139790+274895246+274496398+274361654+274619076
2858+274705359+274213779+273411981+272715630+272305781+272103142+271935814
2845+271827224+272052279+272599960+273106441+273625259+274293921+274876516
2831+275388867+275928728+276322122+276555991+276779781+276948572+277042152
2818+277289911+277656392+277828218+277835226+278018394+278500040+279145835
2804+280018762+281062899+281852415+282258976+282513021+282780865+283128399
2791+283516934+283726166+283733048+283829338+284057752+284220528+284178949
2777+284086001+284207758+284345049+284299153+284152650+283805947+283329648
2764+283196945+283538880+283893043+283938126+283800655+283701584+283701855
2750+283809451+284072472+284338618+284531649+284732645+284715269+284434258
2737+284213845+284075272+283906915+283799011+283782249+283900539+284201328
2723+284415925+284432488+284530890+284685882+284653135+284570266+284653424
2710+284784754+284895620+285039449+285051514+284900334+284776843+284644845
2696+284429941+284271229+284235736+284212418+284172483+284157003+284005082
2683+283601140+283219866+283037384+282865052+282565690+282061196+281483947
2669+281218776+281170116+280910075+280458052+280077391+279784152+279521275
2656+279352647+279176071+278861428+278673148+278869122+279142530+279069017
2642+278795953+278617209+278470942+278398440+278529445+278689639+278745433
2629+278761580+278797903+278839627+278812696+278863234+279186619+279617817
2615+279938909+280231751+280635874+280955664+281104587+281419790+281931076
2602+282366392+282640901+282883205+283403847+284210359+284844179+285124738
2588+285307058+285515044+285776512+286188582+286635621+286926548+287118116
2575+287363472+287673311+288008490+288398109+288810017+289038738+288934791
2561+288712590+288512949+288295245+288293782+288529024+288762134+288955418
2548+289085248+289230703+289474669+289699471+289867629+289994805+290071660
2534+290135979+290167642+290238319+290460574+290610039+290571241+290621743
2521+290847394+291113829+291364170+291647078+291976370+292165047+292151789
2507+292138189+292245261+292535791+293039798+293612893+294029623+294155878
2494+294196535+294436690+294770425+295145540+295730881+296425967+297001247
2480+297371161+297528085+297529006+297402264+297195054+297082310+297037841
2467+296944153+296958458+297078301+297054621+296871109+296759268+296887112
2453+297137003+297341539+297548567+297845491+298164776+298354393+298448587
2440+298657115+299023072+299354242+299483044+299390367+299158159+298964858
2426+298933069+298968452+298989567+299137189+299407363+299542251+299591362
2413+299776301+300049762+300329672+300577629+300780106+300965785+301128345
2399+301360859+301645284+301811474+302003222+302352671+302638162+302695491
2386+302381715+301382588+299435360+296612658+293397826+290150573+286709080
2372+282958633+279169388+275502208+272060985+269324837+267605680+267063995
2359+268249271+271258194+275495615+280954852+286887155+290412023+289613097
2345+285849898+282809258+282301549+283503370+285220070+286838531+288098042
2332+289109434+290800125+293344344+295827513+297935766+300162434+302849381
2318+305787409+308603916+310877654+312555413+314271174+316348577+318449063
2305+320352924+322126773+323711223+324952492+325998472+327197403+328617450
2291+330038221+331394039+332738045+333949403+334893332+335676869+336536700
2278+337442482+338222768+338968663+339767950+340437912+340926133+341526483
2264+342371937+343278442+344101788+344755241+345202641+345618829+346204332
2251+346898209+347463952+347709561+347806013+348131385+348672131+349232853
2237+349725191+350100270+350458804+350818856+351047956+351274998+351701987
2224+352213002+352740093+353318335+353738533+353916987+354089192+354390830
2210+354776964+355202906+355655688+356175987+356730604+357152211+357522955
2197+358122800+358879713+359504917+360064664+360810017+361656338+362439514
2183+363255671+364162356+365068896+365934291+366695828+367338697+368100090
2170+369121686+370233593+371290628+372280254+373198643+374123643+375158027
2156+376236736+377373533+378653924+379880273+380966640+382139309+383411789
2143+384674876+385996196+387369246+388717587+390042736+391347728+392680283
2129+394100114+395604223+397136762+398640691+400105135+401565787+403194272
2116+405020141+406817868+408698429+410913610+413136413+414962065+416736781
2102+418959584+421319009+423368488+425493719+428138237+431129658+434194158
2089+437195765+440224900+443478691+447011254+450880279+454954672+459009195
2075+463080553+467314289+471879322+476777747+481812974+486955129+492357271
2062+497986130+503599672+509210251+515112138+521427792+527927031+534276317
2048+540384834+546491040+552993819+560071769+567443627+574766500+581842247
2035+588366158+594530813+601090379+608025530+614621184+620836377+627067103
2021+633015987+638439768+643944034+649772190+655262584+659946249+664275751
2008+668897355+673756657+678359114+682276871+685484207+688469450+691643840
1994+694620414+697152586+700026277+703501944+706707979+708751389+709669886
1981+710597198+712356453+714341992+715409899+715676858+715975390+716162080
1967+716267274+716995469+718271308+719678713+720802324+721025500+720485658
1954+720070084+720408930+721196585+721740256+722052804+722223383+722516279
1940+723604778+725039492+726329854+727960434+730145307+732768295+735703470
1927+738184995+739731045+741776333+745248315+749142519+753716872+759246064
1913+764146981+767946611+772043978+777617024+784097298+790212715+795943191
1900+801892653+807734682+813289594+818718793+823084564+826788465+831881130
1886+837736668+842969640+847823885+851921758+854966750+857590100+860122489
1873+861991345+862115830+861918085+864397876+867834313+869272134+869117666
1859+868843482+868510199+867287029+864896031+861909271+859224510+856730341
1846+852952746+848863760+847696149+847371825+844446476+840121959+836584880
1832+832053515+825155500+819755200+817657821+816737734+816353299+815280912
1819+812326519+808685619+805743147+803156427+800285843+797841670+796377189
1805+794774858+791990249+788815931+786936598+786604255+786263168+784462370
1792+783061396+784665028+786607361+786713278+786134494+785715740+785782643
1778+786799470+787108478+784572405+780966762+781453863+785438883+788857474
1765+789510313+787840213+787532506+789423037+791064527+792508706+792612238
1751+789999364+788596440+791179330+794195207+795594953+796521903+798566252
1738+800843097+800338945+798967232+802307288+807621323+811741738+814412627
1724+816522144+818605218+818470691+815147252+814554885+820698623+828211836
1711+833312304+835017806+834634238+835409611+836928784+837018589+838262350
1697+841918061+848341835+857376605+863966624+866547130+866069205+863077026
1684+864043280+874359597+885304766+891208422+893186158+895803366+898696059
1670+900866192+905962687+912256919+916155530+919947647+926216376+931734513
1657+932403536+927647695+926612226+936176218+943116426+944906531+946893515
1643+950479722+952495316+950151641+943305645+942291780+955530628+968529466
1630+973007511+972858462+973147385+973904551+975272002+976157915+973969502
1616+972874429+977718486+983656678+987377123+989199958+990895056+993281791
1603+995346586+997112127+999565259+1001934221+1002713712+1002251609+1002231019
1589+1003789061+1006796846+1009787075+1011701303+1012940946+1013033135
1578+1011718065+1012401032+1015844259+1017012954+1014734158+1013602889
1566+1015923733+1018904280+1019131719+1014202697+1011788580+1018830948
1555+1026473919+1034525312+1041479681+1044596416+1044876741+1043111562
1543+1038930747+1033746688+1036565181+1046240218+1052759000+1056024568
1531+1058600450+1058198025+1054760361+1053002767+1052444502+1051042588
1520+1051734731+1053302527+1056546493+1063243584+1067966408+1065527437
1508+1056233439+1051922144+1061856915+1071102940+1073741823+1072431665
1497+1070329301+1070941970+1072734243+1070689100+1066565000+1066080284
1485+1068108882+1069825294+1070864230+1071184436+1068826818+1063761968
1474+1058652036+1055534867+1054094300+1051623612+1049203065+1049925840
1462+1048994483+1041269943+1029591088+1023571761+1023913281+1022917044
1450+1017898578+1009250773+1002183479+999758741+997174767+990884869+981717451
1437+971460233+963779621+957455116+949166819+942681995+941076412+940568793
1423+939974403+940096865+940495533+945018661+953753527+961515925+966373710
1410+968642896+969987083+973828762+981056448+986771029+989124024+991030306
1396+993964830+999780416+1008275921+1014065280+1014364245+1011723556+1009886489
1383+1009734983+1011481451+1015132321+1018927038+1022373517+1027252254
1371+1031595411+1032065894+1030005073+1028108834+1027650199+1028895694
1360+1030794245+1032014092+1032230838+1032325845+1031806738+1029522669
1348+1026238966+1022210452+1016257522+1009234806+1005099941+1004589721
1337+1002594068+997757886+994487477+994620054+995410743+995957015+998144994
1323+1001199524+1003191565+1004996192+1007241320+1008825300+1010353504
1312+1012632228+1015060433+1018247034+1022601028+1026066653+1027472973
1300+1027577373+1027009932+1027367129+1028660742+1028993519+1030733629
1288+1037255734+1046078165+1053198706+1058834464+1062601077+1062405066
1277+1060584544+1060761481+1062907628+1064487562+1062796943+1057492156
1265+1050471462+1044733400+1042263579+1041635088+1040476291+1038374794
1254+1035635774+1032931578+1031103759+1029686384+1028226888+1026257751
1242+1022368387+1018506984+1018411688+1019635220+1017521801+1014006108
1231+1012968617+1013657942+1013264837+1011926358+1011645238+1011855988
1219+1010706583+1008964885+1008789465+1009364926+1008842640+1008385739
1207+1008603713+1009031859+1010517581+1012734604+1013764798+1012447632
1196+1009674583+1007720835+1007783041+1008073191+1006659863+1004915924
1184+1003447397+1001088189+999088996+998322871+997419040+996154471+994679298
1171+992889770+991888764+992038103+992172557+991045478+988552465+985982146
1157+983720618+981235697+978662199+976537148+975030257+973512240+971798068
1144+970125222+968543048+967391766+966071060+963379941+959444194+955075533
1130+951207917+949571990+949744159+948315441+944969388+941929669+939725795
1117+938851586+938840894+936745032+931809002+928475809+928721093+927653836
1103+922590793+916451172+912406041+911006006+909596290+907243367+906206959
1090+906824758+908213522+910579522+913060108+913826233+913037277+912195508
1076+911597072+912355322+916678611+922199494+924314574+924533271+926570467
1063+929004019+928645882+927176344+927741257+929031618+928968111+928225973
1049+927848112+927587439+927861984+929443941+930173436+929536492+930305290
1036+932104716+933135632+933948357+935276216+936594465+937730504+937838082
1022+934584435+930420527+929332028+928728174+926455230+924672566+923813674
1009+924077454+925173611+923386756+919031823+916753244+916230741+914842049
995+913906068+916025483+920710810+925501475+929777802+933962518+937932872
982+942092373+946149859+948390218+947982519+946138371+944164610+942455062
968+942189042+943924238+945251230+944453894+942130737+939364118+938315357
955+939333196+939674499+938468379+937658616+937906574+937031064+934366388
941+932932974+933619192+933122194+930208549+927185158+924856800+923314219
928+922987366+922007023+919065563+915259502+911137498+906815871+903368815
914+901367237+900008023+898755736+897349560+895886308+895142797+894157325
901+891698702+889240296+887372306+885532277+886088014+888623437+887617952
887+883695860+882619933+884164682+884689135+884307879+884497243+885147553
874+886649603+889381181+892573272+895707420+899979557+907175814+916333045
860+925746832+934521506+941118389+947757248+957998065+969788905+979357664
847+986816835+994543542+1002882702+1010358634+1015953427+1019568896+1023540044
833+1028413579+1031583634+1033643011+1034401550+1032819882+1033737006
822+1037243596+1038007626+1039402314+1043354245+1043585296+1040996843
810+1040377166+1040631120+1041294507+1043877614+1045304237+1042052829
799+1037980605+1034475532+1028760300+1024301834+1022155832+1018090110
787+1012786190+1008112928+1002750992+996263278+989219537+982513704+976822314
773+971093210+966153640+962787863+958007674+952604556+950483624+950489909
760+949858023+947557841+941643492+935171455+935265668+939974837+943131020
746+943722520+941594580+939009233+939145566+940569588+939659977+934519050
733+928119840+925001948+925265872+925429516+921889475+915305886+910900523
719+909816503+908472317+908568191+913552988+919515817+922029420+924398744
706+929577746+935219212+939617711+942479337+941442135+937018276+936476700
692+942236148+946086786+944900607+945315459+947470204+945290244+942094830
679+944355130+947223330+945391826+943003212+941550653+937448011+933753864
665+934946184+937802536+942320534+946080717+945720774+944252392+944736314
652+945562261+943925683+942614948+944848516+948224263+950941825+954465610
638+960766851+964559545+961542874+959654438+965057483+971388274+961438980
625+937965095+926710196+932944173+942144753+943623684+938978166+937534710
611+942844988+949945732+950392229+939284645+930417998+937155549+946057742
##END=
