##TITLE=Sample description
##JCAMP-DX=4.24
##DATA TYPE=INFRARED SPECTRUM
##DATE=13/9/2023
##SAMPLING PROCEDURE=Instrument type and / or accessory
##ORIGIN=Default
##XUNITS=1/CM
##YUNITS=ABSORBANCE
##RESOLUTION=4
##FIRSTX=4397.6552
##LASTX=599.8556
##DELTAX=-1.9287962
##MAXY=1.8615028
##MINY=0.47670645
##XFACTOR=1
##YFACTOR=1.7336596e-009
##NPOINTS=1970
##FIRSTY=0.49161527
##XYDATA=(X++(Y..Y))
4398+283570823+282976705+283242074+284035325+285292013+286706750+286409716
4384+284156225+282188594+281314083+281263371+281555436+280956557+280381125
4371+282301724+285498934+286333614+284486453+282161536+281048732+281937682
4357+283334042+283316972+283111976+284267860+285528364+284863439+282566112
4344+281196690+281675958+282137074+282139927+282987896+283900208+283231862
4330+281868422+281465960+281772345+282281473+282837703+282295604+280886265
4317+280153421+279750443+278952636+278355905+278761719+280135044+281257097
4303+281567779+281716768+281518958+280792423+280522086+280670869+280087616
4290+279276710+279790651+281134512+281581600+281296514+281397645+281645978
4276+281265176+280590195+280857746+281763457+281171815+279172879+278107882
4263+278188230+278172587+278139684+278609584+279409368+279624368+278893862
4249+278447152+278871102+278976462+277944642+276983388+277701552+279579742
4236+280683917+280081169+278898967+278839265+279796737+279889823+278386504
4222+276742705+276033463+276236602+276773562+276958290+277393208+278944178
4209+280533466+280568896+279822694+279427899+279359310+280075479+280674737
4195+279828900+278585878+278334280+279119331+279296840+278055537+277507335
4182+278476822+279187440+279124746+278841276+278168667+277409642+277228025
4168+277379885+277174958+276618505+276476477+277107108+277652628+277633031
4155+278011650+278259518+277238099+276621891+277403161+278050208+277781161
4141+277601452+278550879+279916365+280562552+280638620+280389634+279669029
4128+278855854+278459787+278177451+277399259+276391230+275937352+275914523
4114+276017700+276777413+277897076+277936150+276914094+276633168+277359222
4101+277558304+277005581+276647333+276797061+277439106+278488735+279235745
4087+279003193+278192734+278081082+278909987+279057136+278215649+277986432
4074+278364191+277885644+276881879+277322830+278935153+279572488+278852863
4060+277755410+277159401+277508865+278180976+278254843+277883856+277352226
4047+276719584+276605766+277187421+278308494+279176214+278723917+278301807
4033+279250236+280433126+280771124+280428330+280237826+280412257+280198838
4020+279433675+278593614+278539533+279923000+281335313+281320460+280914114
4006+280973283+280880369+280659627+280863316+281111064+280975157+280757990
3993+280850010+281710872+283090403+283797547+283184812+281744273+280553717
3979+280201021+280565647+281447704+282646804+283693202+284109261+284293422
3966+284621363+284531372+284083011+283767309+283500978+283374027+283259745
3952+282801879+282623133+283509470+284183042+283312279+282631917+283520524
3939+284451402+284142164+282855667+282208345+283598946+285566836+285692739
3925+284431341+284026231+283959240+282962798+283000187+285617823+288194064
3912+288657518+287764235+285761225+282388518+279456487+278785786+280132998
3898+283089216+285568572+284771900+282701865+283865656+285248074+284373632
3885+284392061+284961390+285973991+288835404+289466945+286874511+284090317
3871+282381246+283529944+285503954+285273980+285609743+287890945+288984789
3858+286370797+279528532+274971199+281245665+289167523+292149303+290470212
3844+287004763+283680292+280994840+280574517+282910849+285737004+288435074
3831+291093502+292478121+292459796+290815396+286114007+283114177+285691948
3817+289063143+293202284+297062632+297129709+293530174+289960620+289169517
3804+288124941+287943548+291330248+293949414+296034817+299175953+301455779
3790+302615410+302795050+301787211+300781262+299917650+299516288+301631294
3777+304700814+305484731+303719619+301830737+302870069+305804438+308355805
3763+309264146+308008558+307807534+310668912+312802964+311645018+311022691
3750+317171392+325426022+336062211+356951656+379418837+394104022+400223706
3736+400286279+401720440+406312275+409700574+410052427+410446947+414204530
3723+420249367+427377371+436455284+446450615+453592097+457794190+465850717
3709+479763743+494223115+506794807+518744069+532134231+545225521+555476163
3696+562781229+564867767+560046303+554181725+554486821+556857000+555315880
3682+550544853+544523774+535913612+525540608+521788628+521045109+515054353
3669+510128303+509064663+506413936+501350982+494933422+487449301+479250334
3655+472106962+463842980+450846788+439375145+438052411+440496372+439558085
3642+435067743+429943006+425051852+419598366+413253969+405305845+396713011
3628+394671546+396891035+395039627+389204445+382912170+379566159+377825871
3615+374921722+372514205+371326554+369769790+368417971+367238158+364660696
3601+361511035+359434742+357805882+355953581+354381689+352169387+347740964
3588+344290883+345239588+346748081+346385500+345398840+344485788+343086488
3574+341394814+339395948+335467663+330123852+327764536+328908008+330024560
3561+330371256+330327593+329339247+327320783+325454420+324974636+324873040
3547+323885245+323055154+323142413+323009256+321784714+320382080+319822910
3534+319352752+318105278+316429797+315113459+314199582+313316545+312712268
3520+312481332+312338686+312024548+311148215+309976035+309391046+309425702
3507+309045897+307904144+307373304+308002267+308098052+307216562+306632603
3493+306228732+305342050+304499651+303965958+303296357+302584399+302523510
3480+302975068+302928482+302544895+302786764+303245576+302959872+302110287
3466+301136897+300328982+300338643+300854975+300828708+300486137+300411909
3453+300300549+299665742+298571572+297934633+298408435+299342872+299900185
3439+299879281+299459113+298862090+298308662+298209370+298613104+298786693
3426+298299035+297606434+297260459+297364221+297690976+298156596+298870892
3412+299567310+299595192+298856245+298135245+298173339+298880553+299396781
3399+299283049+299083124+299060261+299201085+299628267+299907783+299803368
3385+299862606+300410637+301185477+301598976+301262834+300683208+300547988
3372+300886020+301288379+301165777+300595606+300480189+301125964+301716730
3358+301542694+300884508+300179426+299762730+299967709+300317327+300043587
3345+299155840+298490365+298624175+298551253+297554106+296853494+296914313
3331+296813577+296273455+295548294+294849470+294120287+293303983+292770908
3318+292325848+291412556+290284659+289474784+288942225+288040158+286556454
3304+285139397+284121122+283596729+283449304+283046894+282772122+283327407
3291+283941276+284087997+284670219+286036152+287341849+287972961+288023226
3277+288362650+289629532+291054927+291628949+291102785+290096596+289670033
3264+290261899+291386014+292454536+293394783+294002223+294119496+294019207
3250+293824543+293615507+293540179+293653051+294018244+294867107+295931778
3237+296547814+296968601+297416514+297496965+297573566+298168354+298741963
3223+298733299+298527737+298434668+298439412+299039151+300374915+301507935
3210+301982597+302370859+302814441+303109566+303671967+304646629+305409574
3196+306050949+307091587+308006255+308342396+308608194+309195728+310013029
3183+310781406+311015299+310765729+311026817+312096266+312997972+313055767
3169+312729080+312860208+313837999+315393250+316606893+317095892+317543289
3156+318207630+318865129+319536243+320070108+320244969+320412816+320961534
3142+321396933+321335804+321375410+321583242+321399133+321212205+321251192
3129+321042260+320840754+320767764+320550924+320415360+320298397+319681055
3115+318476901+317425466+317133298+317139968+316692467+315713473+314928731
3102+314845288+314928249+314697176+314357081+313928902+313509146+313819880
3088+314942036+315811837+315823113+315711582+316122845+316415048+316252496
3075+316441831+317142271+317573510+317581693+317871523+318588707+319084891
3061+319024725+318609026+318352408+318556698+318840134+318745449+318391120
3047+318131648+317822118+317343055+317165547+317350447+317188479+316158189
3034+314674003+313567456+312942757+312375370+311802345+311348896+310809942
3020+310031320+309290000+308785152+308454306+308259951+308023033+307507905
3007+306993499+306901083+307058926+307327371+308006358+309009109+310214535
2993+312107371+314728909+317506536+319933582+321685078+322933412+323859631
2980+324461468+324897416+325010770+324639423+323970441+323085753+321957581
2966+320805926+319951391+319333017+318830095+318600018+318794992+319173353
2953+319173009+318747099+318319436+318227227+318608063+318781480+318071894
2939+317142374+316418555+315650522+315093209+314694219+314272435+313975075
2926+313686620+313507118+313543940+313503611+313226777+312758097+312110328
2912+311602248+311780238+312354604+312807778+313329025+313868942+314110020
2899+314163757+314154165+314019289+313938666+314202333+314725162+315106480
2885+315283231+315530120+315844739+316184800+316442003+316384862+316154820
2872+315967754+315969232+316128003+316201784+316123671+315878295+315638867
2858+315533558+315343673+314980474+314478032+313988587+313564190+313091041
2845+312965826+313410783+313874615+314065291+314209484+314423951+314682255
2831+314989482+315435985+316075469+316542807+316448398+316187653+316374685
2818+316892151+317363959+317845772+318399441+318834324+319124463+319468684
2804+320024897+320795200+321662353+322402641+322887273+323220389+323524212
2791+323859700+324086201+324074236+324082797+324236136+324290320+324157507
2777+323962361+323737476+323696116+324123057+324405530+323983265+323691818
2764+323952872+324019021+323849454+323886792+324067016+324246656+324227334
2750+324075199+324219461+324622885+324964218+325103598+324951188+324577056
2737+324302731+324322466+324489866+324686009+324893153+324987288+324922961
2723+324946684+325226235+325448060+325390437+325344986+325588230+325926778
2710+325905909+325669541+325840070+326313391+326562583+326578570+326552819
2696+326573516+326639630+326658333+326656099+326554125+326172670+325747826
2683+325533874+325349043+325127940+324965559+324678273+324239608+323982233
2669+324030057+324199176+324215817+323884592+323309882+322889989+322829857
2656+322806856+322652933+322596686+322622987+322660737+322720251+322633611
2642+322396796+322181262+322089741+322159568+322230565+322112535+321842714
2629+321606965+321610781+321783579+321756144+321522320+321544255+321950361
2615+322386447+322643169+322867504+323246449+323741877+324142035+324258036
2602+324190100+324309436+324804038+325613706+326581183+327342477+327692027
2588+327919456+328232459+328472025+328648227+328973332+329359841+329587752
2575+329749720+329984128+330155345+330155517+330154726+330237446+330255702
2561+330238615+330303939+330404434+330424890+330321060+330265398+330384149
2548+330637914+330966182+331163769+331126878+331107384+331293109+331489183
2534+331618661+331861596+332105356+332207949+332264643+332318345+332456763
2521+332773651+333170199+333547082+333909662+334187975+334287301+334280631
2507+334412791+334847055+335333922+335582358+335750858+336132107+336778673
2494+337383844+337604982+337638469+337919635+338516520+339152875+339588996
2480+339872122+340031340+339970692+339804014+339811302+340064448+340206957
2467+340036222+339820001+339678420+339681893+339938958+340197330+340323714
2453+340506242+340727620+340879102+340969558+341062180+341327325+341663707
2440+341756019+341821893+342134518+342368582+342404751+342546194+342765715
2426+342858544+342809826+342736973+342829389+343063797+343321619+343568233
2413+343623448+343487850+343530242+343935007+344483588+344861983+345019035
2399+345194205+345503117+345840908+346155424+346402897+346513775+346379071
2386+345787687+344608115+342753476+340076172+336586862+332652149+328674700
2372+324518471+320010010+315816925+312565290+310004812+308167329+307702913
2359+308937838+311959775+316733518+323100846+329459270+332627945+331216027
2345+327241123+324423545+323794926+324459473+325912201+327517201+328908421
2332+330336807+332351626+334740131+336821718+338852834+341312644+344160098
2318+347211947+349967467+352040837+353787004+355590622+357563360+359910367
2305+362356769+364261294+365637800+366965724+368528230+370220592+371737267
2291+372993921+374050237+374980960+375947302+376929116+377828277+378664935
2278+379423547+380265981+381280903+382143002+382725688+383278601+384100440
2264+385311332+386587755+387471411+387975434+388472374+389105910+389796620
2251+390544403+391282010+391875491+392372776+392911420+393500742+394090717
2237+394610692+394941505+395216998+395727794+396419433+397076622+397668523
2224+398202766+398578239+398830285+399248803+399809073+400177910+400442849
2210+400886705+401454333+401945910+402286143+402663472+403312204+404094780
2197+404779715+405366527+405897676+406371478+406873301+407586909+408462555
2183+409309767+410069961+410672176+411227598+411987449+412946055+413875815
2170+414705906+415631472+416682872+417774945+418854503+419843673+420895142
2156+422063987+423111124+424034386+425065055+426252671+427520017+428829858
2143+430100092+431305106+432550448+433919389+435332750+436618903+437871362
2129+439377586+441120659+442817972+444299063+445595564+446917851+448497615
2116+450345344+452304226+454282808+456371752+458519660+460412909+462058787
2102+463823074+465852780+468067352+470490719+473151004+475992820+478859356
2089+481521738+484238717+487283311+490340351+493456147+496893714+500482281
2075+504286726+508505906+512786147+516801621+520897477+525380118+530067325
2062+534873833+539951330+545353589+550969284+556562288+561961384+567320117
2048+572928351+578926808+585228538+591607075+597869405+603973445+610254615
2035+616899879+623544523+630030122+636355712+642188282+647473646+652762104
2021+658228380+663785147+670014264+676689989+682453109+687002036+691075339
2008+695596623+700844169+705422388+708443431+711597184+716227937+720976067
1994+724336173+726943753+729712303+732473977+735321603+738269415+740609443
1981+742084105+743454731+745593425+748165935+750082873+750864761+750902787
1967+751159955+752325190+754164770+755751996+756299063+756445594+757291981
1954+758147858+757973616+757529209+757904166+759050148+760063489+760893167
1940+762479910+764136860+764736874+764797384+765364874+766893652+769096431
1927+771307737+773159832+775196690+777548888+779478546+781951284+786112945
1913+790938019+795255563+798833163+802554956+807394194+813109869+818395783
1900+822135523+825307910+829643951+834755623+839250366+843714372+849897214
1886+856634480+861464505+865324921+869727111+873453029+875941445+878151582
1873+879874886+880658769+881956232+885221861+889194221+892138389+893392188
1859+893813491+894456275+894651764+894405116+894292760+892722037+888935333
1846+884585128+881421748+880482464+880570204+879990681+878582373+876399191
1832+872031038+865791744+861506587+859573490+858069879+857122825+856070428
1819+854653044+853467800+851654761+848534977+845589778+843883389+842406663
1805+840450326+837306406+833151964+830532558+829930687+828851748+826354050
1792+825370759+827925323+829948359+828998554+827406997+826846177+826946363
1778+827669804+827516466+824396681+819947940+819591823+823346209+826997109
1765+827770334+826287833+826580070+828836346+830363267+831510761+830712232
1751+826587909+824420885+827697790+831742626+833398200+833837518+835135325
1738+837071928+837080317+836439734+839384933+843530504+847035973+850188075
1724+852863316+854239099+852324912+847462295+846767733+853900242+862289919
1711+867570676+868079444+864913176+863425449+864364046+863612412+864516215
1697+869963719+877150756+884875027+890088191+892501519+893685869+892815209
1684+894173390+902268561+909089992+911540175+913220229+917929714+921826849
1670+922172652+926227182+934498727+939853885+943227469+948734589+954135129
1657+954856783+948519159+943871215+951531675+957565510+959105083+964147238
1643+971800684+975912081+974618812+968885190+966455360+974747809+983793747
1630+986701884+986164443+986581551+987802620+990130271+992834323+991971226
1616+991390397+997323564+1002747414+1004056774+1005351074+1008454631+1011206335
1603+1012439713+1013020199+1013760074+1015019237+1017491631+1020455739
1591+1022524915+1024585564+1027199126+1028297937+1028206621+1030054316
1580+1032053836+1029337269+1024218033+1023685612+1024941062+1025139302
1568+1026266236+1028384989+1030428035+1029433879+1019844586+1011330725
1557+1019787651+1030093647+1036499482+1042544319+1049214955+1051946099
1545+1048064779+1039123771+1029966507+1035755894+1052443727+1062393675
1533+1064113061+1063473027+1061605048+1057947685+1055307650+1053471508
1522+1051331783+1050077570+1048694155+1050913024+1059581049+1067107218
1510+1065576377+1055299330+1050757554+1061158441+1070732194+1073741823
1499+1069991700+1063911933+1064112167+1065864557+1062471307+1059159884
1487+1061639979+1065814017+1066975745+1063851147+1058639702+1053469445
1476+1048777219+1045611639+1046250159+1048840892+1048004475+1042827548
1464+1038481675+1036538264+1031249874+1019377419+1010468385+1012933903
1452+1018242921+1019672476+1014691450+1007204132+1001217124+993892908+985079590
1439+976159416+965538905+957580775+954904022+951718982+946850589+944605039
1425+944035143+943017814+943101222+945414433+951192337+958498331+964195990
1412+968547983+974137205+980810867+984767550+986835831+989904733+992212511
1398+993230802+995864648+1002719772+1011221806+1014377141+1011092259+1007892161
1385+1007692340+1007341587+1007261273+1010188319+1016326602+1022499198
1373+1025992290+1027727765+1028677501+1028619466+1026460694+1023358719
1362+1023929165+1026773972+1026777961+1025587971+1026133045+1027071848
1350+1026477335+1023139782+1018540109+1016541551+1015550352+1011200353
1339+1004888102+999743631+996233005+994468718+993525446+993284849+995198486
1325+997222416+997764120+999949984+1003468312+1004619038+1004979899+1008030785
1312+1012347847+1016021163+1020349847+1024424318+1026148791+1027199676
1300+1029380658+1031874093+1033377154+1033963553+1035324690+1037962868
1288+1040053841+1042296640+1047790489+1055451637+1061767807+1065942052
1277+1068289849+1068923625+1068551487+1068109488+1067650504+1067277540
1265+1068127847+1068537185+1065556849+1060838837+1056901751+1054699522
1254+1054809953+1054917978+1051744971+1045699997+1039783470+1036561574
1242+1036512478+1037966787+1038197758+1035410573+1031289344+1028479949
1231+1027336305+1026931574+1026391933+1026193349+1025696202+1023202836
1219+1021671445+1023651437+1024990570+1023136619+1021669108+1021772044
1207+1021389935+1021159584+1021387185+1020940165+1021370613+1022569679
1196+1020992355+1018105123+1018390002+1020736906+1021104506+1017702936
1184+1012514319+1010018684+1012202554+1015661127+1015619870+1012797067
1173+1010168103+1007449886+1004724793+1003992000+1004934860+1004382773
1161+1001512180+998184804+995782272+995044116+994491685+993170567+993047484
1148+993598333+991772436+987541395+983582924+981521519+980348857+977634079
1134+972998031+968632560+966287582+965710946+965155146+964108387+963677252
1121+963144143+960466770+956888689+954957175+953053783+949518884+946234553
1107+944048483+942514754+941605588+940491649+938509044+936650348+936145225
1094+935737262+933127689+930103139+929711129+930065801+928665195+927180975
1080+926951242+927587907+929651100+932254072+933112011+932140959+930935911
1067+931698134+934515230+937181601+938919964+938789386+936414839+934983359
1053+937229596+941749093+944694773+944362723+943329373+943983228+944239778
1040+941437122+938352336+939465313+943104041+945107068+946056392+946242186
1026+944014996+941671736+941811735+942370217+941234206+939555459+938099569
1013+937596302+939274361+940814691+940355019+940283301+941253322+941433202
999+939587915+936044283+933486281+933409680+935442275+939545145+943552092
986+945909448+948870668+952253948+953581666+954651942+957528723+959296860
972+958245013+957520953+958211045+957441602+955636608+956342240+958669616
959+958965979+957030407+954866822+953802598+954733837+956676560+957014042
945+955610754+954114707+953106111+952240608+950542608+948149909+947195910
932+948017611+946916325+942744762+939850722+939935642+940600017+940129206
918+937701645+934637145+933909234+934224575+931770815+927948493+927538123
905+931226911+933491232+929569480+921819079+916199809+917121352+922287965
891+924848855+924260874+924206002+924880692+924838472+923492738+922088281
878+922406716+923981702+926350747+930339198+935053703+939446472+944044288
864+948349455+952048075+955830791+960029103+966329939+974716178+981280922
851+986606924+994092592+1001288499+1006101676+1010788608+1017089169+1024207513
837+1029112419+1031056654+1032017736+1034033827+1037136147+1037029841
826+1033570305+1033007216+1038678264+1049226232+1056650565+1054861043
814+1050481958+1046932137+1041030806+1037774323+1041486696+1044633229
802+1042312936+1040364162+1038478168+1030786215+1022302059+1019578547
791+1018511229+1015766126+1013565272+1009464671+1002778495+999226887+998242014
777+996356707+994787910+991886925+985033726+978253415+975780608+975162166
764+972832934+970574527+970761146+970213115+965535123+960698635+960158787
750+961401241+960416299+957423311+955218950+955900241+958461887+959213108
737+956599203+953594662+950967349+945162765+938230903+936682597+938882833
723+936920100+930278756+925870653+926148175+928026743+929515639+931700059
710+936915287+943655785+945775775+941871901+939029020+942005918+948429287
696+954301463+957444146+959578920+962020440+961579334+958033158+955255463
683+955344509+957024837+960114780+968363977+977664059+976255820+964847300
669+954827696+955479144+958196398+954137673+949569149+953117457+964527627
656+970258636+963555131+957286338+959489186+968099864+976551770+973882581
642+963897358+964454121+977676573+982184587+971802816+964659443+965496341
629+968754062+969733090+963427097+946764087+923969600+916188875+936554907
615+970876253+1002510806+1020328393+1013922970+1000651766+1001653004+1008532057
602+1000274333+984831498
##END=
