##TITLE=Sample description
##JCAMP-DX=4.24
##DATA TYPE=INFRARED SPECTRUM
##DATE=13/9/2023
##SAMPLING PROCEDURE=Instrument type and / or accessory
##ORIGIN=Default
##XUNITS=1/CM
##YUNITS=ABSORBANCE
##RESOLUTION=4
##FIRSTX=4397.6552
##LASTX=599.8556
##DELTAX=-1.9287962
##MAXY=1.8305466
##MINY=0.4630481
##XFACTOR=1
##YFACTOR=1.7048294e-009
##NPOINTS=1970
##FIRSTY=0.47960401
##XYDATA=(X++(Y..Y))
4398+281320822+278772495+276772270+276725264+277061548+277419194+278571637
4384+279320773+278176843+276285491+275773697+275999937+275990795+276888730
4371+277984883+277525427+276912277+277801349+278845741+278542531+277437130
4357+276386707+275899526+276721575+278510068+279752993+280390442+280697026
4344+279645572+278057500+277769621+278135448+277997557+277513015+276496034
4330+275003531+274782010+276270265+277214927+277159145+278034267+279547957
4317+279382796+276964038+274103760+272981682+273826475+275026903+275189827
4303+274537694+274271055+274370068+274229013+273950189+273457361+272968047
4290+273212293+273993944+274631393+276033658+278460772+279701511+279737050
4276+280137281+279861568+278253708+276735682+276375362+277162501+277955777
4263+277785091+277514187+277655941+277184528+276304983+275738892+274775472
4249+273971970+274650727+275724994+276192457+276689760+277245362+277438948
4236+277210382+276562340+275905731+275733962+275465959+275090849+275697461
4222+276217332+275516689+275390441+276877612+278260088+277750759+276186006
4209+275637589+276220724+276377477+275841855+276172284+277504310+278348176
4195+278185864+277362765+276387808+276007454+276642403+277345669+276914060
4182+276000671+275639337+275338225+274757170+274896966+276027103+277050413
4168+277176993+276423470+275347699+274884083+275338067+275311076+274330316
4155+274191918+274776242+274335175+273482639+273594605+273972110+273852522
4141+274050478+274777448+275432116+275749433+275645123+275718963+275860333
4128+274557780+272276057+271609642+273235211+275018635+275331075+274945266
4114+274650500+274368774+274219940+273703897+272877617+272994269+274062278
4101+275061394+275318156+274881198+274578880+274992745+275685627+275849652
4087+275470242+275309311+275711971+275775375+275106303+275028022+276039742
4074+277077858+277014978+275900085+275089468+275257864+276117673+276861826
4060+276576587+275855788+275653164+275867168+276221790+276495719+276339141
4047+276172791+277025415+278340921+278847576+278800185+278303704+277006780
4033+276257347+277224332+278477116+278581776+278249407+278440773+278754577
4020+278288076+277513610+277810159+278721048+278646526+278031226+278097794
4006+278322968+278202803+278570011+279679747+280186333+279328657+278379484
3993+278366531+278784522+279484763+281175642+282907776+282515884+280785446
3979+279786522+279393214+279337467+279717786+280096637+279990404+279329408
3966+279217547+280470139+282390737+283313267+282197850+280784222+281031440
3952+282046166+282344394+282175509+282082509+282033178+282542350+283084632
3939+282657621+281790208+280782806+279870729+280058423+281093043+281688992
3925+281863838+282251272+282038440+281240549+281992464+284578743+286384193
3912+286364684+285343874+282699890+278174833+275192956+276137461+279167026
3898+282479313+283976466+282157993+279868613+281253432+283252800+282656904
3885+281368738+280250803+280201891+282386698+282946898+281101347+279412216
3871+278262588+279009853+280283178+280080991+281780960+285500610+286824018
3858+283898640+276630813+271619344+278064580+286443751+289906218+287926272
3844+283226281+279453507+277494678+278223990+281581938+284423214+286247788
3831+287887499+288449971+287950396+286339966+282475363+280681695+283452295
3817+285844970+288441703+291564739+292170705+289253334+285674477+284757418
3804+283591689+282652796+285457973+288598613+291215956+294092526+295714879
3790+296303678+296848250+297107914+297057743+296106596+294806141+296330529
3777+299564606+300594488+299102650+297697133+298804037+301310759+303897930
3763+305284043+304215737+303935549+306639423+308082210+305572761+303795665
3750+309582999+317817724+328135674+347624672+367919829+380637832+386429606
3736+388626318+391690198+395475140+397934313+398791587+399832343+402780778
3723+407783629+415271316+424416143+432406307+437725986+442678981+451911109
3709+465034463+478153972+490023475+502338433+517223709+531483126+540691794
3696+544819960+543710294+537673505+533376646+536141564+539772148+538628183
3682+532822669+524085222+512564362+500840930+497709048+498346375+494805365
3669+492165052+491412770+488171840+482980193+476942915+469176544+460112864
3655+453047241+445709228+433862310+423779516+423204212+425085390+423298820
3642+418547872+413102854+407312653+401385575+396247805+390681013+382881918
3628+378972301+380683807+380725342+376738004+370132624+365508239+364530800
3615+363524098+361192746+358113517+355281856+354579325+354570025+352680456
3601+349916376+347738369+345462153+343435357+342648847+341349126+337606349
3588+334340351+334919781+336153598+335294016+333588279+332469872+331048028
3574+328990605+326779873+323437553+319275544+317621656+318626820+319417421
3561+319432769+319106012+318548714+317829996+316848571+315673595+314251401
3547+312668486+311745868+311799954+312039411+311688530+310970895+310507995
3534+309994679+308883300+307437821+306054470+304870055+304272795+304608013
3520+305178736+304790516+303592010+302499266+301566124+300757797+300415132
3507+300140643+299617608+299823816+300767271+300964843+300359682+299958560
3493+299642117+298733518+297622803+297287096+297658954+297746709+297358139
3480+297122843+296844823+296235746+296012023+296277491+295940665+294706988
3466+293716927+293650639+294019141+294385999+294683598+294881764+294904594
3453+294464035+293503867+292734506+292999712+293801221+293954041+293799648
3439+293928169+293892333+293856566+294128503+294375161+294453022+294225942
3426+293644031+293055739+292953981+293594769+294383133+294536092+294170108
3412+293877718+294123713+294752893+295106047+295242609+295440670+295450355
3399+295291696+295066120+295115626+296107540+297510085+298121679+297773665
3385+297017852+296591487+296917440+297557319+297946134+298084200+298165137
3372+298297714+298422599+298235237+297873902+297997983+298475182+298528675
3358+298123777+297765484+297594484+297561305+297452083+296937403+296523066
3345+296644245+296743083+296611800+296153305+295107655+294029070+293518971
3331+293438593+293463136+293516663+293248800+292185896+291068520+290767915
3318+290485665+289290359+287650088+286331347+285522636+284993360+284135841
3304+282758592+281701823+281402372+281085159+280470209+280228794+280370793
3291+280624025+281356204+282181051+282390649+282947650+284527716+285856333
3277+286301018+286728239+287639704+288462540+288388141+287835038+287977352
3264+289037914+290267396+290682188+290229672+290194709+291277577+292567841
3250+292934210+292391229+291680587+291290653+291580280+292411367+293003523
3237+293318567+293944426+294770829+295108494+294865402+294723840+294959275
3223+295492484+296310705+296982784+297361356+297976936+298840328+299602959
3210+300416216+301264679+301950778+302512901+302903289+303446882+304460542
3196+305351904+305702191+306075867+307009848+308190243+308954238+309315748
3183+309760852+310167637+310557257+311693494+313162153+313627220+313511425
3169+314300243+315729465+316293301+315768692+315164685+315192095+316038741
3156+317523412+318884002+319496855+319670093+319798055+319907766+320210329
3142+320893841+321715663+322120316+321813033+321275524+321205564+321431420
3129+321391249+321246435+321190915+321024705+320888282+320852830+320362835
3115+319078462+317792901+317456844+317593896+317312205+316755536+316113839
3102+315257929+314380866+313510796+312827145+312938429+313617011+314165079
3088+314690317+315355089+315782747+315930288+316002205+315847567+315593496
3075+315654436+315929274+316351513+317284690+318377399+318776039+318623114
3061+318427885+318322404+318585844+318967142+318850194+318481482+318081654
3047+317447439+316835040+316343471+315757854+315183459+314683604+314070017
3034+313225504+312488675+312029306+311216924+310090091+309515662+309394972
3020+309070278+308735340+308733731+308620733+307970646+307015093+306251273
3007+305937312+305887526+305728273+305354981+305336626+306229002+307752691
2993+309613241+311970080+314668850+317018837+318680837+319981187+320967402
2980+321368069+321378383+321445965+321372649+320649910+319686805+319087727
2966+318476832+317579596+316931816+316697499+316401753+315995527+315776139
2953+315426727+314712798+314557985+315570771+316741377+316850354+316015491
2939+315208492+314594695+313656659+312585346+311907078+311587209+311410125
2926+311583118+312034551+311967388+311168606+310283432+309632435+309061852
2912+308570947+308398094+308714992+309432766+310257001+310903103+311204233
2899+311178291+311019947+311169655+311891800+312701106+313216624+313596069
2885+313889262+314105469+314167737+313933280+313639632+313450941+313322979
2872+313593971+314222977+314493025+314251646+313801507+313318784+313188025
2858+313525236+313631661+313185997+312701840+312277259+311700137+311082040
2845+310816012+311203708+311800793+312167058+312520736+312980943+313430033
2831+314017434+314835865+315294884+315075007+314833837+314991097+315320651
2818+315728765+316217712+316526324+316623554+316898916+317469290+318041168
2804+318487705+319045947+319849030+320684277+321397822+322019171+322502314
2791+322738414+322650274+322422670+322456024+322676810+322685306+322477525
2777+322354388+322463331+322595523+322563952+322508887+322527207+322598110
2764+322763447+322869592+322845468+322942069+323118943+323260295+323453951
2750+323567158+323467796+323338401+323455314+323793399+324135435+324374192
2737+324361011+324096207+323949540+324105892+324297100+324469604+324762168
2723+324882228+324637108+324395519+324414189+324605956+324863174+324922854
2710+324716926+324633192+324821359+325126614+325299957+325171750+324935650
2696+324872404+324999631+325080883+325074695+325111510+325129865+325055885
2683+324892227+324621165+324197912+323860352+323932933+324100193+323872938
2669+323391333+323018181+322742050+322473959+322269500+322067873+321835759
2656+321666017+321480647+321180671+320965689+320972646+321007433+320943977
2642+320938313+321008412+320906812+320700570+320623408+320583726+320512473
2629+320520514+320665398+320925167+321109593+321004112+320849649+320906358
2615+320923314+320869158+321117949+321665003+322134091+322514481+323099364
2602+323788330+324184487+324258222+324504881+325255834+326115800+326546325
2588+326639849+326746449+326905457+327190540+327684801+328139659+328369676
2575+328536621+328769049+328863273+328792719+328909703+329231460+329409662
2561+329427493+329544792+329640973+329430220+329161396+329229327+329511612
2548+329716701+329842425+330015453+330157330+330177223+330408708+330955413
2534+331385588+331566238+331581097+331548582+331764649+332215906+332542104
2521+332646117+332791769+333020387+333111744+333086291+333167159+333488532
2507+333947830+334281265+334400242+334558795+334944988+335318490+335498196
2494+335779747+336344527+336841899+337127156+337589986+338407543+339237092
2480+339588078+339352677+338883869+338592808+338799295+339334777+339473542
2467+339090006+338942151+339309639+339653038+339620593+339247476+338797757
2453+338696191+338985644+339404177+339722892+339844945+340053810+340451226
2440+340761411+341100230+341525056+341643018+341484534+341504778+341859644
2426+342231747+342286813+342172836+342163116+342241712+342309643+342414355
2413+342680068+343122585+343642543+343987236+344000102+343928080+344003773
2399+344239558+344597817+344909854+345119138+345362930+345440616+345121236
2386+344719975+344302176+343131780+340654391+337303226+333814659+330322037
2372+326635829+322728170+318675697+314774961+311579377+309521990+309023288
2359+310417163+313445557+317928834+323975028+330079993+333323370+332331002
2345+328649723+325789393+325240241+326119437+327378846+328543019+329794527
2332+331184730+332949029+335240734+337456920+339459732+341841988+344653092
2318+347414619+349918999+352217556+354398920+356481445+358402480+360236039
2305+361979256+363528818+365063205+366636855+368087788+369434184+370655624
2291+371849969+373273352+374681770+375694591+376460404+377210624+377994197
2278+378822942+379676615+380585004+381484792+382353673+383375410+384431304
2264+385286900+385991004+386583544+387205313+388007661+388875773+389711685
2251+390483162+391138529+391662718+392148938+392754169+393408172+393964736
2237+394550563+395255402+395930313+396465620+396786503+396927646+397138503
2224+397509417+397984834+398581954+399118205+399364129+399561281+399997505
2210+400508023+400983265+401579406+402291202+402917620+403421741+403885655
2197+404297685+404817189+405604818+406421501+407129836+407945784+408833440
2183+409554571+410181060+410901317+411751563+412603558+413336261+414032360
2170+414808906+415764948+416961775+418285061+419435179+420207774+420913801
2156+421982352+423284241+424514107+425795019+427194977+428394041+429398961
2143+430558204+431880580+433196664+434601271+436186529+437830313+439396272
2129+440704384+441819050+443145517+444725146+446351659+448055753+449763798
2116+451470270+453448013+455422331+456981646+458571869+460543249+462606755
2102+464693301+467054021+469597384+471952895+474260367+476820267+479532917
2089+482454326+485631519+488871749+492171835+495540271+498955102+502525481
2075+506299584+510205110+514169758+518291036+522683482+527257171+531958857
2062+536925383+542178353+547482719+552908368+558779646+564824966+570562444
2048+576109587+581904822+588081844+594414764+600717266+606933761+613165989
2035+619531143+626053418+632780921+639387595+645629193+651805411+657848004
2021+663523564+669006831+674484084+680136708+685954844+691415455+695985509
2008+699911977+703870262+707934412+712126454+716699863+720942181+724255482
1994+727641015+731700480+735466542+738325893+740775557+743455413+746313925
1981+748512979+749864759+751054804+751806981+751822225+752585311+754915124
1967+757573233+759421127+760078067+760032406+760535653+761431525+761670037
1954+761707797+762344039+763229843+763870421+763969154+763661906+764407930
1940+766656002+768436349+769051614+769857913+771600850+773878081+776119999
1927+777670364+778076346+778431981+780355534+783792881+788204905+792835373
1913+796693875+799971025+803858476+809304683+815380141+820328905+824390188
1900+828451611+832262075+836504463+842253443+847762372+851603952+855726489
1886+860998515+866203762+870762068+874911246+879417249+883845146+886860219
1873+888719651+889815996+890059334+891403841+894912162+898382513+899914908
1859+899794847+898882683+897842347+897739977+898164069+897669633+895672590
1846+891358670+887427167+888197944+889830751+887955516+883932202+880200403
1832+875991649+871206298+868757613+867656583+865464520+863506985+861924175
1819+859918042+858743870+857968757+854721535+850091906+847940330+847452047
1805+845751974+842589989+839532821+837904630+837126441+835312041+831687786
1792+829562641+831574578+833767689+833805308+833140816+832627500+832303470
1778+831925179+829976944+825882446+822829964+825375424+830912323+834559304
1765+834916128+833626511+834187236+836254762+837424249+837995322+836811851
1751+833246192+831236283+833542952+837801631+840489808+840351707+840913480
1738+843915617+844953156+844117629+846644839+850723394+854442187+857325732
1724+858781629+859466609+858373200+854300450+852636247+858627306+866719944
1711+871708706+872844559+872293624+873021398+873219564+869873048+868723700
1697+873835528+882135912+891403352+897967232+901575334+902692308+899298873
1684+896799913+904094853+913555493+918817729+920619823+923284784+926018132
1670+926578576+930688107+938390987+943250178+946817305+952948352+958087451
1657+957647346+949915868+944915149+954112105+961856659+966217429+973643757
1643+980234558+982664713+981520609+977447089+975521299+981533475+988643395
1630+991567776+992707755+994090301+994333149+995781844+997613306+995614305
1616+994916319+1000680473+1005942219+1008073657+1009724713+1012245420
1605+1015049392+1017524648+1019397505+1020068360+1020096260+1021301618
1593+1024224251+1027934303+1029974210+1029000722+1029319857+1034191215
1582+1038159988+1034823682+1026292617+1023400121+1029509981+1032397792
1570+1029982811+1030634157+1034309038+1035451324+1030425922+1016862044
1558+1010382353+1025225779+1039648610+1046406041+1048998910+1051590241
1547+1053844326+1052381996+1043960153+1032187669+1036206228+1051286559
1535+1058342567+1059943837+1064182798+1067333315+1065149015+1060976202
1524+1056439852+1051682122+1051888888+1055751865+1060640914+1065989996
1512+1068161711+1064443966+1054398198+1050407398+1061841308+1070386078
1501+1070842265+1068060810+1066591557+1068708240+1069563556+1064922040
1489+1061285198+1065251174+1071528574+1073741823+1071143080+1068366939
1477+1066421151+1061394351+1053806916+1050902883+1053755172+1054897948
1466+1051763514+1048828504+1046557567+1037725407+1021592993+1014606700
1454+1020081086+1023242092+1020312187+1012479248+1005020754+1002735623
1443+1001228680+993867172+980253228+965951786+959540901+957556165+951293659
1429+943544560+941300754+942712039+943772304+943202489+942064678+946642214
1416+957611545+968454522+975542766+977442124+975349215+974756745+980129741
1402+986797738+988780027+988781006+990917129+996316137+1004083067+1009497738
1389+1010405428+1009290412+1009369427+1011025658+1012891522+1014811648
1377+1016788413+1019325902+1024372421+1030666043+1035316439+1037301036
1366+1035663195+1031605967+1029213222+1029128823+1029014567+1028918490
1354+1029309858+1029267413+1027785225+1025082644+1022459218+1019834323
1342+1015315174+1008789403+1003548634+1001214276+999673980+999120108+1000827314
1329+1002063788+1001955685+1003730648+1006807255+1008370276+1009309502
1317+1011640993+1014652990+1017892870+1022915125+1027979475+1029251680
1306+1027440147+1026875997+1030060147+1034173874+1035820315+1035691864
1294+1035193372+1036079106+1039026002+1043015893+1048684180+1055221698
1283+1060144101+1062789484+1063881354+1064622414+1065213835+1065893780
1271+1067498966+1069484891+1070961766+1071248386+1068949619+1064051760
1260+1059855383+1058667716+1058057835+1055665159+1053377580+1052712179
1248+1052380807+1052192081+1051755542+1049665080+1046159627+1041556079
1236+1037240551+1035037860+1034196599+1033768591+1033194022+1031547580
1225+1028940587+1026252900+1024472763+1024335221+1025624069+1027889622
1213+1030383897+1030217267+1026046832+1021519573+1020189190+1022341884
1202+1025752870+1026731043+1024258444+1021663827+1021086950+1021186103
1190+1020811587+1019811737+1018689799+1018525197+1018885937+1018420101
1178+1016487808+1013233383+1010905248+1012033409+1014235680+1013429591
1167+1010932658+1008863453+1005940751+1002452708+1000776409+1000451400
1155+999079552+997391295+996685408+995342928+993021995+990965447+989465707
1142+988212520+985983818+982995735+981598644+981083231+977996905+972844520
1128+969242641+968352922+968997136+968438440+964430929+959250505+956430031
1115+955294737+952132683+946432650+942157608+940817715+939489150+936032085
1101+931751029+928547230+926433133+925223929+925055202+925132748+924372249
1088+922267453+920317819+921565202+925959535+929364647+929208435+927106506
1074+925148551+924222122+924919478+927155942+930684751+934907559+937897180
1061+939360559+940409566+940182172+938725156+938163942+939371398+940695487
1047+939457405+936409117+934570523+934511018+936729861+940666119+942154531
1034+940211260+938770886+940455367+942731268+940558086+936706296+937523434
1020+940085466+940091690+939596554+938984995+936730910+934258800+933702551
1007+935147820+937507771+938828364+937960951+937338134+938397839+938731729
993+937019628+935330812+937573639+944405540+950662451+952508737+951961997
980+952203097+953902541+955904828+957271922+958526646+959229807+957353104
966+955382353+957450089+961196013+961952246+959264000+956639105+956353953
953+956972925+958028015+958569440+956536736+954342156+953920512+952857101
939+951121715+950689792+950056486+948433609+947353136+946121346+945089751
926+944883963+943000897+939937296+938264843+936806009+934687647+932906181
912+930555181+927944411+926841772+927234258+929216966+930472110+927589544
899+922515965+919253778+918506985+918379513+918863530+919990433+919645285
885+919141410+921096708+924605308+926937568+927327747+927775473+928851541
872+929444361+928937338+929014045+932815209+939276650+944984375+949775110
858+954839249+960595152+967792617+975991821+983026852+988804571+994003175
845+998882225+1004305287+1008753462+1013177653+1020577200+1027732641+1032282487
831+1035456498+1036261608+1036089944+1037228664+1038326198+1038883776
820+1039359402+1037891408+1034251420+1031427520+1030588077+1031301516
808+1032446180+1032312624+1032643437+1035993099+1038780358+1034450705
797+1025941736+1021840036+1022499634+1023424175+1021521880+1017489126
785+1014601106+1009924348+1000346583+992191572+990569185+990362768+986062203
772+981984558+980316090+975908681+969346409+966591595+969141041+972297362
758+971348836+965476439+957721466+956118797+961733383+963512541+958158914
745+953135610+951636499+952601876+952955834+949106352+942836784+938927657
731+937981509+937189265+935541075+932588794+926958406+921713721+920853370
718+922235567+923102910+924143317+926490891+930653005+935550515+938149747
704+938208833+940448444+947209301+951928154+948242855+942577225+942070202
691+943196266+944123185+945967373+943473866+938255333+938874235+943340031
677+947375022+952513632+955393820+948446195+934784492+934481440+945740678
664+950028726+951207932+952329451+949665188+945227921+942063769+941503325
650+946576625+955867349+955624291+936020757+914699947+914439199+931166880
637+943595325+950175567+960748217+969848746+964396945+944466654+930478963
623+933957426+935584428+923409110+911477338+907661490+914981183+926200495
609+922632319+908799790+899830789+905604452+924287781+931730122
##END=
