##TITLE=Sample description
##JCAMP-DX=4.24
##DATA TYPE=INFRARED SPECTRUM
##DATE=13/9/2023
##SAMPLING PROCEDURE=Instrument type and / or accessory
##ORIGIN=Default
##XUNITS=1/CM
##YUNITS=ABSORBANCE
##RESOLUTION=4
##FIRSTX=4397.6552
##LASTX=599.8556
##DELTAX=-1.9287962
##MAXY=1.5830929
##MINY=0.22132184
##XFACTOR=1
##YFACTOR=1.4743702e-009
##NPOINTS=1970
##FIRSTY=0.24289608
##XYDATA=(X++(Y..Y))
4398+164745654+163610307+162467157+162193283+162570590+162699674+162372568
4384+162019467+162168956+163168963+164443905+165019548+165084919+165579920
4371+166764153+168317689+169581292+169305649+167145139+164777076+163523146
4357+162465904+160946458+159833851+159102837+158652458+158985911+159069302
4344+158374319+157914005+157481474+156444466+155448350+155103567+154805568
4330+154034298+153465144+153503924+153769662+154079920+154444240+154900905
4317+154939493+153860461+152131764+150666177+150112800+150602727+151459753
4303+152260858+153004971+153761202+154307272+154353461+154448808+154487578
4290+153870467+153280503+153256539+153621506+154125006+154008708+153118885
4276+152518309+152427984+152356671+152372073+152232003+151871767+151408229
4263+150723392+150814616+152179084+153445072+153683269+153033159+151900045
4249+151243852+151633944+152162276+152392631+152974418+153502246+153236457
4236+152783188+152919801+153212858+152956266+152564931+152741335+153257843
4222+153416490+153361044+154050054+155225829+155396098+154550260+154337098
4209+155115938+155507222+154940504+154109220+153820913+154536727+155734170
4195+156189916+155775164+155646302+156157251+156371404+155901963+155601094
4182+155884499+156020708+155727884+155472728+155513357+155450432+154691432
4168+154062829+154680537+155675430+155969335+155874867+155895970+156100360
4155+156156796+155749209+155543132+156214294+156787572+156570184+156771876
4141+157701398+158007866+157372361+156704322+156489977+156389111+156176252
4128+156344176+157391321+159076044+160420571+160883452+161093371+161173538
4114+160542429+160066267+160621707+161075017+160925598+161397019+162603215
4101+163312379+163375263+163481273+163724665+164242629+165147126+165929706
4087+166537367+167777350+169677226+170828147+170448738+169517376+169524209
4074+170528824+170919533+170579944+170831260+171248772+171177074+171225668
4060+171663717+172193111+172691335+173238032+173720834+173962730+173719116
4047+173050410+172769259+173160493+173892124+174460692+174290756+174089712
4033+174702447+175376509+175521097+175679147+175907581+175716219+175297232
4020+175095662+175184359+175433330+175760224+176160029+176901423+178154949
4006+178713430+177608030+176297764+176162010+176353311+176200517+176365278
3993+176944276+177668003+178857351+180278549+180904766+180630488+180603442
3979+181227658+181828588+182065896+181999454+181798409+181730067+182102705
3966+183076009+184156466+184700152+184620955+184265478+184076138+184217067
3952+184709793+185526766+186551272+187239424+187140236+187322502+188431440
3939+189127394+188734078+188248163+188755807+190056734+190831744+190339138
3925+189758078+190319167+191220956+191883760+192806005+194290431+195652322
3912+196199181+195945399+194721911+192848596+192109768+193396748+195612704
3898+197967062+199424765+199130435+198662915+199666136+200143157+199953412
3885+201125093+202027690+202519588+204207666+204590127+203529904+203386994
3871+204095925+205795525+207124690+206682214+207086405+209450082+210718303
3858+208935505+204492294+202257579+206550846+211118047+213268289+212913116
3844+210714523+208665613+208290367+210239625+212865836+213906048+214065109
3831+214630301+215367774+215951684+215686805+213841668+213326322+215187226
3817+216943403+219500484+221751571+221620405+219755721+219137609+220569783
3804+220479287+220202846+222678566+224987586+226734081+228707979+230056165
3790+231169631+232360313+233532216+235153528+236517198+237657346+240172908
3777+243191990+245055077+246403021+248534241+251472045+254879248+259115917
3763+262748442+264934421+268855292+275268075+280802032+285385667+295553005
3750+317065829+342322009+375310192+420711666+453836170+470199480+478573447
3736+482534382+486780854+493318780+500295057+505962464+511555202+518206243
3723+525099039+532634870+541739396+551379300+559447395+566636037+575801164
3709+588262118+601898937+614231333+626272693+638669327+650447830+661205950
3696+668707134+672799013+678007612+686498737+694207717+699180180+702869000
3682+707772576+714279413+717888914+716384295+717146913+722965356+729257606
3669+734561492+738673261+742431777+747294844+753099461+757646712+758774145
3655+759900123+763409850+766161244+765113371+763812101+768892505+778035438
3642+785157900+787968479+788358440+789422079+794280700+802824582+808556269
3628+806650208+806039272+810909212+817488657+821610613+824739920+830789041
3615+836638693+838214141+838129648+839970702+844177152+848632632+850540958
3601+850232660+850416603+852398910+855088046+858950217+865769314+870318020
3588+868069945+869968082+878008485+881471154+881119114+882585004+883402846
3574+882481915+883370505+887800921+892877929+894008031+892159457+890942437
3561+891862802+895560516+900640677+904178865+906636596+907586311+904625505
3547+901122408+901861336+907419994+913117398+912489483+907603533+907500606
3534+914090318+918746884+916518537+912571873+911036610+912654021+917021128
3520+921319751+922591914+920727089+918580728+918269762+920981618+924644807
3507+923711828+918559544+913253718+910568948+911784028+913363923+912040498
3493+910350480+910269949+909850719+908803897+909972324+913417367+916186145
3480+914526366+908485654+904394342+904780017+907546773+912631382+915914636
3466+911646899+903718480+899551084+899949372+900827289+898863498+894884492
3453+893895481+897687067+900304161+898418152+895611454+892768048+891032670
3439+893351250+895372044+892098331+887482112+885400111+884804781+886165479
3426+889214336+888255888+880364177+871161574+867735369+870324731+872823212
3412+872819412+873212364+873326046+870185581+865683043+863547840+863578565
3399+863946291+864209957+863957044+861822408+859097777+859305007+860636678
3385+859397908+857655011+857042135+854783872+850486462+846834512+843971943
3372+841562240+841432226+843768271+846188243+846725035+845648863+844282505
3358+842969511+841335201+839872788+840024632+841522702+841345389+838727405
3345+837014505+836343737+833329728+829782646+829616733+830207132+828382329
3331+825044498+820120386+817112279+819448486+820269481+816208408+814296849
3318+815606771+815233628+813547005+813472134+813579347+811813892+809998873
3304+808607450+806843854+806518011+807361322+810490871+817722811+820713453
3291+816453640+814979664+815760718+812412861+809794392+810887139+811663341
3277+812887234+816044759+818715703+819477917+818967968+819101944+820341765
3264+821382361+821003477+819353482+818983169+819539851+819160321+819467082
3250+818765913+813927668+809516576+808690972+808274491+808511475+809207632
3237+806941526+802654546+798824797+797451404+798848568+800473741+801988386
3223+803729909+804160944+803133527+803243246+805162729+805766307+803777451
3210+800555485+798337973+798217742+798393196+798266012+798260272+797577214
3196+797008888+797419790+797271503+796904991+796594429+793017997+788149836
3183+787247016+788066717+786109718+782729358+782023014+782693378+779723273
3169+775934841+777314782+780990908+781356450+779091315+777258750+775491354
3156+771853473+767316491+763492888+760603395+759197175+759280779+759758062
3142+758511773+754153802+749133554+747171703+747912733+746987840+743537218
3129+741908972+742877769+742478510+739430219+735677606+732076594+728502911
3115+724919041+721101340+717679906+715706007+714008146+711155523+708125667
3102+705168094+701818863+698518064+695986513+695233678+694439607+691353638
3088+688428569+687249146+685936475+684178458+682394164+679576308+676355595
3075+673903767+671384870+668616213+665996168+663269839+660641303+657703257
3061+653485650+648723933+645323117+644140703+643986109+642526122+639165611
3047+635389793+632661806+631165111+629543374+627312965+625178167+622600893
3034+618168375+612300449+608473086+608053532+607901607+606350214+604918929
3020+604560017+604644590+604346278+603484775+602622220+602606454+603545335
3007+605368116+608848533+614132488+620188805+627346277+636910380+648345009
2993+659607661+668691731+674701638+677454648+676977082+674435505+670282461
2980+663908346+656700178+650878056+647193077+645978199+647366550+650856346
2966+655469897+659580453+662401301+665186249+668738708+671670771+673265987
2953+674466796+675018304+673998164+671591089+668563011+665478538+662315231
2939+658384051+653165992+647466769+642092540+637288092+633610309+630951615
2926+628403934+625176631+621496705+617710497+612988480+607085342+600856239
2912+595041677+589990421+585921586+582934380+580455992+578408273+578236983
2899+580338227+582753994+584452017+586381203+589283147+593088801+597052000
2885+601151600+605979415+610821057+615046668+618372047+619639116+617756099
2872+612600015+605227874+596350063+586090329+575041093+563090694+550382002
2858+538291685+527244065+516475555+505323957+493894382+483218208+474163609
2845+466778531+460496469+454657044+449555092+445658194+442264129+438917890
2831+436299097+434689084+433435276+432146416+431366535+431474435+431714290
2818+431298779+430595387+430129625+429414104+427813187+425415006+422871529
2804+420761755+418709186+416023082+412630190+408742307+404781574+401294203
2791+398457104+395852906+393031694+390169287+387454884+384777877+382294960
2777+380134207+378175146+376381917+374679852+372920541+370994630+369051659
2764+367692699+367160677+366825253+366161681+365317036+364350987+363118686
2750+361923618+360958418+359827993+358340313+356722013+355299501+354214840
2737+353147845+351951766+351051735+350581122+350150532+349574647+348987685
2723+348408889+347734927+346983709+346140195+345174349+344375387+343975926
2710+343673288+343033608+342071199+341048108+339851342+338320586+336779300
2696+335449831+334128428+332694981+331158869+329401742+327612859+326159157
2683+324812265+323406167+322146536+320777874+319064084+317331941+315898837
2669+314805747+313927183+313005544+311861596+310711887+309906032+309386846
2656+308799661+308014868+307254291+306745737+306481445+306235566+305857471
2642+305523138+305427589+305511718+305625177+305839602+306262208+306538022
2629+306516798+306737106+307405994+308120707+308726912+309528098+310534695
2615+311317749+311946675+312948683+314168715+314892989+315128396+315429094
2602+315835751+316128888+316288394+316435448+316577691+316349742+315664380
2588+314951568+314303196+313478300+312478050+311394015+310204546+308924702
2575+307588159+306175957+304703760+303220567+301815379+300589727+299394235
2561+298086455+296979155+296260784+295656013+295033899+294524294+294133889
2548+293695214+293202447+292887276+292714248+292503299+292409002+292427437
2534+292358974+292378399+292627996+292850609+292870923+292989294+293531564
2521+294341826+295134603+295802905+296406362+297035247+297698941+298537562
2507+299561442+300453791+301086679+301628625+302155169+302541330+302710740
2494+302749247+302782882+302797982+302560553+302031684+301593251+301428309
2480+301272866+300922382+300368490+299684098+299019717+298298092+297287594
2467+296203802+295503744+295201147+294961777+294521283+293733094+292647705
2453+291631567+291068113+290916814+290783324+290452549+290028124+289616676
2440+289285436+289042650+288667365+288088912+287616561+287338240+287110028
2426+286955233+286852810+286782528+286855196+287040595+287101822+286889882
2413+286595997+286496081+286639476+286926934+287270545+287611427+287856274
2399+288060350+288371417+288665303+288800855+288856807+288854260+288708338
2386+288270612+287292860+285531104+283032643+280205873+277315531+274381447
2372+271477642+268551098+265566075+262704841+260218124+258602633+258421802
2359+259660411+261982185+265325109+269730278+274252949+276651777+275686942
2345+272809718+270882979+270502498+270888962+271898853+273293248+274460583
2332+275176831+276289266+278462794+281062141+283304496+285413926+287842771
2318+290092827+291531571+292412519+293225510+294186364+295480094+297092836
2305+298742649+300229016+301499824+302640579+303752326+304772365+305688829
2291+306541297+307322532+308078137+308721717+309120289+309354363+309534162
2278+309787216+310261892+310877093+311445944+311838452+312029389+312200578
2264+312456745+312728780+312989960+313129029+313046841+312968857+313107724
2251+313250998+313137943+312866070+312735390+312869042+313056523+313169941
2237+313327749+313478745+313445129+313297004+313219849+313261266+313463908
2224+313777481+313998941+314133342+314299457+314471374+314591725+314706336
2210+314957167+315407000+315978338+316511047+316940848+317437355+318042873
2197+318584396+319065257+319570455+320007473+320367396+320829924+321425800
2183+322117510+322903798+323584451+324102970+324715502+325419825+326009253
2170+326515523+327055570+327672893+328391729+329142239+329837688+330613446
2156+331629866+332679053+333496288+334188927+335007861+336044919+337226586
2143+338468509+339666064+340691823+341613603+342591982+343641957+344664684
2129+345634451+346641776+347684716+348790400+350113339+351552426+352886806
2116+354208048+355644830+357110882+358577257+360100270+361700257+363507555
2102+365571040+367678186+369764269+371950167+374309013+376984970+380027075
2089+383232749+386488998+389839078+393346945+397146697+401257334+405555108
2075+409996197+414517614+419042185+423739905+428881233+434442802+440254655
2062+446162159+451977287+457847922+463990429+470124002+476139973+482470022
2048+489144834+495639947+501887606+508325029+515029071+521701700+528251471
2035+534638724+540695122+546509522+552269750+557901257+563261377+568396803
2021+573485818+578591045+583507112+588068108+592602462+597169118+601205934
2008+604567617+607507159+610350969+613352769+616231468+618735003+621039959
1994+623227596+625121084+626753817+628398597+630163001+632006764+633391962
1981+633853640+634103521+634841398+635649052+635961878+635822849+635459368
1967+635153293+635202817+635311445+635102274+634633198+633914806+633155341
1954+632768857+632674217+632405619+631804871+631185729+630845372+631074918
1940+631946528+632908614+633825018+635137001+636936416+639120171+641747534
1927+644743715+648043665+651946021+656406757+661214722+666753692+672920820
1913+679224753+685680652+692457785+699629650+706958129+714326308+721940851
1900+729455780+736337216+742943423+749509850+755604572+761410402+766943672
1886+771632902+775714917+779671526+783303828+786121199+787984812+789094619
1873+789253417+787739014+785342976+784244246+783729041+782013392+779386838
1859+776413741+772611160+768090429+763783883+759453241+754191157+748174540
1846+741333531+734059063+728935401+725461978+721438341+716874758+712260964
1832+707226889+701638477+696999295+693877993+691081320+688486218+686033258
1819+683676272+681912757+680213683+677639643+674674066+672711286+671922066
1805+671331627+670158389+668438779+667280620+667153517+666813201+665585630
1792+665256431+667010203+668604894+668888652+668790495+668712673+668696906
1778+669296118+670075675+669862018+668763975+668980382+670856082+672872307
1765+674290048+675168450+676371968+677965042+679264372+680233331+680664850
1751+680743360+681739648+684236916+687430341+690577355+693270372+695519094
1738+697498894+699033025+701416936+706178451+711434471+716037349+719980536
1724+723779964+727474444+730372265+732890717+737136542+743606995+750279099
1711+755708794+759192566+761828096+765883428+770629176+774816220+780130698
1697+786899018+795695328+806071209+815764356+824902518+832494098+839010233
1684+849904472+864364631+876546961+886280130+894687854+902526201+909484206
1670+915519986+921141144+925734481+929242510+933216261+938641428+944173970
1657+947492719+946474277+944176234+948231405+953133282+957342076+965024132
1643+973157759+977683341+979328404+979656673+981003869+986106750+991412900
1630+993687253+994337241+995815098+997914724+1000019040+1001373755+1001403429
1616+1001582279+1003458828+1005422781+1006251943+1006425780+1006514396
1605+1005989651+1005859718+1007622586+1009276786+1009541099+1010005527
1593+1011407623+1013072980+1013119795+1010823045+1008035025+1005883975
1582+1004178513+1002386457+999040864+994801265+993845889+994554982+994367723
1568+995465241+999591887+1006279272+1013002960+1016636961+1021981759+1031824809
1555+1036837053+1035719969+1032613220+1030859085+1029134056+1025809890
1543+1023011197+1023067633+1029455291+1038644715+1045064633+1050646658
1531+1056550564+1060498199+1063522557+1067171353+1067902115+1063776116
1520+1060389288+1059256033+1057519119+1056189792+1055526948+1053633500
1508+1049780061+1048362360+1052694700+1056299512+1056678799+1056023070
1497+1057520574+1060363495+1061565234+1060225234+1059106856+1061959318
1485+1067342199+1072079133+1073741823+1072490359+1070456143+1067581123
1474+1063897964+1063078585+1064887945+1064353093+1060643090+1058570388
1462+1059263148+1057022673+1048657883+1040624515+1040475743+1041469524
1450+1036958011+1028761884+1022738960+1018351073+1012276484+1004203901
1439+993331898+980449531+973089842+969624423+962838961+955275519+952222215
1425+953465190+956069752+956829702+956591909+960834015+969832946+979108723
1412+986234743+990914433+993872005+995616924+998206932+1002615921+1006149015
1398+1009669981+1016852033+1026290246+1033352957+1035640570+1034508043
1387+1032755928+1031163097+1030359081+1032814871+1038722092+1044675724
1375+1048963513+1053219687+1057143712+1059299856+1059865917+1058642348
1364+1056802992+1056803962+1057849975+1057781168+1056591800+1055481589
1352+1053982872+1050623049+1046917250+1045073285+1043698518+1040014226
1341+1034139670+1029028299+1026592803+1025131360+1022415300+1019606904
1329+1018855039+1019876068+1021500513+1023478616+1026014209+1028123296
1317+1028931840+1030305232+1033990090+1038985273+1043469296+1045956376
1306+1046795968+1048500217+1050869736+1051478812+1050760097+1050301410
1294+1049917433+1049140099+1048700817+1049988423+1053973654+1060538464
1283+1067730300+1071285548+1068850214+1064280567+1061703576+1060159015
1271+1057033831+1051811285+1046167811+1040895539+1034795157+1028225819
1260+1023216971+1020008346+1016998137+1013307943+1010056384+1008295861
1248+1007080053+1005585460+1004833029+1005494256+1006412035+1006030078
1236+1004421966+1003320648+1003332453+1003296230+1002876677+1002752646
1225+1003270518+1003869245+1003248203+1002040400+1002454940+1004109221
1213+1005376452+1006058458+1005911384+1005170596+1005233501+1006155241
1202+1006629856+1006676348+1006864091+1006758981+1005868451+1004252980
1190+1003138807+1002648667+1000721827+997568910+995359807+995444461+997267566
1177+997733368+995849461+993639144+991408938+988709615+986381251+984581837
1163+982785171+981098549+978829613+975733133+973222039+970864244+967418230
1150+963692460+960455293+957431744+954835995+953090106+951019344+947437738
1136+943538778+940841799+938352778+934241252+929720036+926862562+925302072
1123+923381457+919435197+913985612+908760074+904104802+900900786+899797689
1109+898184644+894345112+891464999+890627751+889027481+886957043+886031422
1096+885763552+885702507+885800826+885232419+884724735+886564495+889032575
1082+889941621+891153709+892972933+893967361+894874628+897721187+902211597
1069+905240968+905554360+904916823+905298617+907633934+911286289+913763909
1055+913578106+913088209+914741035+917515633+918999150+918316820+917011668
1042+916717682+917304038+918754646+921568055+923776916+922492868+919480233
1028+917797492+916763607+916003495+916381489+916947631+915903721+912603245
1015+908364777+905000588+903406706+903457563+904393614+905566245+905667071
1001+904012305+902074225+901437497+902668424+904744037+906587679+909318212
988+912628956+914672955+916542470+919738401+923621433+927591060+931021792
974+932998762+934361967+936544551+938973982+940757791+941752462+942097468
961+942767589+943720619+943797027+943569664+944016627+944532883+944683676
947+944292179+943211965+943040068+944697987+946279499+946523275+946785081
934+947680867+947578829+946112696+944449683+942754652+940815764+938977216
920+938154200+938872672+939794978+938868063+936456015+935164690+936118448
907+937374925+936142462+932972000+931290390+931607339+932062307+932798648
893+933566684+932346995+930006504+929599644+930988561+932557621+934964252
880+937492568+937240868+934509850+931632809+929511190+929153813+930913609
866+932735824+933187477+933125704+934320085+938446084+944050344+948470895
853+953748342+962059849+970068152+975512805+981271658+988104743+995447210
839+1005670600+1016807644+1024172185+1028177387+1030520386+1032060096
827+1033165537+1033598997+1034523001+1037139125+1041039136+1044433080
816+1045592208+1045215993+1044442782+1042968322+1040839345+1037329295
804+1032373811+1029287599+1029371283+1027745787+1021142975+1015678755
793+1014792025+1012145419+1006225180+1001034652+996165925+990571529+984688807
779+978346185+971790107+965125928+957912342+951091790+945693143+941180498
766+937846872+936030963+934366495+931563597+928008511+926976809+929771702
752+931067394+928514578+926293670+924502503+920465282+915424416+911205596
739+908081302+906895330+908082191+909431408+908911434+906651554+902584255
725+898106782+895389023+892720910+888642372+886769461+888335125+889838208
712+891533886+895787878+900842813+904410755+906464376+907788690+908990752
698+910001108+909422999+907173469+906608943+908839554+911997403+915726811
685+918987668+919960104+919420158+919626984+921685617+924926665+926344204
671+923101216+919755381+924520938+929231999+928068747+925928047+923610356
658+921673732+922599595+923428514+922390263+924112542+928897586+930351994
644+927456195+925704727+925927400+925966291+927731665+932225875+934724680
631+932657476+930604664+929452570+925781054+921158851+914615306+905274442
617+903426596+913730274+925030887+929920960+930328385+928830072+927818826
604+927860143+930642666+933698234
##END=
