##TITLE=Sample description
##JCAMP-DX=4.24
##DATA TYPE=INFRARED SPECTRUM
##DATE=13/9/2023
##SAMPLING PROCEDURE=Instrument type and / or accessory
##ORIGIN=Default
##XUNITS=1/CM
##YUNITS=ABSORBANCE
##RESOLUTION=4
##FIRSTX=4397.6552
##LASTX=599.8556
##DELTAX=-1.9287962
##MAXY=1.691449
##MINY=0.30518046
##XFACTOR=1
##YFACTOR=1.5752847e-009
##NPOINTS=1970
##FIRSTY=0.32747966
##XYDATA=(X++(Y..Y))
4398+207886018+207968126+208835775+208924938+208961016+209614089+209303047
4384+207753153+206960649+207807317+209289899+209892800+209234713+208548551
4371+208772965+209334528+209252288+208631755+208475998+208925619+209140933
4357+208744851+207910234+206774772+205554158+205382414+206964243+208327562
4344+207628384+205989439+204862906+204057746+203693902+204179526+204166831
4330+203074523+202471471+202231109+200862020+199622354+200501657+202165328
4317+202680617+202382099+201856367+201259407+200997932+200911341+200341094
4303+199399302+198407149+197838605+198837266+201317676+203671275+204457498
4290+203159392+200593204+198669987+198942738+200436141+200476722+198881384
4276+197814692+197884994+198391050+199146208+199503790+198792693+197963620
4263+197972947+198352191+198621725+198569812+198019770+197530420+197651007
4249+198101821+198023441+197371957+197420275+197634397+196533934+195847167
4236+196868038+197522587+196702084+195704728+195790373+196723329+197608648
4222+197972795+197576032+197390610+198080083+198332553+197665404+197010383
4209+196837314+196802807+196578223+196330123+196259330+196621849+197193951
4195+197028772+196314459+196435973+197012577+196528145+195693982+195650261
4182+195554268+194674170+193812102+193970471+194970986+195717082+195558335
4168+195290844+195892496+196607452+196352277+195615999+195289917+195426396
4155+195640556+195492555+194923897+194645206+195146702+195908293+196312094
4141+196371517+196240732+195767690+195148140+195035669+195280212+195044958
4128+194207030+193730355+194337228+195340184+196017681+196308480+196131855
4114+196003965+196369417+196405193+195507293+194527569+194422003+195008539
4101+195602946+196095021+196636190+197038477+197564927+198301735+198338607
4087+197740190+197705626+198314732+198609428+198654965+199121311+199353273
4074+198881025+198762291+199533587+200525229+200993448+200423276+199220464
4060+198929305+199631548+199722263+199237377+199509258+200515486+201029034
4047+200745083+200692168+201199226+201784590+202079759+201856310+201599527
4033+201762757+202027070+202099643+202066270+202346267+203094709+203702075
4020+203788609+203767439+203806525+203765849+203468731+202723505+202572818
4006+203673886+204725519+205368073+206037814+206113432+205605654+205469213
3993+206032800+206865942+207560012+208170802+208835585+209344555+209513215
3979+209294988+208679866+208076738+207926296+208344078+209090836+209725899
3966+210211580+210417566+210402866+210734435+211400108+211931042+211938080
3952+211431967+211181522+212111300+212774740+211441238+210965584+213587733
3939+216286825+216138275+213256694+210714873+211952931+214827456+214849931
3925+213504964+213811068+213263656+211014716+211413976+216143364+220878031
3912+222395216+221182547+216919371+209672624+204208944+204227295+208538884
3898+215415733+220002039+217949399+213928705+215299799+216740571+214330197
3885+213368087+213194168+213910146+218817767+220653921+216915304+212972895
3871+210767505+212725495+215877727+215614720+217254516+222795024+225284838
3858+220353624+207709204+198914303+209652362+224351427+231254763+229604504
3844+223525702+217856641+213789974+213493953+218212937+222976284+226063569
3831+229060535+230667054+230331360+227132910+218715247+214414121+219667425
3817+224572171+230409835+237807989+240230754+235779584+230130879+228315385
3804+225074916+223301326+228909375+234259978+238773277+244603771+248393204
3790+249351965+248798593+248220098+249092003+249098398+247604446+249974825
3777+255874183+259044615+257122704+253984755+255294345+259709305+264504398
3763+267256348+265434214+264691561+269605236+272737925+268592538+266249231
3750+279014125+296198520+314986954+346046524+374972217+388949724+389931831
3736+385936885+391086287+406309779+420351798+427644347+432148358+439362773
3723+450227247+464030058+479013661+491805041+499397641+504007066+515482803
3709+536900198+559771305+578232730+593758201+612238923+632448511+645762615
3696+648794751+644502327+636956797+633214075+640312897+651023524+656114544
3682+655537599+650572351+639824871+627904999+627113933+628971105+624835857
3669+627509560+635777482+638224576+635826141+631337076+622792109+611852793
3655+605126177+598359302+584439611+573701439+579024553+588960724+592529319
3642+590349507+586537353+582091688+576471740+570119374+561587537+550064503
3628+546417169+551296640+552397215+546892255+538855293+535477815+535983511
3615+535230018+533253280+528916700+523894544+524242951+526618911+524435770
3601+520373171+518740223+517427379+515813615+515798064+513747732+506014944
3588+499418678+501110123+505329445+507129785+506508306+504339089+502526149
3574+502278087+501064642+495490061+487731204+485603646+489733709+493466556
3561+494760027+495285172+495145514+493275742+490854225+489440129+487322106
3547+484408211+484255765+486796810+488419239+487863218+486474473+485108544
3534+483123368+480529199+478228157+476852049+476195381+475829002+476475453
3520+478033256+478696243+477969425+476386346+473772502+471460298+471029179
3507+469939689+466929461+465651768+466629751+466588054+465345588+464862102
3493+464788887+463401314+461571423+460906545+460010631+457611060+455634965
3480+455366925+455024270+453376452+451487686+450574178+450247528+449462137
3466+448025301+446154696+444547213+443691710+442780926+441641302+440981797
3453+440629077+439618629+437309528+434526437+432658216+432058040+432463467
3439+432769156+431570467+429341202+427715822+426911589+426191468+425411601
3426+424494234+423187255+421692641+420590930+420149216+420075206+419915495
3412+419036041+417350158+415973294+415584742+415452917+414330168+411942100
3399+410118338+410199007+410652829+410032523+408680480+407480808+406944198
3385+406577251+406106251+405746834+405079080+403801085+402539473+402118948
3372+402086143+401344379+399945720+398764324+398383983+398501960+398317502
3358+397471194+396375537+395443224+394464068+393171884+391595881+390325604
3345+389958998+390112126+390115304+389667802+388774688+387306598+384678489
3331+381314670+379011547+378275080+377648758+376167916+374116336+371937357
3318+369600255+366971201+364311082+361679303+359212230+357640276+356807816
3304+355213878+352410772+350143707+349478980+349511293+349495666+349144157
3291+348344313+347409654+346733121+346790937+347201435+346957384+346206728
3277+345437418+344567234+344026954+344133466+343912534+342910184+342370320
3264+342759742+342509637+340615952+338062307+336268248+335577829+335066873
3250+334246786+333302062+331779751+329976649+328853105+328103131+327180164
3237+326531782+326624824+326890443+326628457+325986773+325210236+324310728
3223+323651298+323544029+323407663+322856713+322579554+322489009+321533767
3210+320202761+319775313+319869036+319962418+320541255+321291532+321501832
3196+321364066+321168674+321090653+321382872+321597523+321132691+320446207
3183+319990418+319375712+318582187+318134419+318268061+318645072+318740612
3169+318651656+318686353+318899075+319273438+319436025+319326448+319393533
3156+319758891+320311203+320459791+319759421+319304880+319862149+320283658
3142+319740767+318805087+318109219+317603296+317011935+316661164+316664512
3129+316384856+315901068+315759726+315737572+315322610+314434283+313676022
3115+313601141+313642725+313309926+313118677+313136517+312808751+312040898
3102+311211200+310484306+309815795+309854976+311037148+312349103+313000303
3088+313438479+314128405+315013857+315964332+317011822+318149289+319108013
3075+319615336+319697330+319599444+319700962+320069233+320230875+319911906
3061+319171239+318116598+317280864+317162169+317413844+317526070+317460081
3047+317457773+317922189+318865172+319814853+320689085+321766883+322786146
3034+323279470+323670141+324361014+324685015+324520007+324711653+325238652
3020+325540443+325932552+326952761+328463078+330020994+331510349+333189912
3007+335467760+338584804+342195549+345959158+350181545+355212100+361398776
2993+369448149+379373348+389765271+399555995+409222500+418615592+425997324
2980+430722948+434165166+437407602+440087813+441658405+442597566+443915518
2966+446145502+448907101+451717964+454651723+457436024+460330016+464173916
2953+468161446+471342132+473992829+476145587+477599261+478043359+477023528
2939+474796458+472050864+469013317+465300373+460587954+456059122+453124152
2926+450808959+447759342+444538889+441755760+438572539+433961449+428426597
2912+423387415+419094499+414988387+411291145+408272139+405680997+403464181
2899+401978950+401524788+401648970+402093635+403285021+405323018+408189388
2885+411720297+415422911+418786163+421350288+423193158+424718572+425686906
2872+425386969+423949906+422207797+420132681+417028768+413120053+409209749
2858+404927995+399345317+392327240+384406325+376579587+369303875+362196048
2845+355377411+349296188+343875113+338806152+333942006+329463460+325685852
2831+322652202+320024888+317354591+314669650+312324149+310478385+309103526
2818+307945683+306942084+306210801+305546282+304953200+304592307+304351699
2804+304213706+304199801+304253984+304147586+303640035+303031307+302539800
2791+301876889+300948832+299889613+298742005+297493882+296230719+295133606
2777+294213400+293254261+292126404+291009955+289998014+288998880+288130720
2764+287413740+286659508+285872301+285268644+284992999+284722026+284130723
2750+283565924+283227487+282785433+282280380+281973481+281753419+281414585
2737+280918026+280360398+279811018+279388488+279260200+279190542+278855870
2723+278398378+278064066+277919622+277942760+277972424+277837855+277642179
2710+277614199+277708546+277652396+277367991+277003560+276548187+275904327
2696+275278838+274933080+274730215+274352692+273802612+273334829+272848240
2683+272044877+271096142+270298266+269649430+269084253+268511282+267810136
2669+267088180+266546235+266102725+265639406+265138212+264542273+263943970
2656+263413887+262881137+262362594+261970637+261843957+261858241+261715840
2642+261454800+261210730+260989532+260905269+261018459+261165476+261126125
2629+260979638+261074004+261318093+261332453+261277815+261585755+262231942
2615+262793770+263087426+263319123+263592593+263943591+264502393+265150358
2602+265704940+266205888+266743898+267396082+268026585+268430934+268609300
2588+268530674+268380270+268543765+268831235+268755749+268409934+268153983
2575+268005472+267799107+267439046+267061675+266901642+266822524+266527941
2561+266061387+265599374+265200738+264922425+264795443+264782219+264820075
2548+264835702+264794251+264680985+264537619+264488449+264613464+264860750
2534+265099429+265306683+265571620+265872446+266048712+266087325+266262644
2521+266704093+267199346+267620495+267938329+268053506+268123335+268467031
2507+269061740+269719146+270272706+270481399+270487717+270676658+270909623
2494+270992600+271152596+271433917+271641625+271826858+272190267+272678653
2480+272973804+272868502+272564403+272437572+272472401+272447126+272427999
2467+272443399+272398770+272387532+272497658+272671275+272760249+272716244
2453+272743866+272954412+273209057+273428401+273610985+273639022+273538489
2440+273588150+273833147+273973883+273837839+273688684+273749886+273825258
2426+273816272+273862622+274044753+274342230+274620619+274805511+274996893
2413+275223103+275345564+275340191+275396266+275691663+276236237+276830378
2399+277253457+277489846+277574905+277551710+277643031+277972102+278271642
2386+278030126+276655305+273770772+269665549+265016281+260065260+254841299
2372+249678937+244732797+239920317+235306351+231380875+228922126+228288369
2359+229602329+233018855+238440308+245919301+253859797+258082430+256376153
2345+251292815+247743668+247126938+248172025+250063043+252107756+253682378
2332+254958670+256863972+259625684+262522665+265113712+267848617+271204433
2318+274862097+278150298+280767585+283093316+285602483+288216573+290710567
2305+293051774+295145297+296959183+298634604+300166412+301545679+302921011
2291+304326424+305698464+306947892+307977088+308844321+309613403+310194131
2278+310662709+311222627+311852260+312474533+313027943+313426654+313755253
2264+314138754+314518282+314847145+315226635+315571296+315770302+316085563
2251+316640126+317133185+317381512+317594139+317956621+318366059+318694337
2237+318854578+318873761+319019965+319364512+319528159+319390090+319401820
2224+319778188+320251685+320603686+320841532+321092924+321412877+321725640
2210+322072760+322536874+323018619+323496127+324004056+324451067+324879613
2197+325483914+326331395+327187428+327807659+328318161+328915424+329595967
2183+330318850+331051003+331710925+332288664+332844684+333423710+334170165
2170+335153143+336169228+337080087+337989092+338941535+339923907+341008326
2156+342060394+342930276+343847681+344939819+346033924+347145889+348400312
2143+349682242+350908665+352204179+353629665+355138885+356651055+358125729
2129+359602106+361005608+362279176+363621987+365193752+366916753+368655115
2116+370332674+371949692+373583964+375283695+377005522+378885586+381084279
2102+383354635+385544095+387867650+390397798+393072560+395923229+398978256
2089+402158375+405476070+409118939+413041465+416980336+420882543+424912716
2075+429223907+433855353+438805731+444028122+449329328+454665496+460323811
2062+466372608+472502339+478584395+484892189+491573817+498254044+504722041
2048+511302491+518119425+524954407+531907669+539152165+546363894+553416403
2035+560485636+567549270+574656038+581605138+587876721+593523382+599216243
2021+605064389+610529922+615942030+621917725+627946809+633448213+638260598
2008+642389564+646285603+650090076+653702713+657300821+660452297+662547352
1994+663991983+665944089+668845611+671819251+674350572+676336353+677660131
1981+678898095+680468724+682119267+683242507+683409219+682899246+681906848
1967+681050134+681605586+683031753+683759441+683744685+683551336+683368354
1954+683306604+683393100+683472256+683024337+681561392+679639178+679584919
1940+682286054+684893049+685891351+686642574+688234317+690718644+693414330
1927+695199119+696006342+697841001+701511681+705791618+711595721+718929513
1913+724978878+729495601+734717614+741504959+748726147+755363277+761801913
1900+768812574+775539757+781017702+786369572+791648946+796306576+802237737
1886+809670587+816361447+821179356+824692027+828359604+832339718+835099350
1873+834800207+830768029+826787991+827994095+832124802+834512870+834053600
1859+832147277+830479103+829131336+827484577+824607801+819302244+811836853
1846+803469495+797907097+797692257+797655630+794656034+790767789+786310622
1832+778802929+769892226+765259568+763544097+761424371+760405789+759807429
1819+757763681+754822203+751510524+747191387+743096928+741906640+742647193
1805+741910802+738060925+733167038+731301958+732246076+731224618+726404817
1792+724171579+728796366+733159319+733506439+732621196+732189093+732317740
1778+732948338+731531479+725830219+720247919+722532994+729754485+735658478
1765+737527418+735924853+735633127+737317874+738652777+740257763+739190900
1751+734046000+731752677+735740963+740706060+742982054+743108734+744544057
1738+746961638+744279195+740083030+745757804+755888157+763876612+768322277
1724+769999987+769794076+764627911+755138826+753619428+765256920+778479949
1711+785950637+786494587+783472440+783096942+783045104+778341464+777786541
1697+785961837+798807173+812788993+820541342+822856006+822162901+816374690
1684+815497014+829683005+844025566+850201383+851459098+855219301+859867396
1670+862624227+871431180+883868554+890827832+896167140+905646993+913415461
1657+911905901+899384831+893551745+909110702+920021414+924938003+937987434
1643+952966118+959995622+959173113+951723235+947120469+958787928+974092392
1630+981158674+982264282+982071992+982505003+987221962+992963179+993780845
1616+995733481+1004253475+1010701040+1012401301+1014242316+1018403066
1605+1022782062+1026008152+1028457971+1031127398+1034115492+1036497733
1593+1038657642+1041301416+1043837353+1045476771+1045109975+1042439942
1582+1039566421+1037123564+1032870566+1031162738+1035581085+1036576889
1570+1034134108+1036610262+1040988349+1042749831+1039150890+1025354171
1558+1018518167+1035560880+1052022259+1062227227+1069311974+1072576205
1547+1069935156+1060144507+1043681690+1028594867+1035384406+1054106342
1535+1060729624+1058495932+1060517659+1064024276+1062455387+1058318096
1524+1052188441+1045054278+1045380664+1051056195+1056614430+1061598597
1512+1062965737+1056830557+1043273878+1039147636+1054911067+1067157968
1501+1067852889+1062370101+1059840597+1063871564+1065489415+1058601877
1489+1052452016+1057826664+1067942336+1073741823+1073625662+1068962054
1477+1061153251+1052232483+1046099271+1050119341+1059826370+1061874129
1466+1054539807+1047989248+1045751470+1036215164+1015978371+1007652331
1454+1017166616+1024127483+1022975638+1016412063+1009884207+1005493179
1443+999452290+989849693+976690003+962982050+957744827+957234931+952504426
1429+946283885+942652859+940690763+941806209+943318948+940296876+940989981
1416+950720923+962273356+971065704+976433466+979128622+980738073+983644060
1402+986900042+988794484+991832144+997008298+1004335582+1014027097+1020153272
1389+1017912239+1012796626+1012621363+1015589630+1017894456+1020839112
1377+1025927256+1029966093+1031647284+1034068649+1037668800+1040715844
1366+1040665142+1036795741+1034100735+1036329206+1039713003+1040620948
1354+1040164705+1038743685+1035102215+1031164782+1028483474+1025272064
1342+1020210785+1014095659+1009382256+1007422810+1006421935+1004726669
1331+1002563355+1001511551+1002282602+1003965003+1006661749+1009093935
1319+1010232765+1013030839+1017315544+1020740811+1023551750+1025566514
1308+1027958669+1031826028+1035496102+1038299020+1039777477+1039267430
1296+1037953489+1037688703+1039854741+1043140010+1045776670+1049373415
1285+1054412068+1059573616+1064628614+1068257446+1069273607+1068100043
1273+1065199807+1062700800+1061605105+1058993266+1053555354+1047105064
1261+1041968262+1039489384+1038267463+1036444685+1033595152+1030169507
1250+1027055567+1024704806+1023113744+1021792084+1020465884+1019675537
1238+1018962454+1017430494+1015305925+1013069812+1011576067+1011051490
1227+1010748110+1010939264+1012025046+1013857964+1015472182+1014981734
1215+1013172881+1012386923+1012391009+1012860419+1014129561+1014389050
1204+1012789588+1011236515+1010924205+1011493582+1011757611+1010866011
1192+1009083795+1007353416+1006411341+1005602453+1004184006+1002280256
1180+999952803+997580550+996434683+996889716+996234448+993190809+991449154
1167+992162313+991737551+989324888+986637299+984164021+981888178+979388187
1153+977078063+975730674+974475836+972840807+970982916+968575702+965903474
1140+963223831+960582177+958436495+955607621+950754447+946504931+945607050
1126+946029391+944938009+942568935+939620722+936864875+935293564+933433554
1113+930163118+926924390+924345242+921291085+916199006+909803656+905836029
1099+906007962+906942394+905081930+901826931+900561422+901738240+903207617
1086+903876431+903862204+903390145+903940679+905676582+906224467+905928125
1072+908282367+913238231+916540375+916832177+916871527+917893439+919487453
1059+922445276+925810533+926956400+926516427+926677084+927612576+928221758
1045+928630401+929755609+930516973+929342047+926879590+926052087+927917015
1032+928876496+925995406+920624617+916991699+917934531+920794885+921843813
1018+920840896+918928519+916805615+914308196+911231261+908460278+906615857
1005+904872538+903382350+904164146+907105775+909181004+909039795+908639476
991+910157133+913137054+915747833+918210365+921718344+926668003+932904663
978+938143097+940210077+940242693+939598928+938398499+936897263+935424330
964+934422472+933836371+933200854+933421143+935029837+936232915+936171315
951+935898432+935504091+934251977+932063462+929413635+927305639+926784543
937+926949968+925419143+921835413+917954812+915165213+914016167+913726636
924+912961867+910979415+907107592+903328243+902740553+904138795+904974320
910+904682518+903249011+901013276+898649802+897056016+896596595+896693534
897+896389473+895631741+895994677+897364996+898033204+898964458+901604220
883+904346598+905391364+906160295+908392852+910753223+912374404+914678170
870+917491455+919437507+921444553+925403327+930237355+933540104+936385248
856+941056348+947947746+956410606+964033929+970555656+979533482+989577566
843+996722020+1003333800+1011390664+1018243619+1023154079+1027768044+1031479664
829+1031851227+1029606790+1029085920+1033559736+1041764016+1047156069
818+1045066386+1040011691+1037380782+1036369919+1035367152+1034053136
806+1032618721+1031679900+1028459031+1022351094+1019916637+1022179009
795+1022037044+1018917352+1016897214+1014580431+1010229208+1003949111+996117606
781+989608366+985632565+981698916+975506753+967288247+960051318+955518779
768+952466815+950774122+950288063+948067161+943712684+940435437+938307992
754+936565657+936389334+936376394+935836228+936772249+937906386+935808077
741+930710852+926428569+924596180+924353718+926377412+929544628+929499072
727+924765237+919447042+917657788+917378473+914448800+908640914+903160396
714+901714100+904117531+907086403+909849061+914005195+919612013+924317697
700+926440222+926620631+927389487+929904613+931157182+929030494+925170324
687+922511492+923627619+927645646+930687468+931069399+929357484+926517108
673+924337145+919546176+909107297+907465306+919556241+930534454+937960796
660+941086467+941039624+943195371+945889165+942256474+934906260+934474687
646+942280387+948053918+946068590+941973072+940093160+938345073+936524641
633+936361713+937492672+935760780+928738238+922632950+923376454+926796726
619+923778968+913748960+906205094+912416403+935256937+958866706+967498471
606+966904046+964502432+963101314+967422040
##END=
