##TITLE=Sample description
##JCAMP-DX=4.24
##DATA TYPE=INFRARED SPECTRUM
##DATE=13/9/2023
##SAMPLING PROCEDURE=Instrument type and / or accessory
##ORIGIN=Default
##XUNITS=1/CM
##YUNITS=ABSORBANCE
##RESOLUTION=4
##FIRSTX=4397.6552
##LASTX=599.8556
##DELTAX=-1.9287962
##MAXY=1.7406993
##MINY=0.39431742
##XFACTOR=1
##YFACTOR=1.6211525e-009
##NPOINTS=1970
##FIRSTY=0.41641945
##XYDATA=(X++(Y..Y))
4398+256866294+256818442+257059504+256814839+256261149+256258630+256614128
4384+257192305+258447286+259792989+260551268+260531469+259425302+257999301
4371+257186441+256754173+256749265+257051966+256844509+256166970+256156437
4357+257009262+256712866+254925465+254042233+254642544+256032128+257660035
4344+258160358+257645291+257501404+257056360+255541125+254214835+253893089
4330+254032950+253635592+252950369+253397159+254531545+255164706+255362347
4317+254985873+253996863+253249320+253335079+254055874+254575077+254261217
4303+253962082+254516599+255446745+255925541+255431156+254483325+253706313
4290+253080744+252700373+252438188+252744309+254371205+256049978+256047166
4276+255262874+254767478+253834188+252938879+253308478+254569966+255505682
4263+255538717+254949198+253961383+253047838+252751920+253007210+253501963
4249+254132882+254966809+254618278+252365022+250874127+251742100+253358481
4236+254326037+254862373+255308024+255429281+255263168+254889194+254480715
4222+254521121+255002693+255797703+256718583+257107484+256622640+255873589
4209+255676942+255822575+255601846+254986755+254517463+254367951+253734311
4195+252436791+252196299+253598072+254537556+254070581+253236782+252626379
4182+252480911+252577608+252573674+252846043+253220090+253137126+253116573
4168+253675686+254149979+253881305+252867312+251553395+250519088+250342608
4155+251564039+253051956+253191743+252411183+251672280+251578249+252097617
4141+252597793+252986124+253090230+252864224+252368865+251324098+250536167
4128+250830926+251568138+251828466+251504109+251378936+251620898+251179127
4114+249660160+248396760+248621074+249454652+249921921+250464508+250823610
4101+250391121+250051837+250685458+251397264+251440704+251174402+250333471
4087+249078215+248697807+249251092+249590616+249844674+250911170+252030738
4074+251695480+250143478+249307382+249858793+250266096+250088861+250103752
4060+250284553+250748899+251667574+252065428+251070738+249888978+250085258
4047+251164512+252152363+252405981+251337831+250089725+250202489+250892934
4033+250735149+249990510+249604293+249688967+250044392+251035350+252399105
4020+252693810+251461349+250007092+249483367+249587343+249688121+250404707
4006+251918986+252730025+252300441+251636451+251320183+251463077+252059288
3993+252606360+252532900+252353661+252970333+253806264+253721075+252599576
3979+251401731+251301854+251809843+251703753+251397356+251645514+252527440
3966+253707324+254552392+255246053+255746817+255170442+254146467+253980079
3952+254306164+254202629+253575313+252691383+252354820+253436371+254787350
3939+255118013+255075069+255112130+254907890+255056575+255762682+255722717
3925+255133179+255198422+254958592+253789645+253628551+255598904+257640089
3912+258079563+257259460+255093121+251294041+248170497+247996884+249975509
3898+253443651+256305214+255558920+252857735+253063206+254381132+253900902
3885+253849924+254124334+254305079+256484764+257475189+255272635+252038772
3871+249125846+249401579+251847051+252827843+254599710+258051675+259471941
3858+256721230+249306390+243232766+248726926+256889034+260099679+258382245
3844+254793876+251658217+248896770+248013870+250834254+254131926+256117464
3831+258037685+259251597+259061384+257216957+252653182+250509088+253985061
3817+256827486+259335683+262698708+263505777+260760030+257744580+256918521
3804+254866160+253412896+256767262+259924357+262153842+265431311+267820512
3790+268749095+268985524+268897854+269144449+268845167+267635612+268387751
3777+271564093+273875311+273263584+271299188+272027226+275399995+278894719
3763+280877499+280791446+281964400+286275532+289506987+289277360+292365884
3750+307570348+326750153+350829708+387038052+416534612+430137605+432009441
3736+427032020+423521560+424474887+426983231+427763975+426811897+426147594
3723+426719649+429660886+435288564+441506571+446265008+451202831+462874682
3709+483559960+510031271+541329956+576714797+610493001+633772400+643289494
3696+641720433+631520137+612421900+589566975+575231476+569957384+564130540
3682+554296184+541847780+525863069+506580336+496562146+494779910+489917276
3669+486334054+485903294+483285385+479226069+475033290+469182731+461661266
3655+455472048+447997314+434759085+423598035+424228439+428567587+429426755
3642+427347664+424992711+422788393+420240635+417586584+413256371+405090788
3628+399511200+400279480+399981448+394450981+385647347+379852306+377352566
3615+374344267+372418199+372611924+372666449+373428625+375524813+375813690
3601+373585914+371185334+369138524+367467141+366470282+364307951+359319647
3588+354490949+353711382+354621912+354049637+351604973+348896875+347186666
3574+346143591+344792300+342042030+337896754+335423743+336258129+337732994
3561+337901276+336723597+334735468+332345329+330210500+329071684+328663352
3547+328068759+326761109+325569018+325243227+325060129+324473992+323719132
3534+322787718+321403446+319806589+318743623+318129029+317161363+316084683
3520+315482920+315022673+314526063+314073059+313717193+313503026+313015939
3507+312220489+311655235+311672479+311812524+311245874+310318761+309935136
3493+309903259+309455623+308571528+307700779+307022596+306743867+306803631
3480+306614742+306210270+305828428+305066968+304381635+304644664+305031911
3466+304348765+303223167+302963538+303351906+303450147+303177300+302655634
3453+301966403+301207352+300289578+299480634+299030369+299098902+300108887
3439+301381590+301651513+300896433+299796443+298973748+298643619+298646101
3426+298737834+298432687+297884604+297766932+297969481+298204512+298550396
3412+298706656+298098808+297032184+296503054+296904731+297769561+298317166
3399+298371416+298337369+298328509+298296246+298199181+298084303+298043915
3385+297998140+298222142+298761879+298867970+298435445+298277329+298627644
3372+298895122+298752430+298520909+298632589+299026031+299297995+299396365
3358+299472049+299413737+299069415+298774049+298722447+298288929+297604772
3345+297623909+298071784+297949553+297077407+296001389+295059386+294214668
3331+293459128+292713147+292084526+291424708+290011612+288220608+287145619
3318+286313733+284680973+282711704+281151081+279837457+278602717+277365641
3304+275844064+273900919+272034157+271108919+271060920+270893686+270441914
3291+270641870+271503611+272134567+272691143+273935296+275209120+275338226
3277+275446229+276821070+278332094+278835837+278298122+277418310+277259882
3264+277690182+277684631+277275305+277311300+277950712+278772598+279244794
3250+279332961+279463189+279219922+278508097+278487655+279146222+279231319
3237+278809254+278871611+279597701+280524207+281124793+281209908+281348887
3223+282179780+283118382+283234694+282884196+282880336+283331795+283942640
3210+284729523+285931909+287389328+288719000+289793603+290685144+291906667
3196+293777914+295305043+295947544+296579271+297694520+298932569+299972960
3183+300953091+302050691+303518901+305051912+305650109+305542124+305965017
3169+307402967+308930813+309156010+308268109+308092272+309166084+309945394
3156+309983558+310359168+311410920+312166956+311538354+310155590+310056025
3142+311628469+312418478+311400735+310651280+311538243+313006637+313042117
3129+311831606+311701709+313354635+314357782+312534698+309615338+309009825
3115+310831622+311031891+308016918+305151606+304809435+305262329+303235318
3102+299797987+298718108+300210970+301105158+298932790+295935153+296090420
3088+299499091+301593661+299237752+295966865+295742035+297672349+298280785
3075+296644753+295400582+296326260+298431382+298701968+296523055+294559467
3061+294304949+295398063+295908074+295051113+294242610+293952520+293930276
3047+293859206+293313292+292387246+291376011+290356301+289287986+288027986
3034+286651399+285685626+285139602+284457302+283642622+283154984+284259588
3020+290273079+301125784+307776114+303926369+295503161+289023522+284953341
3007+282049074+280079383+279040444+278832509+279088388+279081311+279142858
2993+280585423+284019887+288037178+290422132+291332994+292352979+293781279
2980+294727216+294196615+292584353+291273266+290970381+291407722+291027277
2966+288965210+286808247+286249997+287612907+288973537+288021092+285877329
2953+284730553+285414214+287202957+287709622+286438722+285341084+285595254
2939+286844977+287106793+285093883+282674809+282001093+283280248+284749782
2926+284134949+282136451+280969306+281247429+282038099+281610097+280041495
2912+279090778+279489827+280791097+281586603+280985520+279943070+279652557
2899+280456923+281646882+281902411+281323848+281242796+281981920+282941534
2885+283516475+283555522+283628945+283993525+284344115+284438551+284003967
2872+283286260+282988412+283191162+283532285+283640343+283323946+282928684
2858+282822152+282837006+282552302+281831782+280906453+280045135+279661675
2845+280051183+280742013+281177737+281545148+282117791+282731264+283275487
2831+283809838+284319114+284788755+285221096+285469989+285374597+285164438
2818+285174659+285269591+285231611+285248359+285488942+285818226+286193487
2804+286671768+287182735+287717031+288185312+288479189+288852464+289340672
2791+289637215+289759667+289833477+289904988+290005104+289992696+289897157
2777+289945358+290010160+289862964+289594768+289234288+288818602+288676590
2764+288959842+289366373+289466654+289293225+289316995+289630965+289894252
2750+290072847+290439449+290870393+290953744+290700604+290388656+290090642
2737+289923041+289947601+289802666+289561696+289733710+289988045+289883185
2723+289792555+289907157+289927637+289718121+289428178+289239361+289081135
2710+288774721+288444646+288346075+288318757+288011754+287640059+287476888
2696+287223050+286808008+286573674+286641803+286786646+286712487+286453373
2683+286192237+285946781+285700977+285397834+285037409+284696874+284243613
2669+283662054+283240209+283011317+282780311+282405271+281848070+281380800
2656+281323352+281593625+281888826+282034128+282004182+281876454+281653757
2642+281268073+280980170+281083761+281459297+281790291+281798159+281559303
2629+281457422+281666276+282006351+282242284+282471323+282896568+283351392
2615+283623834+283852028+284194842+284538170+284803995+285065260+285258304
2602+285373660+285596853+285986416+286431846+286709601+286736680+286813927
2588+287063316+287240551+287336788+287586233+288032692+288466964+288703172
2575+288825091+289014165+289240612+289389352+289540059+289775422+289924475
2561+289886403+289833385+289839249+289799504+289754998+289868424+290171217
2548+290523939+290714667+290730845+290845024+291124084+291314812+291365385
2534+291400295+291450703+291641339+291997462+292271210+292464088+292764915
2521+293057229+293209315+293399069+293797511+294271601+294599911+294769755
2507+294785142+294637836+294521634+294542021+294684971+295032969+295465365
2494+295664715+295666424+295891640+296462243+297110295+297682074+298122982
2480+298365551+298341524+298062445+297725091+297546405+297600985+297663397
2467+297527157+297419522+297448421+297446675+297491309+297584642+297442557
2453+297134892+297113714+297507229+297957825+298231922+298486827+298796514
2440+299077284+299303988+299428094+299498411+299602553+299655644+299608638
2426+299602222+299764033+299975975+300129753+300266176+300340813+300429384
2413+300577701+300595846+300549409+300665225+300945995+301283238+301618386
2399+302029164+302769262+304428770+308269341+316030599+329137423+348238381
2386+372898227+401330350+431084314+460552195+489818851+519881179+551402157
2372+584129822+616870245+648163894+676309640+697621461+710166966+716590058
2359+715726700+701498965+675317671+645762137+619112655+603945086+608359974
2345+627609028+637890138+629457077+616806933+608059993+605099197+608595134
2332+614160015+614855239+610791364+607543713+607163838+605645221+598375352
2318+584989026+570691839+564920108+569418934+572586691+564163961+545275662
2305+523790780+507806215+498073116+489640789+479951994+468466550+454452724
2291+439629183+426735864+415940423+406292402+397828824+390959419+385683378
2278+381366290+377449556+373950751+370978962+368647246+366867584+365175685
2264+363370764+361775745+360572220+359525762+358564052+357769668+356921972
2251+355972910+355235440+354693718+354145745+353681895+353493722+353620825
2237+353841794+353858964+353735280+353776422+353928821+353978235+354085043
2224+354423629+354855676+355196321+355408281+355591674+355962909+356708467
2210+357738600+358709612+359435389+360156938+361057358+361973404+362822019
2197+363734388+364794449+365844915+366723605+367592221+368608457+369606014
2183+370484595+371379021+372302163+373162801+373995680+374798852+375435359
2170+376038298+376846397+377627618+378173679+378655545+379143662+379624057
2156+380197951+380828906+381341179+381727010+382165491+382706736+383267614
2143+384217669+385959644+388223341+390585831+392695291+394458187+396228327
2129+398210096+400249662+402208967+404133747+406115002+408127765+410017360
2116+411897285+414009576+416336806+418763785+420958029+422919944+425088379
2102+427500099+430044254+432775625+435679543+438710196+441972664+445397715
2089+448866335+452588683+456607481+460917400+465645835+470766095+476171113
2075+481843684+487759725+493917581+500538773+507507889+514670840+522114212
2062+529735168+537701805+546026037+554500387+563029410+571339008+579383187
2048+587534982+595977382+604060681+611395664+618464308+625603104+632703882
2035+639406329+645803463+652216555+658492286+664226147+669194155+673550657
2021+677742811+682283000+686930328+691404704+695837167+699830559+703402457
2008+706913175+710269840+713512675+716555130+719197415+721871982+724673173
1994+726865653+728381402+729748173+731233773+732959903+734716181+736076995
1981+737163307+738474780+739757722+740468793+740806827+741124345+741497088
1967+742052414+742819149+743576178+744313206+744911844+744925006+744591531
1954+744835590+745726082+746376340+746599368+746679005+746657533+747290437
1940+749134294+751470753+753715074+755817990+757985615+760342295+762594411
1927+764632397+766893042+770217131+774236555+777510642+781046655+786127464
1913+791358207+796149588+801248118+806599971+811470768+815988382+821025953
1900+826545390+831924157+837218949+842648969+847360933+851009526+855266684
1886+860698836+865980907+870412119+874016372+877317445+880988466+884335130
1873+885829114+885163781+884079454+885305848+888129394+889370789+888474487
1859+887601422+887415897+886452312+884737580+883240582+881245687+877359800
1846+870980314+864753409+862536516+862048841+860028357+856872512+853646002
1832+848806457+842137836+837873251+836194625+834291647+832652214+831126832
1819+828851700+826175516+823314541+819828531+816224499+813957897+812524505
1805+810608292+807817248+804387049+802156185+801927054+800725661+796747269
1792+794247860+796518065+799028798+798860112+797339951+796007447+795624116
1778+795827142+794456695+790518453+787210835+789426110+794702077+798454427
1765+799217044+797197442+796011638+797737768+799819432+801242088+801087226
1751+798734296+797646218+799927527+802357814+802818576+802238763+802577974
1738+803230880+800926923+798645026+803812972+812058376+818254249+821157578
1724+822057998+822755391+820942492+815732338+814931777+822120943+830175747
1711+835637240+837568895+835966965+834509013+834237306+832399993+833566017
1697+840199121+849400095+859594214+866097678+868305527+867912489+864712230
1684+865026293+875448440+886624086+892116831+893179171+894568002+896017277
1670+897515084+904686381+914308335+919620848+923471144+930232271+935828771
1657+935146599+927175476+923222674+932086496+936141436+936608890+946001713
1643+958181829+963852304+963646483+959839572+958755686+966888950+974557482
1630+975401428+974396664+975782479+976749521+978470135+980741663+977948046
1616+974671680+979492988+985587826+988074955+989945211+993320406+995639364
1603+995343611+995121098+997052386+999527750+1000744291+1001883695+1003842117
1589+1005473388+1006875675+1009203751+1012968013+1016312251+1014952098
1578+1008446428+1004766509+1007756314+1008935868+1007565348+1010061963
1566+1013875418+1014151758+1010436911+1001127181+995811653+1006308657
1555+1018745774+1028037561+1034203653+1038122557+1039211737+1035208859
1543+1026300990+1018984832+1028056901+1044945745+1053062465+1055198544
1531+1058655950+1060624005+1056796652+1050181048+1043801929+1040107083
1520+1043573828+1050206197+1058356889+1066861425+1068346952+1060767543
1508+1049466154+1047885474+1059461365+1067828760+1068390631+1062687213
1497+1059577033+1065498699+1068588657+1060971525+1054906248+1061952906
1485+1071606773+1073741823+1070315742+1066044392+1061068663+1054509681
1474+1048289983+1047839148+1052101306+1052644647+1047753187+1044447334
1462+1044294678+1038181531+1023362438+1015535367+1019152047+1019876574
1450+1015352489+1009657086+1005094175+1000344562+994701147+988345412+977861644
1437+963700678+955453289+951244075+944833998+939969525+938858946+938362668
1423+937685496+936810519+936561902+942754686+952810562+958216757+961103689
1410+966087433+970111931+973155269+979687558+985980349+987531321+988331367
1396+991638397+996532430+1002327692+1006062540+1005518906+1004727242+1008143763
1383+1012647259+1014884374+1015563678+1015683391+1017262526+1021805436
1371+1026029725+1027851301+1028476557+1027647906+1025665365+1026550490
1360+1030846327+1033376767+1032959684+1031831604+1030375858+1028359859
1348+1025057168+1020940386+1017455111+1012238633+1004696946+999641654+997607124
1335+996187778+996441763+997959204+999303914+1001615886+1004689961+1006467049
1321+1006955680+1007422692+1008388042+1010657806+1013890272+1015428597
1310+1015445142+1016924933+1020754787+1025720589+1029175421+1029711555
1298+1029304620+1028592446+1026968235+1027204866+1031397167+1037661721
1287+1044478071+1051057717+1055405248+1056918717+1058381302+1061858341
1275+1064070381+1062386534+1059780133+1058091947+1056077786+1052494491
1263+1047880106+1044691319+1042876582+1041131922+1040121496+1039481973
1252+1037861806+1034165857+1028978057+1025278137+1023956663+1022864174
1240+1020691916+1018653563+1018828205+1019835763+1017913373+1014346181
1229+1013623492+1015813398+1017608723+1017358120+1016331664+1015769646
1217+1015483673+1015727511+1015971790+1015484629+1015479335+1016214157
1205+1016708450+1016284308+1014939598+1013915936+1013559518+1013482308
1194+1014149111+1014982174+1013606726+1009684808+1006901780+1007012521
1182+1007672854+1007682193+1007599614+1007554465+1007369013+1006220784
1171+1003482391+1001154315+1001108503+1001139241+999174494+996272856+993544463
1157+990892986+987847295+985241483+984191348+982977675+979900291+977438016
1144+977547140+977043950+972978347+967631640+965102965+965641378+965420189
1130+962588628+959182254+956822191+954597872+951746824+949705530+948405455
1117+946492550+944405591+941167609+935793254+930644721+927612928+925891579
1103+923897346+921784356+919949176+917055479+913647488+912392415+913826542
1090+916072922+917377189+917289904+916759138+916987387+917587275+918212384
1076+919634599+921816858+924040295+925269337+925596561+926587575+927496377
1063+927492553+928215463+929092131+929389575+930818996+932545199+933163249
1049+932862570+931365130+930634941+932396072+935152261+937290106+937048180
1036+934455236+932271286+930506331+927857575+927105178+929921223+932527918
1022+933186706+933999253+934954382+934788490+932649911+929074851+926088355
1009+923518132+920759885+919978957+922277105+924793280+924640550+922956262
995+921988117+921946791+923026192+926538160+932017006+936891774+940764351
982+944457064+947011918+948579876+949569272+948810331+946939855+945733315
968+945202843+944458167+943466492+942306719+940653168+939803633+940964362
955+942791306+942737774+939347798+935216750+934393614+936817284+939336327
941+940287779+939746571+936918908+932774918+929348102+926007173+923313635
928+922108345+920214485+916753329+913253715+910882107+909623946+908393728
914+906421555+904006121+900960210+898154092+898242553+900173252+899957358
901+897148519+894448730+893399478+893542722+894621681+895647402+895767336
887+896649299+898650811+900591806+902060935+902564126+902776050+904107818
874+906549724+909058031+911496702+914707623+918470120+922175702+926211671
860+931134529+937121566+944515303+953825180+963211826+969907507+975904839
847+984434230+993522991+1000183156+1006110778+1014234925+1022320245+1026478501
833+1028059695+1029706040+1031284367+1032654593+1035421077+1038348084
822+1037534361+1034631472+1032787395+1031832854+1032139784+1033359487
810+1033780908+1032862032+1031047147+1028608477+1026683071+1026764105
799+1026515414+1023610688+1019546261+1014068886+1008374291+1006581173
787+1006008125+1002029145+995536049+988431520+984099505+982639567+978851848
773+971512894+962919162+956752776+955933684+956570265+953328313+948209340
760+946005316+947277154+950702793+953793707+952061401+946718372+943010510
746+940819354+938082946+935861861+934777901+934991517+936696321+936246810
733+931032097+924180082+919621069+917010329+911737966+904981031+902707517
719+902831200+900705636+898193726+899025171+904678366+912226817+917720297
706+922310857+927304307+931353512+935567285+940160125+943404503+944412944
692+942497466+940966715+942639239+945477197+948254784+949949809+949489782
679+948936882+951335477+955771910+957749892+954346019+944825689+935301020
665+933050375+933351422+933936309+933188692+931950532+934528916+938679598
652+941830221+944935327+944638545+938529368+928172078+919607980+920298608
638+928303998+932176280+922776987+911346546+915175812+925634064+929510317
625+932875071+936009223+931564554+924340827+920340890+917748828+914414738
611+908786251+901996593+896377150+892410377+894972510+905701440+914874838
##END=
