##TITLE=Sample description
##JCAMP-DX=4.24
##DATA TYPE=INFRARED SPECTRUM
##DATE=13/9/2023
##SAMPLING PROCEDURE=Instrument type and / or accessory
##ORIGIN=Default
##XUNITS=1/CM
##YUNITS=ABSORBANCE
##RESOLUTION=4
##FIRSTX=4397.6552
##LASTX=599.8556
##DELTAX=-1.9287962
##MAXY=1.7863162
##MINY=0.4030652
##XFACTOR=1
##YFACTOR=1.6636366e-009
##NPOINTS=1970
##FIRSTY=0.41759068
##XYDATA=(X++(Y..Y))
4398+251010760+248607673+247128912+248218421+250337786+252253989+253465205
4384+253277790+251986121+250294434+249464032+249734605+249948516+250670054
4371+252292826+253247013+252718265+251630404+250767273+249932232+249635738
4357+250419778+251409292+251898934+251914340+251179814+249677047+248452467
4344+248039192+248318184+249237134+249825088+250051646+250836457+251011566
4330+249418853+247242612+246121717+246583414+247813565+248618888+248816246
4317+248537988+247493102+246276995+245996319+246733300+247680841+247609095
4303+246515394+245950979+246200359+246284842+245811895+245258443+245782462
4290+247701299+249490402+249763948+249277118+248992179+248282069+246908606
4276+245986108+246414897+247149298+247063705+247496560+248445427+247970474
4263+246891713+246682872+246516308+245931937+245525308+245053078+244035977
4249+243322732+243974532+245163840+245258318+244598708+244532552+244595483
4236+243868409+243256092+243361820+243486699+243943290+245233579+246446372
4222+246737707+246458249+246453860+246722193+246590149+246074854+245907448
4209+246331848+246595273+246296378+245648484+244572034+243592266+243692602
4195+244858174+246346519+247425012+247445613+246254227+244828616+244578913
4182+245672166+246391376+245454726+244274161+243941803+243573653+243038850
4168+243026095+243883672+245288754+246179185+245736639+244259740+243248945
4155+243262702+243251900+243391952+244427002+245269245+244857153+244083162
4141+244004806+244042211+243284772+242766898+243786256+244916448+244853462
4128+244667300+244816721+244719233+244120280+243177969+242647250+242693182
4114+242562804+242842047+244479490+245945874+245674441+244720953+244142099
4101+243590832+243349854+244129093+245080056+244965890+244208255+243505616
4087+242649884+242285245+243283930+244281201+243956671+243559161+244126424
4074+244571371+244119259+243688625+243982718+244485259+244589822+244445776
4060+244116930+243465094+243363182+244208739+244677905+243932344+242727182
4047+242279602+242873038+243639630+244099607+244208828+243658529+243151582
4033+243689771+244581672+244994248+245279008+245638058+245515437+244533913
4020+243663653+244104981+245153360+245486452+245036812+244498461+244759754
4006+245426619+244825534+243462174+243183415+243645380+243854293+243846608
3993+243884424+244256569+244852155+245450069+246052587+246257272+245997555
3979+246002535+246537626+246941979+246916989+247002923+247345868+247886314
3966+248512497+248364760+247414478+246863266+247059728+247522535+247774370
3952+247422736+246824983+246849311+247286716+247638653+248378948+249353020
3939+249514227+248642982+247598150+247496202+248648463+249869999+249981423
3925+249494755+249354112+249357874+249324751+249485565+250115044+250897776
3912+251093039+250875026+250507628+249792969+249393881+249720274+250365320
3898+251593268+252805380+252543335+250934840+250108183+250332752+250881475
3885+251611039+250944478+249465860+249929348+251083455+251424142+251429302
3871+250723778+250176668+250628977+251143556+252029473+253032118+253227487
3858+252523719+250137096+247536132+249359791+252664129+254745463+255306725
3844+254382723+252759342+251527542+251490102+252616334+253444909+253510313
3831+254031842+255287862+256152730+255768404+254314739+254049398+255530022
3817+256269959+256823267+257771740+257415539+255250153+253075523+252781752
3804+253258245+254453501+256423768+257259956+257890474+259273414+259868121
3790+259304799+258791994+259124316+260189838+261168299+261755769+262600036
3777+263501485+263600083+263063309+263125596+264675172+266427748+267522166
3763+268241877+268273137+268823723+271516514+274843047+277178222+280847144
3750+289637060+300696316+316362685+339149961+356261271+364843778+368194406
3736+365570368+358863345+354699997+355152217+357074851+359450242+363441688
3723+368488947+374585785+382369258+390501982+397295888+403630014+413094641
3709+426510551+441311962+456994776+474945426+492542741+503413004+507987478
3696+510409696+510648776+506448418+498153501+490521150+486819015+484151303
3682+480119909+474874558+468538640+459744712+452453228+449169348+444877736
3669+439925887+436184090+431667049+426527640+422140081+417625154+410640357
3655+403160883+397392587+391398612+385446948+381884793+379848656+377413360
3642+373791802+369332910+364927257+360680788+355952183+350970919+345918143
3628+342273368+340407593+338266552+335403614+331999675+329324619+327865634
3615+325576481+322479121+320282045+318658144+317079136+315522162+313358263
3601+310778151+308446935+306451857+304733908+303249772+301717340+299652846
3588+297713283+296626927+295400179+293666447+291854414+290221270+289058546
3574+288430895+287517713+285657599+283436231+282116510+281643510+281009033
3561+280100526+279227919+278355402+277151781+275947676+275543053+275366780
3547+274639025+273595537+272474481+271424203+270711174+270440261+270202095
3534+269340129+268061985+267215228+266872982+266405392+265600840+264712039
3520+264014791+263660274+263487799+262924601+261943382+261269495+261059776
3507+260870228+260818851+261333877+261663566+260723513+259180404+258621578
3493+259122650+259175460+258373076+257872918+257973738+258063594+258014599
3480+258024667+258126400+257940203+257205157+256592446+256539313+256590995
3466+256538364+256432510+256218725+255995320+255961570+256031434+255984034
3453+255901397+255709753+255306994+255099174+255289707+255588404+255900859
3439+256327660+256679293+256763399+256725152+256811999+257154049+257456723
3426+257198189+256482060+256083188+256325116+256718130+257089719+257796587
3412+258547038+258458167+257607343+257109676+257678283+258788715+259232659
3399+258811412+258525756+258905461+259515055+259887379+260167965+260603525
3385+260947384+260985881+260965996+260933465+260641395+260494017+261014884
3372+261754497+262227802+262575172+262785786+262877344+263175702+263496415
3358+263379473+263086078+263304987+264110882+264621430+264099722+263196715
3345+262982714+263386423+263797011+263908956+263742141+263411879+262605751
3331+261467874+260846671+260798465+260493068+259398722+258231573+257788955
3318+257456705+256591120+255442961+254265458+253231464+252552149+251944310
3304+250878770+249347663+247948207+247236610+247165958+247596036+248437043
3291+249149875+249312373+249424604+249947871+250318994+250220987+250137794
3277+250527244+251353364+252152005+252740174+253123694+253416300+253891558
3264+254494506+254827616+254583789+254316495+254701179+255393464+255672295
3250+255476621+255617980+256235976+256474518+256411389+256843707+257557614
3237+257924868+258358762+258928731+259008681+259409345+260801743+262060378
3223+262527951+262477147+262146921+262027721+262371848+262973811+263719999
3210+264488795+265434312+266877174+268333131+269211954+269708995+270170763
3196+270878580+271926994+273092101+274204737+275153138+275791896+276090325
3183+276369335+276872018+277530553+278382864+279013919+279089265+279289149
3169+280017674+280982305+282062248+283270563+284426497+285286027+285852789
3156+286377704+287150172+288121610+288881592+289247037+289452707+289851365
3142+290464846+290782873+290462231+290018681+290106406+290400428+290163032
3129+289624198+289478539+289617193+289769623+289958006+289753268+288955774
3115+287967747+287096645+286608758+286284623+285604215+284889806+284584248
3102+284381515+283931409+283167576+282228257+281539483+281522214+282331406
3088+283559497+284402528+284617299+284477928+284346494+284611029+285071310
3075+285232017+285135317+285016064+285078816+285518676+286090991+286343775
3061+286201484+286037052+286307069+286789528+286846280+286435638+285833908
3047+285229670+284891938+284719373+284306402+283643066+282745362+281535524
3034+280382653+279514847+278796014+278263109+277701184+276764140+275696164
3020+274862054+274391741+274231088+273848948+272992159+272212418+271652821
3007+271061911+270795298+270937427+270917596+270787469+271107520+272096246
2993+273904714+276606426+279605564+282146211+284091703+285285938+285591030
2980+285680582+286097225+286398144+285961186+284980576+284070099+283293851
2966+282540480+281823599+280917833+279778630+278892713+278594123+278527519
2953+278390764+278465197+278894093+279312419+279414457+279153648+278620081
2939+278238083+278128754+277720943+276955067+276395023+276043480+275582016
2926+275178988+274944870+274624765+274097361+273351119+272603587+272296291
2912+272542106+273028309+273439990+273767170+274021495+274222113+274567100
2899+275094613+275638947+275927558+275816832+275805331+276401329+277150652
2885+277607601+278056704+278385103+278432145+278652415+278926786+278803555
2872+278567217+278412870+277926452+277237463+277052018+277275262+277421852
2858+277548109+277563999+277238216+276705168+275924585+274946626+274487974
2845+274820995+275408197+276030349+276769121+277447737+277920003+278384817
2831+278980832+279561692+280068783+280439548+280567400+280585475+280628218
2818+280743924+281146523+281863314+282376871+282406071+282367628+282628760
2804+283251306+284143582+284896255+285151744+285227789+285629814+286248473
2791+286705315+286937694+287033588+286977553+286838881+286804361+286922324
2777+287063916+287031438+286866074+286845742+286979559+286963508+286652683
2764+286373602+286539360+287028536+287403834+287578119+287703803+287757617
2750+287787748+287890252+287914722+287803046+287747406+287888729+288083221
2737+288047590+287845717+287743375+287747979+287765678+287736263+287672740
2723+287740562+287983082+288218149+288227625+287956229+287673905+287705576
2710+288038937+288410545+288606720+288597190+288502049+288376598+288202886
2696+288160036+288264582+288224759+288073207+287977922+287844660+287578154
2683+287195441+286871413+286809018+286912740+286901401+286645267+286184717
2669+285650415+285212132+284798158+284218982+283590059+283102853+282847292
2656+282916117+283129437+283165731+283094129+283147691+283210874+283042751
2642+282790648+282717613+282730565+282707563+282676178+282625266+282598843
2629+282682484+282862179+283035532+283099431+283048735+283110054+283439635
2615+283695034+283678966+283777492+284198273+284678672+285006766+285276497
2602+285626518+286040599+286497262+287095911+287836581+288472599+288910792
2588+289305311+289706584+290100190+290462732+290720962+290892434+291076268
2575+291305638+291498338+291587263+291709168+291988232+292228350+292270878
2561+292223675+292152843+292105873+292147773+292308050+292614790+292855518
2548+292864099+292893961+293041214+293086519+293039638+293111347+293397917
2534+293877653+294323102+294426913+294362548+294472647+294572518+294483306
2521+294490346+294779943+295177347+295434233+295484016+295479072+295646137
2507+296125067+296763771+297191646+297320931+297375856+297485543+297681952
2494+297949138+298278218+298762916+299308020+299712123+300016875+300348481
2480+300701260+300924253+300959974+300870153+300710826+300675643+300823254
2467+300969611+301021383+301005977+301050045+301129870+301052266+300947362
2453+301019556+301148715+301282891+301496676+301690792+301828801+302104425
2440+302576565+302917934+302877198+302777524+302927751+303137344+303207316
2426+303154936+303099761+303185927+303441308+303728362+303838891+303803027
2413+303861283+303996605+304045116+304190363+304636886+305111534+305323707
2399+305382967+305514634+305792838+306165520+306450352+306461961+306320978
2386+306127686+305681808+304740787+303126381+300963915+298632896+296315295
2372+293922133+291407121+288887683+286345531+284082388+282762362+282570718
2359+283463586+285586301+289032697+293471024+297673890+299844525+299202184
2345+296906779+295212010+294821611+295307796+296380466+297598974+298850103
2332+300387587+302241897+304140454+305880688+307578323+309489134+311672595
2318+313957556+315973450+317517777+318992490+320745909+322527632+324133368
2305+325605215+326938945+328201449+329474953+330677481+331797355+333023279
2291+334328884+335503574+336602990+337644974+338416026+338998803+339698523
2278+340482796+341270760+342170148+343013179+343696274+344468402+345322790
2264+346088935+346841393+347663249+348428749+349001207+349416776+349740552
2251+350031439+350383377+350859244+351522383+352233495+352713231+352986849
2237+353296366+353754606+354207757+354548051+354930550+355351635+355651873
2224+355859998+356083421+356345753+356668347+357104839+357626959+358135895
2210+358560098+358953847+359411942+359850691+360203632+360624467+361183597
2197+361799479+362517543+363335996+364085158+364697708+365268805+365974042
2183+366823629+367690414+368567231+369361393+370029763+370820915+371843623
2170+372915845+373905377+374841453+375824858+376890703+377829108+378560427
2156+379483534+380737081+381954980+383007819+384054890+385211380+386527841
2143+387959632+389373080+390713438+392040576+393387061+394780517+396228646
2129+397690103+399136225+400563359+402059103+403640870+405266562+407006832
2116+408787910+410465910+412040261+413647681+415571605+417809381+420001011
2102+422040659+424191624+426635232+429258337+432002900+434982816+438067027
2089+440983169+443863125+447012113+450391582+453949330+457775681+461754766
2075+465970172+470756246+475751841+480291561+484597397+489230449+494224826
2062+499561825+505487585+511822535+517908409+523710813+529819295+536361868
2048+542982976+549488790+555940790+562427686+568997166+575707701+582570360
2035+589445452+596231405+602892317+609252204+615375769+621626381+628090598
2021+634475134+640384305+645887331+651465739+657013263+662150987+667113370
2008+671982743+676150677+679542220+682965507+686636507+690177238+693636209
1994+696707952+698958519+701206864+704000296+706484676+708357975+710287738
1981+712439420+714355928+715650247+716376622+716748731+716770730+716860371
1967+717567686+718620525+719493222+720068188+720576013+721178138+721660023
1954+722136750+722961365+723848321+724500748+724967872+725063533+725125802
1940+725953642+727335883+728611142+729571259+730569138+732467158+735676910
1927+739248094+742232991+745185785+748752455+752825301+757192295+761204736
1913+764689718+768474079+773240912+778882736+784781230+790450856+795644257
1900+800510907+805717779+811329507+816577008+821090897+825683535+831506289
1886+837698501+842909028+847682812+852262481+855766953+857865395+859246991
1873+861160704+863724264+865682976+866800019+868088750+869070363+868827951
1859+868343629+868451686+868136186+866565418+863975776+860881246+857958977
1846+855412042+852469136+849368516+847316149+845944083+843289664+839033593
1832+834306671+829069059+825278751+824020474+822332048+819197319+816172296
1819+813869205+811783447+809362411+806483422+803508200+801402951+800329689
1805+799357320+797506592+795128550+793771388+793060562+791427095+788889475
1792+787375100+788162813+789529648+790291852+790718347+790869756+790745935
1778+790565935+789834472+788050385+786699171+788188107+790963482+792686447
1765+793410457+793813951+794550430+795445054+795986270+796747184+797317851
1751+796630958+796165696+797884219+800637953+802542135+803082779+804011080
1738+806181249+807133627+806945889+809358541+812825681+815146113+817029945
1724+818906611+820299100+821020316+822300591+826490022+831423957+834442746
1711+837026011+839382199+840449512+841751786+844400114+846706501+849113923
1697+853272971+858719962+863975131+867556132+870164333+872333785+872911546
1684+874612513+881372239+888960379+894421557+897831802+900742678+903632917
1670+906502590+911330188+917336954+922041734+926055895+930688517+934706905
1657+936353557+934777845+934100052+939781358+944874440+947909424+953216256
1643+959867710+963175989+961582291+957202399+955317420+959955345+966278186
1630+969996479+971224230+971986649+972702204+974570057+977731585+979331516
1616+979884413+982903489+986333368+987756596+988729539+990438101+991902245
1603+993920146+996895296+998487919+998323326+998865116+1000968788+1003188758
1589+1004896603+1006981932+1010154710+1013611316+1015286773+1014661289
1578+1013142329+1012480372+1013386747+1013410823+1011966456+1012417315
1566+1014587340+1016351651+1017387723+1015748165+1014916886+1022410439
1555+1030270441+1034330605+1036588839+1039267048+1041886786+1043399226
1543+1043379879+1042408225+1045269085+1051354100+1054705802+1055393053
1531+1056313043+1056246833+1055454749+1057444130+1059401338+1058009781
1520+1058327074+1061424111+1064521005+1067222717+1068397730+1067324110
1508+1063938658+1062233965+1066889518+1071408422+1073389276+1073741823
1497+1072737136+1071640802+1069758904+1065930046+1063497975+1065467292
1485+1068510301+1068630898+1065774982+1063101216+1062314650+1061842509
1474+1057895347+1053078211+1054814432+1058825440+1057307482+1051804958
1462+1048269100+1043220158+1033931625+1029348015+1031538965+1030964213
1450+1025367676+1018373134+1014050137+1010060769+1001577935+991017367+983348615
1437+976406740+967908929+960973216+953706095+945145729+940257941+940119358
1423+942705274+945398101+946504826+950623461+957975494+964369632+970276224
1410+975025430+976405880+975916255+976901165+980037900+985073586+992203701
1396+998933834+1003480827+1007096510+1010633944+1012859790+1012920195
1385+1012535905+1012580618+1013388681+1015134576+1016960439+1020205947
1373+1026686502+1033603083+1036312319+1034142866+1030740647+1029433357
1362+1029932584+1030057265+1030405584+1030948449+1029591215+1027163873
1350+1025328194+1023746319+1022014326+1019838066+1015742361+1009537681
1339+1004770274+1002356117+999969906+998107713+997274643+997589140+999457208
1325+1000408798+1000084125+1002564206+1008588958+1014159340+1016475544
1314+1017084332+1019175249+1022954594+1026606892+1029304878+1030345321
1302+1030206739+1030653800+1031839059+1033481053+1035166614+1034962824
1290+1033353649+1033370918+1035947877+1041321349+1049403699+1056962316
1279+1061063324+1063125579+1065180024+1065379012+1062055041+1058389056
1267+1056607620+1054363072+1050357582+1045929322+1041859556+1039122231
1256+1038516883+1038626588+1037422841+1034242468+1030324398+1027667614
1244+1026655117+1025773320+1023313375+1019620877+1016799142+1015606072
1233+1015030389+1014517619+1013784293+1011908845+1009481431+1008367684
1221+1008435972+1008485558+1009306376+1011496179+1012540921+1011313528
1209+1009974495+1009391718+1009733373+1011543400+1013379509+1013107576
1198+1010948370+1008719801+1007284965+1006432117+1005781052+1004785967
1186+1003097325+1001079496+999626244+999192440+999235863+999199605+998733914
1173+996645934+993083707+990701652+990261183+989855754+988323251+986130940
1159+984636629+984582099+984966962+983935118+981236774+978268932+975785412
1146+974095767+972415581+969493455+966376569+964025326+962549502+962124511
1132+960371451+956131932+953214894+953600116+954351643+952472683+948247281
1119+943483170+938345231+932801361+928917829+929852078+934009837+933547729
1105+928142943+923686451+918949641+913331321+910430620+910806455+912605447
1092+913189514+911619893+909381435+907042875+905420300+906005585+908398819
1078+911579909+914483189+916406718+918125814+918867810+918619307+920325505
1065+923744564+925645880+925253278+924454028+924953111+926993440+928788419
1051+928656214+929354142+932888352+936288063+937907557+938985118+940570002
1038+941253455+938493487+933357841+929087152+927873302+929177080+930641367
1024+932598002+934907757+933598174+928912527+926213753+926277096+925495044
1011+923671188+923222193+923379262+922115396+920114765+918950143+919447362
997+920763035+921285335+921662746+923136564+925908570+930302005+935817213
984+940452630+943199843+945218603+946566808+945710592+943495209+942741031
970+943643751+943758544+942038875+939421717+937083515+936268215+937836116
957+940156476+940468107+939286861+938363647+937424382+936517147+936482179
943+936839097+936035548+932985589+928966269+927052556+927278415+926793878
930+925077649+923244334+920993839+918203632+916055963+914303547+911860728
916+909518585+907871862+906228650+904004882+901087701+898008076+895419795
903+893735811+892857453+891808054+889753179+886836069+884156642+883671102
889+885908484+888521271+889318371+888237514+886874620+887147844+889226580
876+892276683+895054207+896243551+897716078+902128645+907821774+912752413
862+918272636+925626461+934461556+943526665+951144112+957045258+963214325
849+971608592+981676597+992371304+1003050820+1011225678+1017016330+1023847282
835+1030140242+1033093037+1035289862+1036078864+1033128291+1032604559
824+1038153659+1041269685+1036860271+1031748701+1032137577+1037697570
812+1043385754+1044049861+1040965148+1039583910+1040313868+1037813939
800+1032190101+1028771902+1027579549+1027394390+1029004354+1027665249
789+1020010470+1010786858+1002076874+994087032+989105661+986792538+985223634
775+981860395+976953331+973344599+968745798+961837243+956893419+956356932
762+957937445+957256786+953088565+946820183+941046728+939783579+942043891
748+943642103+944253542+944260135+942882264+940647677+939808085+941211107
735+941575047+938926933+935880270+933302881+928932590+924036490+920999070
721+917108372+912863981+913264251+915924474+915291180+914109217+918921050
708+927704481+933121520+935236227+937834611+939577067+938901925+939590108
694+943080178+946331562+950669034+957781450+963728455+963495646+957071054
681+950446041+946636959+946201578+951192623+955890094+952232708+946503034
667+950791064+955959743+956361088+959869430+965444828+965180275+957366276
654+948519215+943589508+941434386+945161494+955465461+961981343+962837272
640+965372814+966100981+963618464+967921684+973674431+969892292+964759297
627+961503613+954044239+944317746+943378696+959673953+975456655+972360764
613+971963074+993311788+1024952287+1038495458+1026420946+1012860005+1006617132
600+994046260
##END=
