##TITLE=Sample description
##JCAMP-DX=4.24
##DATA TYPE=INFRARED SPECTRUM
##DATE=13/9/2023
##SAMPLING PROCEDURE=Instrument type and / or accessory
##ORIGIN=Default
##XUNITS=1/CM
##YUNITS=ABSORBANCE
##RESOLUTION=4
##FIRSTX=4397.6552
##LASTX=599.8556
##DELTAX=-1.9287962
##MAXY=1.7449971
##MINY=0.37963715
##XFACTOR=1
##YFACTOR=1.6251552e-009
##NPOINTS=1970
##FIRSTY=0.42195776
##XYDATA=(X++(Y..Y))
4398+259641511+259897878+259459157+258083063+256800292+256708894+257564424
4384+257788754+257457182+258064468+259183058+259705750+259461449+258287056
4371+257734253+259235707+260220171+259341994+258765223+258593138+257921779
4357+257100267+256288273+255627568+254954723+254431701+254870716+256005957
4344+257148698+257875860+258191331+258431047+258009068+256920718+256106872
4330+255692100+254946618+253732394+253815796+255038693+254962498+254410704
4317+254946783+255462965+254884250+253714625+253661646+255270524+256382219
4303+255546238+254342449+254237904+254722691+255248005+255909993+256547666
4290+257022990+257246807+256607411+255592505+255384111+255162843+253826267
4276+251994122+251125720+252363562+254708424+255540993+254150852+252220360
4263+251338736+251894124+253286448+254719940+255183455+253693077+251615256
4249+251600861+253302603+253987331+253475037+253694490+254554420+255269937
4236+256021746+256406847+255613557+254343403+254257599+254958244+255237369
4222+255430139+255581301+255103720+254542243+254542390+254075098+253286283
4209+253976237+255045735+254218649+252484594+251906191+252465156+253442047
4195+254267300+254178195+253768319+253737254+253442267+252979430+252850495
4182+252850605+253200919+253661811+253211206+252378691+252153352+252468365
4168+252997035+253077228+252592844+252093332+251724277+251465892+251787837
4155+252746371+252875600+251786956+250994675+251010703+251379318+252085978
4141+253221237+254318958+254624582+253547913+251545260+250117030+249738898
4128+249747645+249620782+249514971+250126346+251237821+251831023+251514030
4114+250839095+250812578+250889634+249818155+248744457+248607123+248583118
4101+248590655+248808769+249129100+249136197+248755955+248920118+249458159
4087+249768129+250395220+251426208+252295675+252649106+251972282+250889488
4074+251035844+251368315+250393056+249446808+249158569+248801471+248354478
4060+248425759+249195649+249809426+249786522+249423005+249116281+249275640
4047+249836805+250275564+250423057+250339142+249614290+248560141+248348665
4033+249100932+250106834+250757233+250776231+250604972+250363917+249705192
4020+249561128+250700990+251824384+251853377+251304718+250944300+251187629
4006+251837808+251980204+251800692+252367047+252796984+252137673+251810961
3993+252637534+253188815+252742575+252470455+252584904+252191716+251847912
3979+252627540+253764266+253974018+253776626+254075849+254324093+253937653
3966+253523486+253571056+254145186+255264638+255936730+255344280+254237042
3952+253619670+253858267+254677304+254890870+253847540+253435298+254869652
3939+256000474+255439547+254046582+253221531+254235776+255913258+255511011
3925+253859111+253451931+253116361+252120399+252818972+255691421+257915342
3912+257949378+256309692+252347021+245977232+241904625+243433861+247670191
3898+252373868+254948928+252788439+249426544+250520359+252453053+251691690
3885+250847182+249746435+249141625+251813785+252659833+249814213+246893901
3871+244484893+245252399+248044087+248305314+249427590+253191969+254813373
3858+251167677+241164644+233600547+242066111+253545272+258216638+256403619
3844+251916992+247595866+243873243+243085950+246600491+250340682+252744812
3831+255290329+257063224+257213193+255000678+248417158+244240207+247412192
3817+250571138+254850397+260936789+263006028+259056103+254121952+253273556
3804+251502697+249614015+253566948+258082054+261605874+265831605+268372923
3790+268744930+267902769+266602009+266801729+267304231+266484975+267759604
3777+271565079+273509105+271475681+268332414+268881256+272141227+275941201
3763+278692692+278068260+277896890+281690428+283900650+281114610+282042006
3750+297647744+317780252+341408834+377545823+408130722+421134149+420213391
3736+412553477+409455579+413829812+419222618+419810832+416810016+415742626
3723+418509925+424143511+431049617+436680563+439587451+443017417+455067445
3709+476806061+503497406+534580698+571346393+608570761+633095711+641277748
3696+638297507+626431264+606043802+583906881+570717211+565617155+559939007
3682+549351592+534762906+517956112+501448632+494346455+491960993+487258580
3669+488047010+490596232+486130932+477922010+470366404+462259369+453625407
3655+447576608+439564859+424807608+413590792+416427482+423376207+426113357
3642+424864457+423008820+421886490+419334407+413750738+405617553+396476724
3628+394504898+398724026+398640185+391695275+381368922+374731433+372471770
3615+369984092+368451684+369157922+370004520+371020417+372153310+371180655
3601+368312607+366225177+364853337+363049671+361746747+359729001+354390439
3588+349404996+349819034+351753671+351298775+349244647+347458696+346317293
3574+345232005+342918319+337803115+331231020+329005173+331785638+333964649
3561+333956727+333813030+333945248+332558774+329713062+327617966+326046021
3547+324036381+322786930+322904661+323263208+323034238+322554146+322010237
3534+320847635+318879366+316909447+315984581+315839893+315504672+314818789
3520+314155792+313871771+313969586+313703683+312626721+311491407+310915113
3507+310326238+309309572+308786752+309062337+308978422+308419365+308260924
3493+308479184+308073765+306577391+305121728+304839486+305482934+306373104
3480+306726847+305866568+304268968+303115829+302755026+302836576+303206896
3466+303534122+303412595+303250871+303526035+303704685+302991936+301682887
3453+300732109+300024477+299050410+298616273+299267845+299996456+300249926
3439+300313156+299919876+298953841+298267445+298263502+298313162+298088740
3426+297597296+296837510+296417769+296708611+297082856+297053002+296957423
3412+297125822+297153183+296888252+296848440+297101359+297200532+296889407
3399+296715433+297342799+297968570+297846841+297547380+297258022+297024596
3385+297207335+297508301+297654713+297943447+298407860+298857089+299204616
3372+299134674+298694412+298395885+298153657+297972751+298278136+298705965
3358+298702206+298502577+298380390+298225139+297950984+297452131+296882109
3345+296705714+296794122+296762636+296494184+295893720+295145579+294418068
3331+293832806+293501968+293078870+292465735+291594453+289963661+287884556
3318+286171664+284914089+283786055+282472586+280765342+278808277+276893097
3304+274967629+272990558+271401191+270585914+270372825+270302333+270568273
3291+271714535+273008878+273336653+272923899+272858743+273755130+274967593
3277+275513134+275317484+275442019+276754828+278355802+279109665+279429683
3264+279889916+279889916+279098992+278310323+278183919+278840974+279528819
3250+279161837+278166571+277660493+277825756+278248542+278425744+278281239
3237+278490954+279400838+280366854+280712565+280722889+281047511+281392231
3223+281200946+280908654+281140320+281741059+282689728+284132022+285374028
3210+286074270+286640221+287061613+287353465+287893615+288839734+290447971
3196+292948614+295481497+296954251+297376633+297690784+298609139+299718542
3183+300527382+301111324+301896984+303172329+304195597+304260734+304292092
3169+305723842+308002063+309190484+308856436+308405685+308693264+309019573
3156+308987041+309333118+310522090+311505454+311031413+310100422+310911885
3142+313054917+313444125+311393408+309619707+310311861+312296195+312414769
3129+310816857+310442722+312249396+313825229+312582490+309832612+308754586
3115+309640979+309349842+306890313+305004345+305122626+305693364+303996793
3102+300508842+298828702+300117286+301407393+299779039+296986819+296643584
3088+299362617+301219115+299121012+296277005+296056122+297835380+298737543
3075+297200862+295584337+296199270+298110782+298471053+296765515+295455071
3061+295981889+297371957+297279331+295544103+294289224+294365162+294815254
3047+294242444+292856850+291811650+291415436+291202805+290418171+288973548
3034+287363899+286147952+285614569+285133010+284239080+283481404+284491267
3020+290857755+302304403+309165838+305115456+296447641+289696107+285444721
3007+282490997+280330581+279104457+278857203+279054027+279235336+279831876
2993+281754868+285353984+289152895+291163158+291719391+292324054+293696645
2980+295247722+295377849+294204539+293125211+292313235+291818343+291168531
2966+289312253+287097776+286487831+288098819+289502071+288193113+285996571
2953+285357285+286432010+288036120+288044244+286499164+285497462+285973447
2939+287328690+287455370+285517726+283717984+283536436+284695773+285822762
2926+285190170+283660054+282887248+282728330+282731429+282193424+280974580
2912+280231115+280562559+281656960+282403836+281958568+281333586+281450345
2899+281964051+282564075+282913545+282753985+282541959+282945673+284043981
2885+285052120+285268584+284916601+284557449+284592163+284914217+284941211
2872+284603643+284315716+284279901+284441900+284362533+283875343+283495139
2858+283377555+283387146+283332938+282717895+281694040+280981200+280885273
2845+281238594+281596243+281765504+281960053+282411465+283219223+284261270
2831+285127142+285404433+285365281+285681082+286352771+286840804+286850211
2818+286656799+286791584+287108889+287063997+286967685+287307106+287888517
2804+288497710+289001697+289342493+289602069+289730766+289809272+290058542
2791+290432255+290670284+290705072+290669807+290636285+290651616+290742115
2777+290870372+290851373+290516684+290085481+289848809+289823337+289946826
2764+290121845+290256612+290398091+290468711+290373591+290351384+290493724
2750+290625722+290743820+290894284+290987369+290943412+290861661+290859937
2737+290914713+290961329+290907873+290763368+290655559+290545548+290378029
2723+290257383+290113832+289929185+289988050+290254687+290406270+290379936
2710+290238879+290084014+290040332+289903401+289402367+288838194+288533249
2696+288293148+288115231+288157666+288068817+287636001+287382237+287595620
2683+287743389+287459551+287093650+286860774+286485154+285893841+285315511
2669+284806132+284292775+283825519+283528569+283350653+283095642+282732969
2656+282424302+282358376+282538218+282692423+282650649+282544673+282501817
2642+282554081+282661084+282665155+282591124+282624242+282692497+282704637
2629+282821744+283033256+283144147+283269176+283600051+284102663+284695847
2615+285057768+284975668+284926431+285263541+285712843+286034568+286218774
2602+286328803+286521042+286867137+287306593+287781422+288198523+288519844
2588+288739040+288817435+288865004+288914022+288925190+289163971+289704726
2575+290111283+290207448+290255365+290411056+290719375+290989973+290935252
2561+290838628+290961219+291038679+290995328+291054725+291353526+291693296
2548+291772113+291723517+291739691+291685575+291603915+291765584+292110048
2534+292401514+292716875+293135682+293500024+293754722+294008687+294332117
2521+294638492+294828365+294965003+295075985+295125095+295188526+295379005
2507+295693394+295915432+295933367+295992654+296176310+296379185+296654569
2494+296858782+296891571+297085864+297538651+297997232+298331628+298577048
2480+298890868+299128952+298922483+298546166+298447360+298484789+298460857
2467+298383250+298358127+298524252+298798646+298973555+298938933+298814600
2453+298776017+298755863+298746510+298842144+299020005+299340446+299782139
2440+300152551+300394284+300502754+300586339+300753730+300724462+300461695
2426+300404737+300611114+300845512+301030691+301110938+301181082+301421898
2413+301742266+301989995+302178108+302323970+302356740+302288229+302354539
2399+302729004+303482812+305197941+309229801+317144945+330298012+349568352
2386+374496301+403182285+433416154+463573150+493126198+522724761+553422366
2372+585445084+617751016+648983728+677728247+699519164+711164249+716362964
2359+714646661+699898470+674461637+646371130+620549636+605397052+609407457
2345+628073115+638270367+630579718+618331895+608909576+605103605+608717943
2332+614707765+615225268+611786427+610694574+611546380+608975630+600746720
2318+587752829+573988001+568299291+572748783+575952750+567542219+548287870
2305+525878848+509142839+499480987+491536978+482158964+470756749+456948938
2291+442454913+429476609+418151781+408069362+399496172+392687258+387475559
2278+383147868+379130899+375537100+372518606+369921925+367640184+365849868
2264+364545990+363333656+362028347+360764592+359671383+358822253+358116712
2251+357400681+356724664+356082866+355450787+354960278+354662980+354521556
2237+354542829+354743888+354986942+355093670+355038032+354970107+355140359
2224+355529237+355944743+356356911+356800987+357305873+357907180+358605863
2210+359279057+359839213+360389467+361041975+361887693+362928566+363908520
2197+364752367+365720841+366759623+367713243+368784154+369919762+370780554
2183+371506121+372421451+373418092+374359058+375263569+375961738+376374493
2170+376880332+377719926+378628544+379476169+380230857+380706292+381108630
2156+381719107+382237049+382536328+382961993+383489177+383851209+384215478
2143+385278613+387320858+389674082+391871394+393952369+395966190+397921586
2129+399808984+401679511+403526345+405486949+407712612+409969780+412000729
2116+413899900+415858157+417810875+419773569+421939890+424273455+426598841
2102+428967909+431542327+434279330+437037973+439831495+442930164+446367098
2089+449996803+453937192+458142311+462575776+467380771+472549082+477821407
2075+483078108+488715509+494947762+501608248+508523413+515659846+523024150
2062+530664112+538770009+547131284+555587109+564319438+573279746+581993369
2048+590000351+597680107+605252914+612535503+619691778+626810790+633807084
2035+640520456+647069153+653493369+659548256+665144689+670376414+675274677
2021+679600131+683765602+688316541+693085338+697934235+702594396+706528587
2008+709571838+712436109+715532834+718268737+720704776+723544987+726436177
1994+728417577+729744011+731211649+732777212+734388035+736168008+738006223
1981+739663110+740713152+741119232+741349045+741642676+741942614+741828844
1967+741536755+742319280+743673515+744210015+744603845+745594985+746293741
1954+746337239+746488272+746848433+747039663+747174119+747428065+748171933
1940+749780922+752037246+754417023+756250544+757875743+760346770+763465648
1927+766291628+768572159+771010252+773671702+776412667+781113392+787418925
1913+792163221+795505384+799764527+805442601+811592993+817474548+822973789
1900+828309747+833297207+838099086+843463945+848661414+853323409+858816855
1886+864718215+869336565+872748339+876252977+879908429+882822946+885153356
1873+886372182+884670550+882305737+884647957+889666739+891730660+889875060
1859+887072479+886194449+886620921+886005273+883572169+879873146+875080437
1846+868543917+863121256+862718184+863541713+861668582+858353927+855100448
1832+849630768+841696442+836223167+833595385+831931236+831654990+830688644
1819+827988316+825023259+822136469+818543148+814930901+813177702+812604745
1805+810951892+807171154+802451211+799814553+799308641+797195280+792495288
1792+790514769+793977890+797332743+798166321+798093335+797185011+795995966
1778+796022299+794703494+788953387+783001194+785095189+792274204+797154863
1765+797340518+794614004+793910039+796029635+798120476+799714867+798745953
1751+794555688+792567614+796009243+800843176+803239017+802871594+802735085
1738+803791509+801443273+797782174+802062662+810139145+816947656+821549135
1724+823879033+824423088+820365152+811155518+808039208+817380436+828957890
1711+836042720+837413459+835541355+835633413+836521566+833446480+831463100
1697+835788847+846117033+859452748+867068284+868508121+866562078+859754521
1684+857736665+870648622+883963358+889905575+891464757+894651632+898511810
1670+900942934+907899250+917307742+921698480+924586737+931307738+936430534
1657+933621718+922223684+918141908+931405443+937460844+937454609+946271879
1643+958019804+962944035+960976646+953942136+950288812+959146426+969795090
1630+974263214+974334953+972908980+972342111+976490932+980879762+977900107
1616+973650427+978868728+986509130+988938347+988615962+991120879+996084499
1603+1000201045+1002612803+1003689986+1003252291+1002469839+1003939898
1591+1007414975+1010055887+1010808264+1010682685+1010859905+1011853245
1580+1011031256+1005103563+1001966494+1008697545+1011753339+1006623354
1568+1005418025+1009549241+1011526386+1007379619+992693704+983981474+1000358239
1555+1017548337+1027536828+1033704238+1037957659+1038593699+1034116773
1543+1025774166+1017889207+1023858198+1037673491+1043219898+1044497993
1531+1050682200+1056519670+1056380814+1053568843+1049384814+1044533789
1520+1043518883+1045648968+1052115582+1061169195+1063857493+1055927055
1508+1040160510+1035310512+1053049874+1068441587+1070940709+1066311429
1497+1065586559+1069691882+1069235482+1062445750+1058424636+1063015919
1485+1070072728+1073741823+1072486981+1067932154+1062137669+1054437191
1474+1045652782+1045749167+1054460737+1058438646+1055288814+1051546000
1462+1047087265+1034893943+1016564239+1011559541+1020895121+1025840477
1450+1023240936+1016840779+1010605225+1005444065+999469867+991609920+979542618
1437+964166015+955566088+952838180+947942704+942441702+939089344+936368991
1423+935376384+936344564+937905360+944682916+955721229+964385413+969732007
1410+972351647+973243100+976104364+983526028+991987833+996545300+996948226
1396+996018702+999153350+1008264251+1015031611+1014687221+1012792598+1013662926
1383+1015081124+1016486559+1018526640+1019737031+1020804457+1024669330
1371+1029415827+1031598579+1032629916+1033560320+1033511761+1034335950
1360+1035766765+1034262011+1030376746+1027133976+1025222628+1024697864
1348+1025890063+1025950799+1021710581+1014684800+1008829653+1006347989
1337+1005527907+1003789452+1000716713+998156929+998093993+999004885+999256557
1323+1000142069+1002237605+1005328902+1009409064+1013787772+1018012586
1312+1021840342+1024813321+1027104195+1029331252+1031119807+1031617798
1300+1031629167+1033045238+1036006921+1037911520+1037637695+1038326182
1288+1041856934+1046283541+1050405148+1054883248+1059218384+1062226279
1277+1064294014+1066158122+1067174422+1065686832+1061779488+1058093522
1265+1055411386+1052077072+1047741350+1043814714+1041868304+1041303709
1254+1039202525+1035684390+1034005130+1033641888+1032338120+1030741895
1242+1029125425+1026783424+1024205889+1022629175+1022320581+1021665323
1231+1019974180+1018809341+1018744498+1018637916+1018000336+1017194998
1219+1016173050+1014746637+1013550110+1014444277+1017938793+1020212135
1207+1018543805+1016509225+1017355860+1019078398+1018573953+1016495948
1196+1015773279+1016330465+1016008007+1014717222+1012923826+1010421917
1184+1008528394+1009077584+1010660459+1009630369+1006590493+1006028465
1173+1007409034+1005928999+1002267166+999705255+997382326+995082577+994253106
1159+993957055+993161547+991666328+988925950+985758367+983386072+981615928
1146+979912755+978333474+976980853+975814768+974713526+973544066+972579553
1132+970646127+966829813+963779154+962219458+959681313+956326241+953218953
1119+949160430+944235099+941539466+942041857+941726882+937534563+932196697
1105+928767099+926153107+922796054+919680111+918893038+919806937+919935598
1092+919193563+917209010+913801710+911932761+912422609+914252755+917534769
1078+919252245+917185904+915643373+917496699+920001835+920685774+921245748
1065+923775237+927262198+931310085+934806141+934402409+932067670+933183216
1051+938566193+944061180+945212448+943160117+942308421+942995221+942997054
1038+942845508+944153824+946014632+946041552+943761168+940252495+935947140
1024+933007463+934260252+938642333+941808963+940098308+934704915+930070134
1011+929019652+930731554+930908260+927809921+924865183+923569410+922286107
997+921360618+921999225+923366664+924639037+926015351+928002912+931694746
984+937411257+943606101+948221223+950623079+951278338+949986306+948067770
970+948702783+950792230+950106898+947343927+946101921+946538662+946636882
957+946052995+946035171+946301074+945268196+943681287+943941835+945252939
943+944328623+941805736+940136451+938110601+934515445+930762142+928866271
930+928813824+927675613+924652387+921441672+918440966+916040064+914187765
916+912578703+911250215+909317155+907297246+906376745+906107101+905359931
903+902951914+899368935+896200545+894379641+894437002+896170617+898329896
889+898498827+896605817+896421189+898941656+901808861+904669244+907793256
876+910271765+912056286+913914160+917075875+921015787+922879162+923918348
862+927989635+934831154+942528112+950457743+958179053+965579152+974181866
849+984080720+991986732+998354688+1006240601+1014584454+1022547241+1029667060
835+1034641977+1039439674+1043810093+1045161027+1044951532+1044094994
824+1043469737+1044672939+1045661878+1046056148+1047113232+1046936379
812+1044700299+1042389254+1041399361+1042034447+1042908663+1040766989
800+1036903876+1034824991+1032616786+1028714283+1023659265+1017307301
789+1011911267+1009094089+1005938168+1000243736+995346499+992089939+985805606
775+977706017+972247926+968818401+966282383+963515451+959321666+956299174
762+956249220+956442871+954994672+952162750+947825560+944218228+943967289
748+944901287+943715103+940441525+936973269+935031040+935219850+936388503
735+936247372+934373948+932017424+928330944+922498463+917241065+915371015
721+915800714+915523001+913778091+912595281+914754927+919691994+922683678
708+924218874+929852717+938549249+944992171+946817769+944945665+945122298
694+950894411+957757422+960103164+957445307+955349918+958947348+965199773
681+965875276+959861247+953932673+951936897+957111847+966681861+966570585
667+957663311+956037452+954098890+949772190+949342491+949982492+948052366
654+946761141+947615111+950716237+955319110+952964713+941996452+937213279
640+944931801+953677700+953502681+946925891+942706432+949428020+964030533
627+970695566+967053538+966504935+963413051+944549341+927346113+930463817
613+946318825+962623264+972474732+975383748+978197919+978755398+972252841
600+963719665
##END=
