##TITLE=Sample description
##JCAMP-DX=4.24
##DATA TYPE=INFRARED SPECTRUM
##DATE=13/9/2023
##SAMPLING PROCEDURE=Instrument type and / or accessory
##ORIGIN=Default
##XUNITS=1/CM
##YUNITS=ABSORBANCE
##RESOLUTION=4
##FIRSTX=4397.6552
##LASTX=599.8556
##DELTAX=-1.9287962
##MAXY=1.668288
##MINY=0.25667584
##XFACTOR=1
##YFACTOR=1.5537143e-009
##NPOINTS=1970
##FIRSTY=0.29941726
##XYDATA=(X++(Y..Y))
4398+192710631+192712683+191508421+189556566+188344709+188672268+188647045
4384+187135498+186410520+187679519+189409273+190110830+190029444+190761653
4371+192178828+192387099+191516094+191105767+191228853+190747804+189271973
4357+187569169+186351652+186049661+186524054+187288008+188458051+189513754
4344+189696207+189883666+190291557+189705068+188609315+188335732+188250662
4330+187010109+185314651+185149097+186690088+188347989+188754345+187904094
4317+187055876+186767849+186414778+185871045+186086643+187110677+187479074
4303+187231251+187407815+187608586+187402809+187223156+187281717+187126291
4290+186843366+187115089+187774486+188646738+189643458+189786858+188818795
4276+187773181+187010723+186229793+185656540+185346876+185126866+184905533
4263+184662543+184934017+185468390+185485730+185698393+186557468+187005774
4249+186614878+186079737+185723348+185388212+185371467+185942955+186171117
4236+185760618+186314325+187776807+188338705+188085665+188032705+188290195
4222+188459029+188067135+187104290+186089827+185485691+185245234+185494592
4209+186514828+187550390+187628458+186886179+186217594+186194173+186449017
4195+186348276+185865213+185585588+185862509+186253789+186470078+186417847
4182+185575287+184365789+183873692+184157882+184756148+185042046+184821979
4168+184855124+185548491+186400066+186411229+185366192+184495186+184356965
4155+184161488+183824261+183717018+183581042+183914989+184890955+185443608
4141+185973415+187053344+187406779+186403288+185020563+184279492+184266314
4128+184275272+184065371+184185216+184602717+184917655+185029789+184770688
4114+184448288+184297906+184068842+183791998+183489144+183444816+183824683
4101+183930104+183586643+183401082+183484924+183690702+184039936+184425769
4087+184954234+185735164+186324453+186378199+186084763+185462444+184483236
4074+183951414+184053382+184091170+184361281+184596368+183968140+183405763
4060+183517916+183376799+182873059+182761711+183084264+183329383+183134117
4047+182818430+183235912+184374401+185332778+185462961+184763552+183797369
4033+183291576+183566464+184013869+184112096+184381767+184888231+184955749
4020+184609680+184354740+184366479+184465954+184361415+184181456+184448038
4006+185099667+185437661+185465570+185644551+185362624+184351173+183980915
3993+184759179+185658630+186108625+186268041+186492904+186647563+186154449
3979+185358807+185037750+185188074+185443972+185760042+186226705+186703016
3966+186946139+186733994+186374229+186210880+186047494+186032858+186094334
3952+185674819+185063261+185127537+185159915+184577800+185204033+186927764
3939+187612979+186794933+184637358+182768789+183633867+185502302+185073791
3925+183931140+184709653+184997085+183695746+184457226+188144762+190615703
3912+190331128+188672786+184345207+176922604+171740304+172328922+176764109
3898+183025761+186943819+185189359+181829421+182900143+183852650+181454426
3885+180367688+180067538+180752389+185051656+186131911+182137723+178333948
3871+176263130+177561247+179460161+178650766+180502034+185755803+187367400
3858+182225650+171311582+165201443+175531554+187471862+191987283+189602487
3844+184020947+178618062+174342311+174060345+178765950+183062609+185448038
3831+187598343+188574942+187907585+184540205+176892796+173470078+178108164
3817+181952795+186702345+192753559+193864676+188753060+183756992+183472456
3804+181704646+180058542+184184832+188135977+191568958+196112940+198497124
3790+198538555+197722408+196857138+196953620+196281736+194732651+196705145
3777+201200388+202808724+200205260+197113036+197853705+200959988+204344229
3763+206148982+204488645+204111962+207989413+210045787+207770707+212308494
3750+236718342+266134462+292910252+321240996+337630415+338089310+329210305
3736+319006120+317868436+326621323+336125064+340412362+341281085+343291481
3723+348128094+354994592+361941690+367405111+371032610+376633446+393019068
3709+420125294+450900489+481879159+509983736+530158785+539533090+539334103
3696+532039439+518311277+498172135+479901793+473938621+474104693+470365675
3682+461220319+448705645+432570301+416441211+412023671+411511299+406106803
3669+405632065+408951856+407086663+401028313+394266852+386288872+377739135
3655+372238157+364756322+349836730+339029118+344315381+353879619+358133734
3642+358007367+357088926+355690606+352531171+348166687+342001267+334000845
3628+332554073+336174091+334408947+325190587+312799364+305171406+301554898
3615+296615127+293154794+293229774+295340412+299611982+302886390+301620767
3601+298176220+295633791+292802241+289563913+287364523+283277747+274687518
3588+268239595+269443819+271492923+270081234+266933595+263929203+261484675
3574+259565390+256964439+251102525+243147851+240328059+243192447+245402195
3561+245603734+244863027+243070147+240386160+237973416+236493345+234490065
3547+232004950+231563951+232889075+233190625+231671329+229800246+228622723
3534+227731462+226320444+224333833+222673573+221807535+221590940+221841947
3520+221866537+221282638+220713969+220058715+218580984+217247574+216862739
3507+215817836+213850827+213263552+214287817+214933307+214720720+214436338
3493+214172460+213245426+211863257+211126483+211006369+210748859+210578357
3480+210746308+210615779+210078146+209741033+209721315+209659187+209288277
3466+208585818+207881403+207593471+207584590+207493728+207275867+206991945
3453+206625562+205856122+204701501+204067615+204215829+204491139+204901102
3439+205565467+205993805+205944260+205724940+205587314+205234301+204693368
3426+204470999+204268616+203879599+204066080+204939771+205623912+205763418
3412+205755074+205713911+205380482+204980973+205323590+206325489+206683278
3399+206180670+205754575+205578759+205787587+206585530+207305598+207563894
3385+207568440+207600127+207971018+208555320+209058945+209336480+209304773
3372+209244064+209563951+210175990+210808533+211492386+212023805+212075767
3358+211747996+211365444+211354740+211661546+211781525+211810451+212127231
3345+212492328+212419420+212071758+211873807+211704320+211509572+211399625
3331+211131527+210700753+210348679+210088197+209678099+208766545+207619922
3318+206639679+205541490+204546842+204199141+203877490+202859018+201526126
3304+200321307+198981798+197513063+196846799+197226552+197373768+196823686
3291+196720356+197220394+197177812+196614187+196779741+197811391+198221238
3277+197559693+197186578+197605325+198191143+198474892+198187556+197744544
3264+197882611+198363794+198529770+198603791+198995723+199390130+199626636
3250+199990794+200339510+200390245+200458780+200734243+201018933+201436319
3237+202053593+202620613+202967239+203163445+203457341+203993537+204764799
3223+205541989+206068727+206528332+207129360+207805559+208408429+208678886
3210+208853647+209774582+211403653+212727798+213416850+214175874+215539495
3196+217121917+218499694+219734128+220740170+221544348+222296985+222937853
3183+223592551+224222274+224559156+224741916+225000634+225414203+226128055
3169+227342733+229080045+230731980+231649078+232107858+232650210+233431658
3156+234485749+235617563+236433921+236878468+237122761+237232191+237423007
3142+237837439+238336039+238538709+237971306+237217095+237140082+237252216
3129+237324818+237755515+237974931+237631144+237400929+237372100+236904689
3115+236024035+235470788+235330457+234926766+234100338+233113113+232008460
3102+231046228+230534853+230133752+229643132+229558350+229827676+229941555
3088+230127825+230542142+230775215+230964995+231458742+232023229+232358519
3075+232359613+232227146+232274025+232574233+233274658+234056298+234112806
3061+233592915+233344440+233589098+234058792+234497757+234504067+233842982
3047+232954368+232475506+232280796+231616566+230411901+229256839+228140926
3034+226757223+225379197+224297062+223366537+222488799+221675606+221021369
3020+220730484+220549623+219805368+218404746+216996740+215988434+215129149
3007+214331723+214043274+214228105+214293379+214244620+214482105+215392931
2993+217619673+221026509+224405840+227014061+228767389+229815285+230566272
2980+231058792+231209269+231301033+231269288+230696552+229536023+228164673
2966+227064066+226426325+225758700+224596003+223526318+223160779+223131009
2953+223027660+222832260+222646776+222742875+223143305+223380252+223095562
2939+222533587+222015998+221359344+220587871+220035390+219575652+219099648
2926+218810067+218586547+218147678+217655312+217376607+217107570+216665190
2912+216443569+216791039+217388404+217917981+218503473+219123893+219575268
2899+219759141+219839990+220200273+220828002+221402118+221832279+222153183
2885+222474125+222927649+223364446+223567615+223630549+223685101+223788373
2872+223948978+223903327+223546650+223109699+222718822+222442495+222300246
2858+222147294+221815265+221291615+220655370+220000710+219637972+219688573
2845+219828846+220097979+220858366+221884644+222575921+222842963+223093395
2831+223611732+224234282+224711187+225172307+225618004+225676527+225479016
2818+225622109+226086183+226369453+226485500+226830802+227487360+228233764
2804+228894657+229467834+229966568+230437700+231073676+231757645+232097193
2791+232179404+232267293+232218668+231936894+231638586+231463595+231388270
2777+231416351+231454062+231395578+231293015+231069898+230660779+230308705
2764+230208502+230252485+230172153+229852995+229571394+229570243+229803066
2750+230173055+230418327+230344287+230079181+229822286+229792900+229913570
2737+229806519+229428148+229085895+228988300+229035659+229036752+229063184
2723+229192620+229121016+228743930+228428167+228318354+228309588+228320099
2710+228286244+228253367+228192006+227954867+227678406+227691296+227819082
2696+227637051+227295144+227104060+227009630+226876588+226624430+226289294
2683+226054898+225920974+225638950+225171731+224715177+224259678+223683873
2669+223113612+222794243+222646489+222322765+221861243+221596003+221473166
2656+221326889+221264109+221196494+220926210+220717632+220770112+220740036
2642+220491964+220353839+220494131+220773930+221058619+221276538+221376837
2629+221487801+221673112+221733649+221698892+221834159+222200292+222685216
2615+223156693+223499176+223711897+224001996+224483735+224961331+225408122
2602+226002897+226691622+227347739+227996318+228718956+229423851+229868877
2588+230033319+230162524+230516439+231048856+231496663+231784038+231883091
2575+231855719+231956363+232228949+232532053+232732805+232762075+232749780
2561+232796257+232822573+232786992+232679883+232510474+232434324+232545096
2548+232725458+232920149+233123375+233216980+233241839+233339798+233390226
2534+233345169+233416370+233574578+233680919+233769940+233746692+233654430
2521+233749224+233977635+234227223+234472380+234573887+234538939+234587238
2507+234885105+235303124+235589904+235798942+236091304+236353033+236471325
2494+236623222+236955960+237395002+237857522+238384759+239058370+239748265
2480+240141329+240110850+239794626+239422796+239187575+239070320+238977405
2467+238982872+239049220+239022884+238933825+238834754+238762862+238815457
2453+238962732+239080313+239206315+239461101+239767523+239999157+240188131
2440+240418403+240707274+240891454+240888653+240937796+241094872+241116623
2426+241026318+241070128+241229064+241379600+241566867+241739231+241835252
2413+241963326+242140638+242286992+242410942+242608702+242901620+243249090
2399+243694922+244313405+245266794+247329671+252467815+263480436+282999828
2386+312412227+350840950+395568191+443980590+495003570+549149923+607229756
2372+667937011+727002496+779694252+823354512+854745850+870631990+871891590
2359+861165691+836260639+796248133+744476007+693391033+666720684+677763765
2345+718143786+749417887+748369052+735709520+727099400+722672500+720975872
2332+722421685+722448539+715739750+703593665+688957151+671642769+650935515
2318+626943341+602898188+586657500+580141062+572565698+553226956+523261789
2305+492402695+469385201+453660914+439677103+425201559+409828635+392933634
2291+375576899+359657192+345734225+333845093+324886639+319416639+316465801
2278+314456498+312633292+310985136+309575844+308496664+307604846+306601202
2264+305526414+304509246+303462118+302284249+300981318+299729448+298679903
2251+297682991+296608644+295524592+294609200+294023038+293668586+293337938
2237+292874325+292306270+291872618+291632870+291495935+291512354+291586547
2224+291428608+291205280+291285611+291531036+291730925+291933595+292184794
2210+292514828+292909619+293370258+294023498+294791749+295400469+295829038
2197+296240727+296759870+297428109+298272050+299316570+300323705+301081809
2183+301811353+302699756+303586988+304364638+305199640+306188477+307159993
2170+308062053+309055339+310126502+311218438+312368647+313428685+314343117
2156+315308495+316384817+317589866+318834907+319764243+320502495+321659724
2143+323231098+324690376+325906166+327087967+328350329+329759774+331282466
2129+332737562+334133350+335605518+337131048+338685120+340329345+342088888
2116+343922470+345817050+347862279+350077225+352350329+354729314+357415507
2102+360402464+363582961+367118465+371235855+375903788+381015615+386591209
2089+392485750+398327389+404211840+410677486+417810336+425165997+432320714
2075+439286417+446481185+453944644+460958762+467225037+473597692+480539803
2062+487455213+493991907+500223081+506443973+513020142+519794915+526525993
2048+533199565+539867382+546626004+553230447+559456058+565544062+571865541
2035+578650441+585450879+591574675+597342121+603257531+609009094+614438986
2021+619656618+624277058+628265587+632643421+637721719+642240460+645712589
2008+649117124+652683779+655950591+658941269+661589598+663969082+666005527
1994+666923392+667366328+668952241+671312850+673232058+674573985+675818393
1981+677042930+677871718+678387312+678917177+679275178+678956307+678010591
1967+677551159+678391302+679744354+680485597+680564394+680525801+680407951
1954+680293707+680764340+681563972+682022560+682091843+681943763+683066025
1940+686685006+690884186+693913533+696266470+698768560+701778496+705368630
1927+708796028+711612770+715455943+720918482+726519740+732895388+740433424
1913+747099631+752750991+759297275+766945566+774180921+780647795+786953469
1900+793235895+799136382+804780914+810740710+815998622+820168875+825717807
1886+832516288+837128019+838986998+840458821+842723907+845435535+847567119
1873+847418425+844381482+841239271+841657808+844095296+845205665+844557413
1859+843183875+841465304+839141369+835793842+831217865+826015962+819961947
1846+811821463+804856642+803263439+802755594+799528526+794960528+789701388
1832+781931103+773331802+768785747+766501787+763659265+762231253+761340702
1819+758916717+755678984+752047189+747302799+742630378+740455061+740041051
1805+738689457+735335331+731468910+729799673+729795376+727738446+722942267
1792+721197302+725657577+729705991+729706375+728069976+726750607+726470406
1778+727242877+726273759+721595506+716779916+718171484+724129362+729696093
1765+731665327+729834506+729140525+731241112+733318298+734692372+733309398
1751+728838074+727152494+731057355+735865733+738070590+738217289+739231828
1738+740487976+737376456+734034989+739774890+748835235+755957113+760416008
1724+762645723+763248094+759738446+752283196+750778381+760103352+771597502
1711+779197609+780648946+778195499+777820926+778581504+776418540+777017688
1697+783521697+794039210+806118620+813152725+815497452+814766566+808929914
1684+807813867+821353131+835475739+842447695+844789123+848113326+851076076
1670+852086549+858832320+869732692+875890976+879530751+886640276+893098480
1657+892319257+883209732+879326201+890854110+897104388+897010169+903710749
1643+914653166+920530943+919309322+912641120+910062841+919531365+928526723
1630+930501404+930901373+932401737+932350408+934013200+936770326+935479192
1616+935562208+941933789+946672655+946760198+946117163+947994556+951184490
1603+953831821+956277442+958807768+960604062+961736222+962986308+964390152
1589+965871795+967651517+970370817+974429896+977880158+976387006+968979786
1576+965615916+971922971+975978981+974781451+975792692+979715276+982880350
1562+980562554+966897230+960139644+978722373+996446315+1006881041+1014426443
1549+1020458208+1022805160+1019789316+1012857793+1005832589+1012518130
1537+1028856335+1037832589+1041777193+1048232328+1051844635+1048255806
1526+1043136230+1039057663+1035268504+1036660763+1041261522+1046271381
1514+1052200104+1054440254+1048564242+1036687616+1035786093+1052503015
1503+1064348644+1065271957+1060462965+1058589638+1062165884+1062586032
1491+1056847666+1054625776+1061412518+1069231216+1073267507+1073741823
1479+1071290908+1065838727+1057914839+1050681785+1050166805+1053832589
1468+1052051103+1045484946+1043365332+1043856374+1036407876+1020545981
1456+1013343388+1019594510+1023303030+1018760275+1009343465+1001564280
1445+996934825+991789623+983371316+970920708+957735147+951172367+948196727
1431+942303913+936311969+933974300+932484677+930060463+928647258+932091920
1418+942353017+952750147+959548705+964790044+969414666+971914685+972275601
1404+974044427+978005988+981637476+984830402+988542835+994340357+1002373196
1391+1007670468+1007403080+1006054018+1007978060+1010428822+1011448118
1379+1013519396+1016939122+1019916833+1023599958+1027913074+1030971807
1368+1032079875+1029937012+1026016653+1025183416+1027665174+1029778498
1356+1030036372+1028246599+1025024594+1022290179+1020802474+1019196689
1344+1016152687+1010917102+1004237852+999075156+996469333+994718767+993428246
1331+993107688+993666478+994716312+995558296+995942229+996822960+999741823
1317+1004275678+1008118851+1011231062+1013721797+1014625546+1015845709
1306+1018572605+1020931373+1022781605+1025256305+1027730621+1029069862
1294+1027925196+1024565470+1023916680+1028659765+1035008482+1039955963
1283+1043028507+1043962178+1043481647+1042443400+1041950593+1042590405
1271+1042677565+1040293478+1035115590+1028484524+1022600917+1017013469
1260+1010469640+1005474972+1003067253+1000894238+998737564+997347838+995842717
1246+993799137+991802359+990451456+989451954+987933790+986475777+986615801
1233+988079798+988716005+987506506+985903253+985937319+987380600+987751030
1219+986908585+987222085+988787973+990020106+990123531+989743280+990568769
1205+992604676+993807653+993095718+992049722+992560866+993589906+993016845
1192+991262212+989582004+987537350+985580776+984785748+983789623+981967242
1178+980194426+977471366+973624433+971074849+970762577+970887332+969705992
1165+966895312+963139145+959945989+958487900+958083250+957755173+957435228
1151+955939007+952135807+948173096+946287417+945216331+943781490+942066371
1138+939708754+937525304+935336789+931565431+927563283+925435535+923805121
1124+920739099+917667092+915482107+912763574+909415433+905851079+902191433
1111+899746426+899743203+899772129+896081639+890098288+886152840+885677143
1097+885338707+882336597+880218057+881873023+884445547+885334027+885287762
1084+885266969+885830133+887712206+890441788+892842371+893865657+893638320
1070+894541608+897770594+901014313+902220665+902062151+902050565+903288529
1057+905076844+905934480+906609510+907510956+907422645+907862665+911484792
1043+916020489+917534511+916536007+915235051+914969582+916357237+917635558
1030+916162661+912452990+908999581+906903981+905427555+903228530+900954083
1016+899992791+898826105+895130091+889792615+885572873+882711861+880032918
1003+878077189+877088506+876292710+875651593+876371584+880541531+887875018
989+895672923+904135270+913848778+921392645+924340357+923108301+919361878
976+917136152+917739597+916846744+912900529+908981781+906152994+904183147
962+903377684+902879890+901469371+899193773+897161165+896828177+898624471
949+899712283+897602566+894934595+894118390+893538654+891667629+888797870
935+885589753+882423757+878719917+874146549+870090309+867135155+864286572
922+860844289+856998277+853582080+850337364+846616798+843055897+839597578
908+835803202+832485905+830058928+827977983+825379448+821496147+817284539
895+814396980+812886027+812449076+813250626+814825107+816653933+818272762
881+818630072+818354014+819480649+822207161+825593819+829001729+832477465
868+836563244+841846322+849507196+859505048+870422069+882271918+895339551
854+908618947+922027394+936575444+951578935+965922894+979669010+991458016
841+1000364142+1008466264+1015766912+1019968239+1022565546+1025702386
829+1028172789+1028676184+1027497606+1026612656+1027343235+1027983431
818+1026379104+1023236740+1021625200+1022549050+1023911156+1025112521
806+1027096716+1028188748+1026182380+1021091652+1014194349+1008353401
795+1005183416+1003705071+1001832282+996854187+989411597+983118352+978025323
781+971439448+964658307+960208313+954757436+945897422+938058161+933126332
768+929027740+926229949+923648141+918771554+913609855+910601530+910676644
754+913600418+915616607+914350868+912264169+911840415+911911923+910572451
741+909040706+907722104+905386354+903474511+902776464+901157098+897520316
727+892749840+888446468+886112866+885055130+882801553+879535278+878670890
714+882184067+888118621+892907127+896041281+900312966+906632143+912511992
700+916552503+919279629+921303260+923847780+928106268+934129055+939533053
687+940300076+936978022+934924544+935682821+936382709+936233939+935834967
673+936601530+940023711+942110948+936537771+929934863+928597540+929476276
660+928100590+927027202+929893202+931882920+929334794+926006832+925540879
646+926923009+926701810+924110641+923764687+926985234+928727590+931208888
633+936534472+935961871+929904710+925005643+918245371+914097598+920409947
619+927759623+927676452+928516058+933543104+939330114+946155679+949423719
606+949045386+953797755+954459588+939454409
##END=
