##TITLE=Sample description
##JCAMP-DX=4.24
##DATA TYPE=INFRARED SPECTRUM
##DATE=13/9/2023
##SAMPLING PROCEDURE=Instrument type and / or accessory
##ORIGIN=Default
##XUNITS=1/CM
##YUNITS=ABSORBANCE
##RESOLUTION=4
##FIRSTX=4397.6552
##LASTX=599.8556
##DELTAX=-1.9287962
##MAXY=1.7127883
##MINY=0.32183957
##XFACTOR=1
##YFACTOR=1.5951585e-009
##NPOINTS=1970
##FIRSTY=0.34091297
##XYDATA=(X++(Y..Y))
4398+213717307+214878006+214414182+213425254+213313026+213212025+212507154
4384+212235372+212267825+211502887+211004687+212009551+213394558+213823706
4371+213615690+213946080+214556995+214351650+214115460+214671353+214492202
4357+212501623+210698118+210816399+211671165+212279315+212784876+212304817
4344+210305943+208817974+209350906+209808770+209136407+209245329+210068744
4330+210113863+209717429+209803016+210345420+210975242+211495227+211604354
4317+211537750+212155241+212747548+211844337+210712559+210904471+211196393
4303+210651130+210227979+210776063+211386324+210908675+210324327+210939595
4290+212474197+213266897+212140780+210552577+209836832+209520697+209387487
4276+209302853+209212820+209381901+209420519+209203030+209451140+210158889
4263+210239880+209637185+209216090+208578832+207577181+207032889+206953561
4249+207340393+208124462+208403847+208185518+208267872+208297896+207788149
4236+207663627+208653134+209661118+209438679+208920151+209424162+210494454
4222+211143987+210751233+209960943+210097049+210719323+210817745+210612886
4209+210341366+209843315+209183338+208256999+207092339+206508682+207207762
4195+208411357+208769585+208535973+208470153+208629388+208963925+208997443
4182+208438336+207623907+207410473+207988113+207932811+206879016+205986493
4168+205945932+206599052+207228482+207440272+207174805+206584479+206352511
4155+206763051+207258954+207555602+207841171+207939743+207806029+207890401
4141+208342249+208642391+208105704+207307006+207572192+208401269+208387312
4128+207811671+207585252+207434050+206656334+205654627+205411804+205959141
4114+206633765+207207202+207714930+207809522+207664505+207750484+207497199
4101+206809049+206398042+206285196+206243309+206370933+206871823+207309435
4087+206954626+206407944+206732915+207539516+208017707+208101145+207681899
4074+206818596+205959851+205705594+206454203+207277113+207190480+206641817
4060+206547524+207283951+208123733+208052420+207232891+206688543+206813757
4047+207267959+207648662+207686813+207657555+207445952+206769740+206710402
4033+207564009+207672670+206761575+206603181+207455480+207910149+207587475
4020+206899568+206411811+206686152+207545457+208114840+207723525+207295740
4006+207890158+208492946+208223687+207796575+207771447+208010682+208192281
3993+208256662+208472899+208719141+208771640+208818142+208891080+208866213
3979+208822794+208941057+209227337+209500333+209686957+209610002+209407366
3966+209581641+209864632+210086549+210415836+210360086+209909322+209628050
3952+209583659+209767481+210435771+211020717+210945704+211420906+212690565
3939+213005578+212052653+210840949+210087090+210315359+210909684+210335817
3925+209323125+209679783+210186465+209680866+209654280+210998839+212457532
3912+213076312+212759561+210902696+207667027+205613973+205995348+207604570
3898+210130472+211995053+211392153+210095554+210868992+211450220+210417873
3885+210499704+211111852+211167696+212364602+212445481+210422917+208922468
3871+208256737+208577860+209243759+209070325+210440330+213520388+214785095
3858+212365966+206043887+201760252+207395283+214437629+217181936+215610603
3844+212394645+210242851+209279967+209845912+211683477+212805577+213437379
3831+214856576+216467274+216994302+215257794+210974345+209048410+211446838
3817+213221927+215549603+218971840+220121199+218186669+215629137+214630643
3804+213315641+213061198+216000293+218394629+220292092+222612239+223402006
3790+222891120+222623897+222902666+223503529+223459680+222957052+224109998
3777+226232815+226904001+225998735+225282990+226336038+228221656+230253729
3763+231724118+231168859+231153091+233987337+236125680+235902511+239129661
3750+252662383+270272498+291857250+319070793+335405290+337219109+330287049
3736+321235329+317776062+319854395+323375540+326244537+328747384+332552735
3723+338571533+347107528+357782649+368448467+376406858+382775552+392987560
3709+408255482+426293008+446584636+467961335+485877571+496157472+499684334
3696+498900097+494476527+485349926+473583867+465978435+463213839+459935871
3682+454421999+448047514+439791166+428905674+423322002+421928737+416889077
3669+412677297+411822438+409148417+403865354+397805341+391067360+383827964
3655+378342864+372530027+362855566+354748570+354772260+356327170+354656650
3642+351201381+347888701+344474946+340002164+334671423+328845246+321820779
3628+317533258+317438349+316144627+311519411+305065429+301191326+300607165
3615+299586644+297423528+294931255+292348482+291035049+290418174+288161662
3601+284627794+281557544+279078611+277170013+275848117+273844853+270612939
3588+268551795+269040710+269403253+268238743+266424419+264571216+262375069
3574+260315606+258583749+255793894+251791886+249597028+250109969+250759670
3561+250680921+250194771+249070205+247286895+245748594+244975249+243904565
3547+242252933+241420923+241607043+241422586+240441804+239368934+238679438
3534+238267105+237390424+235800652+234388181+233621020+233230172+232933635
3520+232505814+232028258+231739587+231103338+229832876+229142092+229356498
3507+229073151+227911350+227176567+227570871+227966521+227523435+226864131
3493+226244323+225215881+224354352+224221983+224156724+223900842+223710537
3480+223507938+223342220+223247853+223100836+223002825+222953390+222749671
3466+222299149+221780099+221777277+222362354+222697601+222318467+221604647
3453+221031826+220598007+220271989+220214857+220326768+220468030+220596475
3439+220782053+221141981+221437583+221471082+221460844+221418732+220978131
3426+220311111+220124151+220587003+221266148+221801453+222288313+222824552
3412+222911914+222349463+221780491+221559882+221792373+222676639+223467751
3399+223535739+223672984+224184113+224436726+224478576+224684443+224876430
3385+224943072+225303317+226054896+226679338+226838648+226654135+226552966
3372+226850082+227246180+227489993+227888706+228287102+228196938+228004615
3358+228194435+228489103+228806321+229289463+229389978+228819605+228469112
3345+228939979+229727299+230330012+230535394+230172234+229412677+228424273
3331+227382397+226764794+226686064+226730940+226292712+225140121+223783699
3318+222841404+222436581+221896979+220798588+219927662+219666324+219330460
3304+218329986+216705034+215270760+214769308+214689420+214054049+213120609
3291+213023776+213888723+214676902+214823395+214943602+215377271+215472573
3277+215335795+215859890+216796356+217161571+216994564+217037927+217488168
3264+218190126+218881956+219307200+219563101+219602148+219424585+219272487
3250+218974269+218598031+218804366+219586735+220296202+220824557+221276723
3237+221494791+221521358+221703498+222414946+223528415+224352447+224597343
3223+224724481+225193760+226001276+226775013+227311757+227840803+228514624
3210+229257123+229821125+230197437+230987616+232317919+233637050+234801131
3196+235780362+236477181+237382110+238742082+239928807+240567690+240782302
3183+240675398+240854717+242074828+243706413+244557031+244721460+245039930
3169+246089970+247747188+249230505+250075443+250564470+251189024+252186172
3156+253415382+254305999+254566216+254726834+255097261+255459282+255855417
3142+256440830+257036499+257331223+257246309+256898637+256500951+256326639
3129+256581811+257182002+257501780+257151381+256651704+256403520+256162883
3115+255456423+254175125+253196903+253009867+252784644+252102509+251426260
3102+250984576+250413399+249409357+248618021+248728101+249272467+249529676
3088+249446125+249536271+250092930+250569720+250631523+250678530+250959727
3075+251527503+252287789+252684522+252487286+252384137+252764373+253101937
3061+253159313+253319370+253640530+253662333+253211419+252590565+252016941
3047+251619760+251410398+250940652+249967904+249029233+248390518+247590438
3034+246430635+245289628+244516956+243869142+242936898+241864402+240991290
3020+240501459+240331799+239963613+239039590+237870951+236754960+235812478
3007+235367674+235371298+235296118+235152875+235430448+236100551+237099437
2993+239056106+242043086+245095101+247483365+249086702+250041515+250693420
2980+251372023+251910747+251881191+251326829+250546310+249525154+248209199
2966+246883399+245851126+245154868+244691380+244212068+243656642+243383646
2953+243368382+243225009+243228110+243693036+244133880+244096420+243774774
2939+243511008+243065661+242092932+241185294+240975316+240907870+240344709
2926+239686358+239385281+239200301+238801289+238284891+237921881+237662411
2912+237582355+238038425+238769397+239253286+239579715+239914234+240110032
2899+240212900+240440422+240838948+241261128+241599234+242079835+242772189
2885+243349531+243740061+244053618+244295637+244442317+244340084+243989068
2872+243790692+243932290+244055094+243997998+243916952+243757586+243643451
2858+243725507+243563825+242804641+241660140+240598293+240029527+239968527
2845+240229566+240709812+241334645+242049811+242668461+243084382+243601022
2831+244390790+245168002+245655385+245915452+246238144+246624434+246799923
2818+246830731+247028229+247393743+247607775+247726188+248219045+248988000
2804+249507760+249860252+250485310+251308632+251986862+252428247+252731752
2791+253046505+253328188+253435597+253357053+253086617+252751519+252596488
2777+252657226+252715498+252521644+252033607+251532566+251442290+251758257
2764+252023667+252069889+252056120+252016418+252021182+252161305+252273440
2750+252263893+252260082+252349088+252510266+252607025+252516244+252317084
2737+252192449+252180081+252217970+252290311+252268732+252069964+251896922
2723+251876221+251894699+251812718+251572847+251367670+251481356+251768402
2710+251924797+251977539+251908449+251665963+251469156+251405148+251322476
2696+251215591+251200159+251182671+250989620+250731160+250610860+250550775
2683+250315706+249960543+249674525+249328161+248831231+248372601+248005256
2669+247655286+247382403+247233275+247081831+246781483+246402405+246071100
2656+245710014+245390796+245337064+245443949+245462520+245354551+245236494
2642+245126787+244999537+244960041+245014409+245092597+245151262+245148590
2629+245234793+245465734+245566435+245479634+245542577+245921412+246378585
2615+246692720+246955029+247295788+247663862+248035410+248434834+248787158
2602+249116782+249599102+250239461+250888321+251509829+252109067+252621299
2588+253030718+253382985+253689704+253941457+254229698+254689524+255183166
2575+255493079+255725495+255945189+256008374+255922246+255809083+255766710
2561+255827411+255893866+255892503+255921330+256110944+256402081+256533852
2548+256432385+256367331+256455664+256585828+256709902+256799263+256829903
2534+256837637+256975779+257320424+257640277+257735318+257769657+257984212
2521+258241925+258370614+258530391+258721667+258743209+258640060+258686767
2507+258950664+259175290+259347827+259669025+260034988+260321267+260570666
2494+260701746+260736123+260975284+261535044+262218150+262886366+263498720
2480+263912884+263980330+263745074+263420251+263228227+263234225+263327658
2467+263392600+263389985+263346098+263385239+263479943+263428957+263426155
2453+263695545+263914173+263967588+264083123+264230084+264375886+264596252
2440+264844904+265064615+265224262+265297107+265271436+265195116+265193136
2426+265238442+265276013+265416416+265640836+265847078+266019914+266105968
2413+266084464+266093618+266281158+266553407+266711932+266818481+267070850
2399+267406789+267629210+267773873+268002384+268268673+268379519+268366758
2386+268228093+267469340+265652550+262975521+259933595+256779982+253419230
2372+249763829+246113193+242815627+239818559+237186537+235410252+235064822
2359+236329660+238940234+242857346+248359000+254210324+257309476+256252430
2345+253089700+251139383+251005108+251771596+253109728+254788674+256355355
2332+257789778+259705102+261990536+263937564+265621443+267821682+270803132
2318+273807935+276110426+277935492+279905781+282123937+284221140+286135586
2305+288076187+289826932+291273724+292742132+294196210+295453893+296576908
2291+297653254+298841753+300163126+301394690+302287550+302836624+303370957
2278+304160986+305149933+306077524+306820378+307450742+308055697+308684940
2264+309284496+309871721+310467858+310975194+311416580+311774452+312007933
2251+312372214+312966987+313424309+313657211+313962006+314409314+314884048
2237+315172402+315278596+315541204+315918114+316114360+316253100+316522621
2224+316749358+316872030+317111509+317460357+317733166+318016587+318500252
2210+319068402+319483239+319782129+320206569+320762276+321270042+321780163
2197+322371703+322996911+323601006+324127979+324744368+325674108+326737842
2183+327639184+328404626+329209639+330145731+331123486+331957271+332693343
2170+333584857+334712338+335828834+336813539+337822159+338814561+339797623
2156+340917406+342007745+343002278+344176578+345548545+346886844+348161435
2143+349412560+350648028+351884020+353046438+354214722+355560757+356996096
2129+358433976+359926746+361418321+362887289+364458828+366104612+367723007
2116+369392630+371123123+372872449+374746688+376705039+378680503+380884497
2102+383349306+385848006+388322829+390813757+393436960+396462595+399929447
2089+403411395+406581001+409720079+413270967+417342513+421703159+426042283
2075+430505573+435429100+440583101+445609571+450696388+456179657+462066330
2062+468300692+474835777+481350945+487808495+494619489+501769356+508943473
2048+516093376+523197320+530254033+537471084+544791414+551951369+559106355
2035+566331700+573242051+579735921+586277656+592978496+599364340+605405596
2021+611376790+617249637+622899334+628356261+633630692+638477507+643188309
2008+648203570+653048591+657162510+660307380+662741100+665580017+669162666
1994+672116372+673827733+675438580+677472784+679555339+681434025+683017894
1981+684428758+685587626+686356020+686941246+687516234+687860150+687681018
1967+687327311+687563464+688378491+688921568+688847583+688718671+688967827
1954+689420105+689795857+690058241+690197466+690103229+689880154+690436907
1940+692354006+694525118+696165709+697879985+700185689+702797347+705445847
1927+708161381+710989163+714641762+719493359+724692012+730003361+735495561
1913+740612980+745433115+750981738+757814778+765252774+772306199+778397599
1900+783756851+789225585+795304207+801662550+807566373+813035257+818463337
1886+823389741+827653198+831899168+835908313+839006101+841185135+842276147
1873+842514019+842506770+842230411+842525154+843826386+844520870+843992590
1859+842812797+840861770+838270515+835450281+832543358+829211210+824771012
1846+819584316+815205398+812693956+810613269+807361010+803220038+799089081
1832+794285610+788387467+783936133+781387699+778794052+776534682+774833259
1819+773005167+770866712+768039304+764209366+760582551+759032236+758918121
1805+757976573+755265074+752035384+750270514+749821823+748816754+746722615
1792+745894959+747668198+749321717+749359158+748869738+749008964+750062684
1778+751278424+750799840+748254396+745699385+745838611+748493463+751616959
1765+753222575+753051364+753426743+755423506+757986961+760112935+760194318
1751+758252708+757219538+758818354+761436737+763464364+764664932+766267559
1738+767931466+766801818+765170942+769022477+775160286+780414091+784031715
1724+785904049+786780730+785967422+783912294+785810560+792699051+799273594
1711+803753325+805750387+805563557+806031529+807490072+807626831+808909979
1697+814103774+822634276+831855226+838095343+841882459+843591504+842491450
1684+844008209+852451200+860763709+865375043+867468584+870776743+875282257
1670+879786426+886631946+893924962+898643761+901899607+905792917+910129911
1657+912607574+910325933+907491724+913505254+919410647+921304877+925413415
1643+932855820+938034220+937937891+932865759+929856155+936127883+943033862
1630+945595299+947298590+949893358+951799471+954485486+956890509+955162557
1616+953668367+958972168+966094944+970537907+972069987+972710589+974033569
1603+975870031+977907448+979306879+979161450+978952500+980654296+983491569
1589+986033725+987954635+989577140+991465018+993653244+994824742+992680384
1576+989703288+990870003+992203146+992914071+996878451+1000710256+1001826303
1562+1001308261+996517122+992912202+1002006183+1013082204+1021065145+1027646862
1549+1034091222+1038039758+1036980657+1030293045+1021097803+1025385100
1537+1041493346+1051381353+1053051762+1054325343+1056544359+1056047989
1526+1053090099+1048970277+1046168800+1048259127+1052456148+1057041326
1514+1062041342+1064207821+1059659709+1048949352+1046343075+1058736695
1503+1068638902+1071527740+1070723923+1071047587+1073741823+1072955568
1491+1067213166+1063741792+1065854390+1069077504+1070511385+1069192740
1479+1067014304+1065449044+1062058904+1054284689+1047759619+1047688997
1468+1048291113+1046100645+1043831783+1041428852+1035327213+1027231128
1456+1024888207+1026003058+1022847128+1015260865+1008083385+1005088801
1445+1002534687+996573021+989416093+981344146+968647638+956344593+949746883
1431+944009338+937519093+934205255+934699980+934535794+931598829+932000662
1418+941926708+955055467+964307132+968694494+970660019+972474212+973858845
1404+975893124+978826278+981652939+985783747+990566815+995187342+1001822268
1391+1008308178+1010412107+1009200029+1008902223+1010111460+1011884700
1379+1013784161+1015928968+1019524770+1024559760+1028576602+1030699811
1368+1032296609+1032134590+1028535051+1025937817+1026953499+1026945204
1356+1024441235+1022523240+1023505068+1025510500+1024093508+1019951564
1344+1015819710+1010021034+1002626682+996909764+993526499+991721648+991118337
1331+990472802+989999077+991180140+994044167+998132154+1001533653+1002389110
1317+1002944517+1005472475+1009696698+1014656657+1018600934+1020755531
1306+1021983376+1022972827+1024305597+1026044908+1027221039+1027538202
1294+1028001764+1029759609+1032525064+1034389776+1035433108+1038791039
1283+1045060600+1050487559+1052442472+1051959778+1051060380+1050291836
1271+1048915648+1047095551+1044786110+1040650295+1035375864+1030804660
1260+1026902681+1023688162+1021014925+1017842778+1014508015+1011692190
1248+1008985698+1006325689+1004229309+1002697005+1000889464+998320329+996069104
1234+995366026+995685056+995919640+995717341+995234273+994817045+994665638
1221+995401673+997007737+998461797+999471201+999650931+999266510+999732613
1207+1000616767+999782684+997469506+996672340+997648638+998216601+998381235
1194+998297610+997216688+995574677+993852554+992288714+990986510+989240398
1180+987548093+986975422+987167184+987333538+985626286+981309321+977224174
1167+975630516+975383452+974021088+971558671+970324323+970484549+969859790
1153+967323014+963555104+960428394+959273861+957827274+953723444+949996712
1140+949139985+948015643+944586119+941182976+939202355+937693667+936011600
1126+934210411+931766901+928263916+925221279+923977292+923449310+922281026
1113+919163732+913264094+907055364+902861856+899898959+897504099+895790944
1099+895168128+895406896+895058346+894163656+893667062+893584857+892708774
1086+890987548+891567094+895354509+899587924+901482603+900112542+898745471
1072+900220605+903187463+906161794+909053846+911976388+913998410+913808740
1059+911859582+910115189+910070873+911043135+912602044+915730248+918663402
1045+919325452+919253859+919099612+918885879+919743204+919667426+916649077
1032+912888566+910101363+908066338+907333442+908971267+912249533+914235759
1018+913400629+911029908+908011335+904645558+901652394+899431735+898598473
1005+898745247+898029539+897013409+897947110+899999249+901059620+901780709
991+903585112+906678640+910804740+915567631+920478716+924788432+928119758
978+930454010+931050221+929391546+926028609+921908039+918699423+917730448
964+917809365+917368148+916878579+916732926+916411056+916252923+915358382
951+911374048+907153637+907413554+910115787+910955699+909409271+907188910
937+905358351+902990021+899809355+897515981+896376767+894661445+891423908
924+887251848+883526610+880993944+878760281+875774292+872102413+868738429
910+866550726+864859617+862430904+859574051+857096538+854676792+851904835
897+848922208+846558960+846574579+848368370+848513723+847284906+847191043
883+847140449+846598942+846839728+848062716+850897822+855023997+858618752
870+861356333+865118937+871589826+878753032+884465990+891676203+902659332
856+915011999+926524455+936823563+946618978+957464077+969858968+982718317
843+993475158+1001349215+1007983020+1014011421+1020570569+1026005076+1025464465
829+1021309220+1020397639+1022806474+1024967199+1025410434+1023793608
818+1022369442+1022500447+1022837563+1023414119+1023795477+1024645777
806+1026299370+1024509241+1019780428+1017645187+1016855644+1013886245
795+1011520307+1012688965+1013449213+1006825497+995564140+987685824+981190946
781+972793168+965609560+960145310+954797866+949591740+944521327+939946162
768+936312322+933089581+930615730+929269135+927741166+925612426+923367778
754+921929188+922204500+922351722+920736466+918507511+915947419+912953359
741+911346846+911412012+911964655+912424182+910596238+905806892+900831090
727+898267411+898075424+896195841+890954218+887006951+887249681+889548286
714+891978269+895358022+899453930+901930920+903503654+906687085+911038054
700+914869934+916834412+917565665+920515783+924441825+923989996+920982633
687+920794608+922782552+924451540+926486192+929440794+931009418+929684271
673+926338074+918075561+905466040+905628956+917971758+924310970+926421176
660+928303598+930011522+932149678+931892600+930573432+933590958+936146716
646+928856241+915801468+910135665+913433810+916813712+917830365+919227927
633+923005328+925765552+921694081+917898296+918056952+914087565+909686153
619+913883696+920603593+916509030+907589249+911713929+923577177+922138437
606+913693130+916166085+920982110+917060477
##END=
