##TITLE=Sample description
##JCAMP-DX=4.24
##DATA TYPE=INFRARED SPECTRUM
##DATE=13/9/2023
##SAMPLING PROCEDURE=Instrument type and / or accessory
##ORIGIN=Default
##XUNITS=1/CM
##YUNITS=ABSORBANCE
##RESOLUTION=4
##FIRSTX=4397.6552
##LASTX=599.8556
##DELTAX=-1.9287962
##MAXY=1.7987889
##MINY=0.42601037
##XFACTOR=1
##YFACTOR=1.6752527e-009
##NPOINTS=1970
##FIRSTY=0.44156402
##XYDATA=(X++(Y..Y))
4398+263580545+262285309+260622786+258909971+259037026+261323257+262416526
4384+261155784+260363340+260473423+260085873+259603949+259381364+259729883
4371+260627144+260960684+260965007+261304204+261162420+260100070+259606120
4357+259990823+259323209+258414900+258960725+259835394+259862701+258676054
4344+257678067+258693523+260229241+260399329+259932490+259947149+260290171
4330+260583631+260760905+260054048+258442937+257717827+258544837+259580520
4317+259769963+259060455+257486489+255399823+254607183+256377209+258846942
4303+259638924+258978568+258489902+258586109+258548145+258427211+258280339
4290+257746219+257832073+259253651+260799829+261469489+260964616+259393087
4276+257639748+256705626+257130214+257948684+257972113+257917268+258389514
4263+258651611+258035765+257048612+256880232+257629465+258443399+258748351
4249+258454678+258140369+258140262+257807612+257264117+257567895+258441478
4236+258363808+257410367+257368579+258258084+258613042+258227379+257980670
4222+258435857+258809690+258453380+258369750+258886862+258833119+257878433
4209+256627369+255682822+255804113+256458882+256564980+256935807+258205657
4195+259056754+258410737+257138361+256579301+256688334+256421435+255663574
4182+255853675+256916488+257029542+256007556+254926865+254540827+254922951
4168+255790059+256718061+256400372+254949084+254757435+256074997+256942176
4155+256721441+255708172+254727744+254755852+255026291+254853055+255025740
4141+255398969+255479218+255925830+256634787+256629254+256283742+256305606
4128+256083696+255406120+255042871+255430119+256275452+256899819+257148377
4114+256930026+256164479+255391853+254606240+254296182+255381766+256633720
4101+256809589+256669548+256494728+255537249+254575357+255204776+256498695
4087+256742451+256420563+256441163+256909745+257364238+256915918+255850419
4074+255579339+256265899+256549361+255945452+255386587+255183179+255130913
4060+255608532+256480728+256886565+256824532+257043506+257377082+256954326
4047+256350080+256832876+257552098+257354115+256750972+255985123+255530951
4033+256162523+256905778+256789006+256410512+256557686+257406488+258212489
4020+258251786+257953470+257657128+257188955+256853974+256758871+256554609
4006+256317560+256390694+257035430+257843440+257952438+257584422+257380320
3993+257564159+258350786+259136310+259214016+258942188+258726683+258681942
3979+258675289+258440464+258426126+258991199+259348382+258880974+258136099
3966+257959269+258765038+260035066+260421851+259803354+259478816+259875510
3952+260212786+259905681+259589842+259858538+260214155+260650716+261373282
3939+262012094+262054042+261221126+260510586+261363978+263145514+263636298
3925+262134719+260530457+259912228+259551487+259541436+260660144+261945187
3912+262394645+262644039+262571581+261660319+261242705+261868157+262062724
3898+261888082+261950043+261862571+262002612+262807064+262965091+262427075
3885+262561744+262443086+261907721+262849013+263849028+263530146+262882973
3871+262086775+261786075+262160834+262092148+262666668+264215461+264768864
3858+263503622+260587544+259013116+262186024+265663030+267312371+267074967
3844+265173937+262845561+261402279+261847290+263390586+264116461+264529076
3831+265558427+266511975+266788321+265980097+263662378+262809413+264978943
3817+266374585+267186313+268957905+269962990+268623867+265972857+264922034
3804+264817021+265092816+266588453+267455508+268179959+269898200+271179311
3790+271737055+272132254+272493262+273281881+273972354+274125293+274933019
3777+276302367+276901401+276698882+276495670+276766821+277582730+279318636
3763+280919482+281035115+281528336+283723022+285563513+286209139+288523033
3750+295793330+304998207+318405415+339786200+358062924+368195644+371342686
3736+369269753+367174762+366834693+367051087+367187535+368245455+371189943
3723+375120908+380618331+388762228+398175816+407025005+415095573+423277932
3709+433005864+444875503+458132707+473005790+489788673+504420527+512502872
3696+515282662+514883282+510452639+503511827+498293845+495351563+492373986
3682+487739152+481500892+474334435+466188296+461079152+458741259+453677906
3669+448540689+445741117+441961151+436658881+431169001+425614971+419207495
3655+413304145+407638004+399384558+390875152+387417003+386164036+383491198
3642+379575496+375669793+372101134+368455303+364673274+360710252+355120678
3628+350532382+349493247+348076934+344434910+339513875+335932550+334177378
3615+332091210+329655082+327254782+324568210+322909921+322136565+320391569
3601+317906412+315623027+313550059+312354197+312289584+311838330+309669546
3588+306953550+305839449+305390969+304214427+302553113+301146336+299991781
3574+298557180+296790765+294785950+292443253+291016943+291159350+291259559
3561+290662962+289564214+288025330+286638583+285998081+285605017+284565847
3547+283335330+282911702+283029239+283059429+282697140+281579339+280005000
3534+279060845+279060685+278916001+277733196+276364898+275726352+275416366
3520+275085441+274896105+275010529+275057422+274409591+273524658+273190780
3507+272951828+272318424+272014433+272245984+272100357+271680626+271580221
3493+271419028+270844739+270094350+269604651+269387741+268979146+268648897
3480+268808222+269030469+269033031+268799221+268543013+268779634+269354118
3466+269540928+269114668+268439014+267952037+267891036+268067368+268082116
3453+267970147+267900411+267687521+267372501+267171512+267027486+267196186
3439+267954243+268893880+269421648+269398379+269096879+268713527+268373174
3426+268183037+268113942+268318043+268848320+269265187+269426576+269861517
3412+270611515+270924099+270588691+270367244+270845931+271444289+271490720
3399+271295780+271157376+271328371+272301488+273408526+273420410+272801362
3385+272742585+273163206+273412013+273304207+273088933+273335606+274254500
3372+275176098+275519226+275457087+275240301+275076529+275193870+275645623
3358+276397506+277035162+277226829+277263814+277183955+276551459+275421187
3345+274747756+275103284+275645996+275392403+274663344+274396106+274499536
3331+274264818+273545596+272501427+271570650+271301918+271420558+270862689
3318+269588391+268776503+268128031+266450511+264518883+263616498+263066172
3304+261805413+260319844+259328528+258788752+258664473+259032525+259704977
3291+260510906+261449244+262231762+262551355+262577150+262768959+263344510
3277+263921645+264101927+264233393+264727325+264889265+264500168+264859681
3264+266142108+267198766+267555948+267456361+267609940+268308953+268832416
3250+268859546+268782356+268546375+268174462+268253911+268727848+269109563
3237+269634912+270683012+271848312+272687472+273456149+274114068+274272183
3223+274308349+274749446+275387298+275803951+275977615+276034151+275984748
3210+276228201+277245917+278772313+280267648+281318364+281868601+282397294
3196+283150227+284087320+285033681+285740664+286476430+287125827+287244342
3183+287511384+288509727+289746185+290788558+291723818+292743473+293523144
3169+293689052+293737208+294152617+294794026+295633507+296830312+298114340
3156+298858147+299091620+299333205+299615172+299798762+299915463+300240660
3142+300969648+301694651+301992843+301816831+301444243+301254213+301412221
3129+301960217+302487611+302480389+302091505+301581046+300990533+300457837
3115+299941151+299395967+299094715+298685871+297760698+297052452+296783027
3102+296210819+295355986+294703494+294357448+294393935+294737401+295032266
3088+295141994+295145302+295305730+295824711+296270895+296437834+296737111
3075+297145422+297339650+297322305+297407429+297928882+298625849+298725329
3061+298209248+298139139+298765854+299099732+298976058+298841603+298576785
3047+298208021+297789090+297054801+296170508+295420207+294542835+293365189
3034+292275105+291511355+290784075+289962402+289119862+288179140+287387994
3020+287004661+286736854+286396892+286023307+285492461+284806666+284338387
3007+284292133+284211635+283757231+283184740+282663873+282479145+283444132
2993+285842136+288768390+291323709+293409023+295063968+296225816+297064069
2980+297745505+298190356+298317837+298075523+297276906+295887562+294385182
2966+293335694+292809811+292505126+292064581+291445533+291011392+290945552
2953+290963182+290900313+291025606+291259381+291190731+290955034+290726649
2939+290251770+289500865+288747843+288146602+287738239+287568044+287614244
2926+287738150+287622481+286951469+285756159+284538628+283868275+283773438
2912+284208646+285164258+285973158+286184358+286179377+286259911+286464582
2899+286839109+287213939+287472567+287905907+288672023+289420348+289722205
2885+289760809+290138734+290773917+291027065+290835612+290721063+290868879
2872+290979246+291000291+291074226+291024966+290762442+290580880+290526604
2858+290280963+289880231+289551388+289131514+288418252+287691007+287538602
2845+287921313+288250637+288609225+289276536+289959449+290462596+290930645
2831+291454126+291906857+292288394+292703624+292891217+292839644+293007473
2818+293393528+293730164+294093946+294521968+294961001+295486474+295994638
2804+296343851+296608972+297040071+297870887+298796097+299345195+299564187
2791+299672526+299724472+299699780+299663987+299756174+299911407+299914823
2777+299832314+299794671+299727497+299736285+299849392+299806519+299639544
2764+299628941+299817619+300042268+300143777+300034156+299974916+300368995
2750+300953708+301116840+300855082+300567849+300343342+300176047+300268590
2737+300575036+300813169+300916812+301064076+301347040+301510065+301389237
2723+301199990+301143027+301208422+301138544+300807939+300606524+300758626
2710+301029599+301321743+301619009+301800500+301961355+302142917+302062863
2696+301778726+301634059+301608727+301564252+301491599+301413289+301308009
2683+301104921+300849389+300583539+300248238+299911727+299691953+299452432
2669+299053834+298659934+298380581+298162106+297981593+297767725+297494403
2656+297331058+297323319+297233036+297001022+296752642+296490955+296284558
2642+296220355+296270113+296422500+296527281+296348174+296028083+295861696
2629+295825920+295828731+295877884+295951018+296066989+296332750+296704805
2615+296959608+297047863+297126902+297381990+297876972+298511781+299182739
2602+299754110+300143848+300448586+300775597+301203761+301711196+302124060
2588+302435559+302838141+303365358+303865392+304188845+304392716+304660487
2575+304963838+305213570+305458962+305717945+305891288+305947468+305950030
2561+305834219+305637749+305497494+305320664+305194642+305431850+305892356
2548+306139028+306082670+305920712+305900610+306209155+306685351+306983685
2534+307134792+307397866+307731211+308017910+308276609+308427323+308408964
2521+308347697+308491189+308841433+309111980+309326560+309637346+309887364
2507+310028116+310256216+310617384+311006410+311312109+311447702+311512315
2494+311702701+312138905+312813528+313486301+313928483+314230268+314558026
2480+314826402+314899696+314849102+314834372+314859883+314736386+314519067
2467+314550839+314861875+315146440+315181557+315006755+314894928+315025932
2453+315170456+315127761+315121534+315214824+315238057+315371124+315795410
2440+316296084+316694361+316959429+316971988+316779432+316706707+316797364
2426+316749260+316602353+316742038+317229975+317659633+317702933+317549479
2413+317561185+317803232+318127290+318469280+318837030+319045063+319063351
2399+319252100+319660304+320012718+320235268+320282411+320147778+319932451
2386+319586227+318928825+317608399+315362301+312435140+309232381+305968567
2372+302610218+299094786+295622495+292450743+290088158+289040270+289059145
2359+289851305+291882538+295482169+300529921+305962483+309163606+308572701
2345+305557588+303137791+302522230+303361693+305011479+306509446+307578575
2332+308799343+310741876+313087988+315102499+316867491+318986037+321573698
2318+324289267+326663166+328492415+330188063+332074096+333982260+335874733
2305+337780086+339453461+340774492+341964555+343312947+344881540+346394522
2291+347598781+348617102+349745363+351036792+352127980+352790328+353294311
2278+353888347+354666648+355674757+356735773+357619141+358333257+359029299
2264+359730677+360418927+361157878+361889001+362525482+363233834+364050846
2251+364702200+365215897+365776808+366327365+366885963+367477258+367970533
2237+368306083+368578124+368922035+369355713+369778327+370052289+370198094
2224+370518345+371085304+371541540+371787714+372112555+372620168+373147349
2210+373622976+374044237+374411097+374874271+375375017+375795815+376409099
2197+377235077+377968548+378597309+379222619+379857144+380592038+381467258
2183+382277190+382958715+383759823+384705455+385636783+386525417+387329371
2170+388156381+389188008+390261370+391216324+392180706+393265454+394426199
2156+395508065+396419078+397334396+398486602+399763835+400884020+401903977
2143+403080876+404459830+405942072+407373115+408745452+410264447+411745515
2129+412921986+414201781+415936743+417780046+419419549+421045247+422740468
2116+424391036+426141263+428054159+429905538+431663414+433578266+435672653
2102+437751457+439974890+442519536+445142065+447747587+450529085+453422480
2089+456172491+458846788+461771565+465129842+468817123+472552151+476315964
2075+480378395+484759334+489292731+493858185+498376318+503035631+508067959
2062+513422352+519065545+525008637+531043311+536918232+542799523+549049915
2048+555464364+561695330+567942520+574514444+581384026+588229165+594932626
2035+601561157+607905337+613911369+619851650+625923647+632147568+638562195
2021+645084129+651180391+656654581+661812042+666847893+672158203+677513131
2008+681902288+685654288+689951011+694704858+699203031+703204301+706482738
1994+708967681+711371503+714295426+717358464+720175506+722639671+724586296
1981+726267997+728006055+729650112+730842951+731506722+732237738+733279150
1967+734063820+734683330+735592955+736415269+736629386+736514108+736895378
1954+737952730+738903770+739044380+738649447+738541357+738876018+739634145
1940+741103650+742870172+744427130+745929225+747533363+749202325+750971338
1927+752877687+754985772+757376287+760146507+763771915+768623819+773812235
1913+778154783+781710740+785512979+790227689+795216147+799824973+804682499
1900+810461249+816940061+823150249+828079930+832551561+838024185+843913303
1886+848725145+852621384+856878400+861763464+866057340+868786928+870470407
1873+872029643+873587882+875306728+877525892+879539976+880549295+880961946
1859+881249784+880904592+879674538+878133874+876959466+875675403+873286311
1846+869927677+866740324+865171197+864344045+862429228+859219957+855505529
1832+851804408+848193232+845096748+842292301+839448859+837677641+836379487
1819+833841246+830622654+828016670+825560617+822648293+820154384+818413764
1805+816597146+814407513+812427799+811060692+809791358+808565075+807557108
1792+806468518+806019220+806470012+806770517+806357510+805542882+805187372
1778+805832286+806612473+805929631+803795573+803375308+805528650+808040705
1765+809103251+808540739+808542376+810108016+811941641+813581713+814712572
1751+814608537+813777969+814088009+815654503+817650015+819219568+820087922
1738+821040100+821394828+821259839+823096808+826703146+831106535+834676226
1724+836530345+837965835+838731577+837557240+837454984+841681544+847059954
1711+851413888+854305362+855371822+856075584+857575117+859078422+861619723
1697+865093563+869036767+874179427+878673473+882010474+884458343+885137129
1684+887247135+894425583+901020171+904040158+906484043+911100482+914589478
1670+916660063+921411348+927423500+931993188+936244013+940734856+944320914
1657+946721391+946705736+944427581+946374847+950638836+955004013+959618531
1643+963037293+966181880+969572677+970286686+968248764+969819883+973647597
1630+976436744+979235854+981485403+981893358+983876132+988141829+990351173
1616+990484952+993453918+997425515+998193890+996742033+996654081+998748218
1603+1001393910+1003580697+1006196714+1009042505+1010829947+1011937751
1591+1013181823+1013985849+1014051101+1014652822+1016245502+1018395856
1580+1020480031+1020851552+1020879589+1022999273+1023590462+1021928188
1568+1022482374+1025219291+1027400456+1026993000+1019473487+1010528660
1557+1016334309+1027865409+1037863390+1044066959+1047220654+1049170909
1545+1049936651+1048754842+1044946627+1046340773+1055104430+1060989919
1533+1061657390+1061057947+1060529307+1059737734+1059947155+1059790819
1522+1057994979+1058722295+1062324790+1065395443+1067426178+1067662141
1510+1064844174+1058193940+1054136312+1061222609+1069225718+1072886705
1499+1073741823+1073012586+1071132352+1068281651+1065144252+1064400356
1487+1067153568+1070982064+1073540941+1073222007+1069849355+1065503533
1476+1061906802+1058261754+1055633141+1056062657+1055618767+1051101025
1464+1046379555+1044417204+1040910346+1033346288+1027963324+1027966597
1452+1025996276+1019761326+1011139489+1002815880+997925905+996000841+993596236
1439+987419494+975618416+964429590+958519694+952650073+946706590+945878655
1425+948705731+949807201+947289311+944797964+948111411+956476577+966606486
1412+974963113+977186120+975040107+974209112+978059383+984582456+989325701
1398+991425247+993992663+999784436+1008411182+1016066182+1018412578+1015831570
1385+1013785536+1014080917+1015073443+1015752513+1016928842+1020925273
1373+1027417677+1032152240+1033681447+1033759722+1033307222+1032515507
1362+1031478649+1031133813+1032519776+1033696177+1031914000+1027982252
1350+1025176098+1024901637+1024961624+1022741749+1017355084+1010346066
1339+1005064361+1002358683+1001148838+1000156668+998338912+997042111+997108004
1325+998473616+1002155453+1006762286+1009231788+1009714459+1010902814
1314+1014507871+1019566635+1023613517+1026106928+1027960691+1029457592
1302+1030542482+1030602896+1030297197+1031299471+1032883257+1034344649
1290+1036877624+1041169507+1046263851+1050202216+1054136454+1060550441
1279+1066745685+1069923574+1071467084+1071062616+1067950620+1063331690
1267+1058516432+1055830607+1054851389+1052164496+1048580431+1045667681
1256+1042491570+1040483677+1040303929+1039409532+1037966784+1037352753
1244+1036142979+1034162339+1032798435+1032015259+1031218777+1029307517
1233+1025555090+1021912391+1019874753+1017758342+1014755006+1012404553
1221+1012086046+1014078498+1016209069+1015478195+1012797351+1011732955
1209+1013403839+1015927706+1017303494+1017609122+1017664697+1016274891
1198+1013127386+1010820839+1011217693+1013597107+1014796136+1012399715
1186+1008765127+1007463700+1007670346+1006983733+1006366500+1006430685
1175+1005409981+1002920910+1000243411+999111485+999343677+998397333+996005039
1161+993876318+992376927+991547071+990744682+989202952+988202527+987217900
1148+984385559+980953348+978022095+975308519+973247541+972411352+971718832
1134+968853900+964468870+960787104+958175071+956482768+955831948+956498992
1121+956629853+953277909+947761949+943209837+939631465+935664138+931943377
1107+929636047+927448762+924004880+920771842+919402815+919708158+920432699
1094+920047444+918777541+917272030+914811281+912305061+911455565+913016011
1080+916567485+918618785+917091215+915699701+917676000+921231316+923554159
1067+924105285+923517797+923111408+923934433+924866758+925071838+926646444
1053+929814158+931330840+931546096+933103339+933894272+932187239+931959886
1040+934952975+936801330+935456354+933276398+931207308+930198060+931674040
1026+933270278+932711182+932508664+934677447+936648765+934552279+929289218
1013+926126556+926411619+926930440+927049702+927371839+925815876+922931945
999+922875018+925261263+926079165+926708352+930412462+934343143+935938669
986+937476984+939807726+943375353+948814817+952737741+952805912+951309794
972+950183703+949918422+950160647+949348439+947576864+947031075+947306104
959+946076548+943829632+942623060+942749937+943008030+942697279+942302204
945+942063039+941336435+940071726+938867787+938196829+938591975+939193482
932+938461398+936064692+932032397+927923890+925588168+924367649+923396186
918+922883841+922433191+920346596+916371940+913263858+912325697+911858396
905+910569921+909101057+907882601+905816358+904076876+904713038+905029268
891+902244746+898813459+897924541+899336834+901088056+902942175+905435230
878+907034030+906792090+906774158+908253197+910418352+912930193+915860022
864+919667597+925176940+931495502+937650612+945353858+955044573+962940161
851+968586414+977248953+989155916+999328591+1007243534+1015263224+1023648030
837+1031123993+1036793870+1040567502+1041099345+1037951271+1035270498
826+1035233211+1035670768+1040083977+1050621912+1056466840+1050968598
814+1040595610+1032253144+1030029568+1033497430+1037399860+1037747116
802+1035077302+1030860562+1025302832+1020963272+1020473485+1022034499
791+1021619073+1017136270+1010168240+1003884474+1000177091+997663827+993950466
777+990705403+989012103+984684000+977394758+972028587+967872974+962866156
764+959882602+959530080+959809095+959569289+957209799+953319822+951663240
750+952825409+951869602+946966818+942325971+940763676+941301851+941172057
737+939383761+937608415+936199182+933617819+929288862+924968444+921719894
723+918015784+913561587+910557752+910381776+912117913+914582932+918152124
710+923458023+930332053+937993670+944706667+947685382+944814828+939920940
696+939462391+942071365+943076485+943275730+945241996+947558577+947253447
683+946898435+949996768+954718879+957728477+956796294+951881200+943569759
669+937107385+945045597+958207946+962879676+960717795+951797802+941951391
656+940807225+946255086+949984813+949812182+946443017+943217949+942536317
642+939370596+934725124+937359216+944741748+949848686+953397456+954235780
629+948415615+933188446+917593384+920259996+941911968+959591490+953577488
615+939031524+936092729+941037424+947936644+948819016+940358212+940426382
602+951460864+952914073
##END=
