##TITLE=Sample description
##JCAMP-DX=4.24
##DATA TYPE=INFRARED SPECTRUM
##DATE=13/9/2023
##SAMPLING PROCEDURE=Instrument type and / or accessory
##ORIGIN=Default
##XUNITS=1/CM
##YUNITS=ABSORBANCE
##RESOLUTION=4
##FIRSTX=4397.6552
##LASTX=599.8556
##DELTAX=-1.9287962
##MAXY=1.7507157
##MINY=0.4016149
##XFACTOR=1
##YFACTOR=1.6304811e-009
##NPOINTS=1970
##FIRSTY=0.42945254
##XYDATA=(X++(Y..Y))
4398+263390077+263125755+261677059+259801492+258565737+258657859+259369760
4384+260079394+260113959+259184400+258736894+259927228+261896489+262934656
4371+262558234+261789506+260935035+259958740+259720940+260171572+260541212
4357+260201530+259075279+258490559+259028798+260082173+260697656+259815822
4344+258880177+259484931+259621122+257997668+257033637+258266157+259524211
4330+258858902+258007410+258887964+259907488+259498000+259039710+259587783
4317+260193140+259793870+258365261+256849209+256619269+257887103+258979812
4303+258864641+258287487+257636873+256754967+256258201+256463301+256520877
4290+256201666+256142170+256688160+258079645+259467055+259132088+257722799
4276+257117113+256893278+256268820+255634200+254969256+254509138+255013380
4263+256154819+256565531+256218299+256766317+258087944+257860764+255938971
4249+255246464+256558987+257831007+258461167+258373103+257479626+257083902
4236+257378511+257318010+256654564+255834877+255780371+256737895+257430000
4222+257278053+257151714+256974269+256321791+255873755+255945606+256514571
4209+257231462+257050745+256350122+256406657+256956155+256902088+256130655
4195+255537599+255499343+255881504+256484686+256671600+256603001+256745261
4182+256569168+256037838+255655823+255480827+255617384+255962075+256189931
4168+256643049+256915724+255565145+253349585+252500835+253192885+254223559
4155+254848674+254638292+253994971+253993143+254192321+253636114+253150553
4141+253600198+254614274+255238056+254471046+252978957+252562944+252970311
4128+252808805+252485444+253057791+254221822+254827727+254582964+254458946
4114+254622646+254161413+253166290+252308785+251973873+252582246+253494092
4101+253536699+252920631+252286833+251944262+252166343+252501090+252724158
4087+253500636+254559567+254868305+254638603+254889727+255460666+255486567
4074+255061269+254429828+253716191+253537686+253829461+253756769+253149292
4060+252592500+252172119+251683158+251287781+250876045+250618651+250685860
4047+250836382+251403446+252147809+252293340+251876176+251335761+251514102
4033+252724962+253640592+253224671+252436897+252316389+252246054+251685296
4020+251259797+251407394+252224084+253481773+254160645+254052657+254064922
4006+254212135+253661996+252576123+252214177+252745178+253365669+254148727
3993+254981904+255229355+255356023+255925500+256405651+256372586+256187500
3979+256406254+256794027+256695179+256335591+255932958+255306307+255002595
3966+255604809+256714206+257492804+257493316+256937164+256368875+255851656
3952+255330470+255434748+256435920+257292676+256987850+256221334+256357397
3939+256880173+256511592+255420838+254625625+254826101+255755147+256187025
3925+256086970+256440051+256707827+256641093+257479717+259329585+260456146
3912+260014306+259225947+258469593+256400753+253822443+253251558+254906781
3898+257902621+260038634+259077985+256883207+257570871+258837735+257527259
3885+256170995+255707423+255679932+257519417+258352540+256961822+255401938
3871+253967407+254651909+256511172+256339904+256835629+259208126+260154847
3858+258123806+252023425+246316813+251064750+258861753+262769933+262224583
3844+259064221+255739775+253335017+252905478+254729281+256571874+258004083
3831+259834759+260989541+260904273+259435434+255468106+253216775+255538404
3817+257579114+260629350+265131646+266483541+263397589+259923335+259737281
3804+259094344+258057182+260559034+263254654+265486518+268807582+271292948
3790+271909692+271033506+269622755+269588410+270394280+270517804+271809436
3777+275011308+277098829+275863860+273348226+274101143+277410967+280479042
3763+282533187+282666234+283186360+287057252+291154575+292222280+295288839
3750+308989713+327502534+351903983+387949218+416973379+430610042+432998569
3736+428251564+424187873+424740936+426740758+426257555+424058463+423616093
3723+425820778+429805105+434977773+440895244+446633368+452900208+464962676
3709+485161299+510464633+540124146+574976323+609314115+631237948+639062643
3696+639079459+632973942+618031848+596877126+580339195+571843250+564035335
3682+553140372+540593969+527529598+514059194+506267035+502999361+497301193
3669+492923519+491026128+486940649+481115228+475170341+467889022+459184193
3655+452922251+447515219+438355080+429476828+428192233+431075406+432976050
3642+432158063+428877667+424618984+420428478+416105200+411378630+406269423
3628+403978758+404149184+401878881+395677221+387589027+382565692+380441724
3615+377394961+374963516+374680752+374651543+375082837+376344876+376255349
3601+374340813+372208218+369980101+367851819+367097513+366026043+361844749
3588+357155321+356028175+355869081+354158092+351593692+349207870+347349960
3574+346109818+344966149+342879797+339489294+336910673+336839022+337565582
3561+337753775+337196179+335670312+333248993+330901702+329717345+329262327
3547+328771300+328372213+328075923+327405148+326374328+325625359+325240420
3534+324530931+322994719+321279964+320519004+320400561+319749015+318439050
3520+317428483+317209875+317073227+316214260+315128532+314676036+314498591
3507+313954448+313229168+312925274+312906666+312407195+311410300+310499386
3493+310067215+309603752+308767413+308613876+309199510+309391724+309285491
3480+309275365+309026927+308323654+307397569+306772965+306554083+306277570
3466+305690253+304863784+304289007+304395989+304412330+303795056+303466194
3453+303624958+303207776+302077614+301276735+301305962+301638589+301798067
3439+301524807+300966334+300819596+300851071+300563573+300554982+300795816
3426+300467904+299595228+298965305+299180422+299879089+300295413+300335844
3412+300269659+300185707+299997514+299423650+298695354+298725257+299362437
3399+299451872+299004421+298914894+299294771+299709851+299971687+299926357
3385+299505939+299252639+299675269+300448475+300882583+300632701+300080040
3372+299871412+299955145+300040925+300346117+300833817+300881486+300341638
3358+300021331+300557395+301338186+301388397+300722630+299831456+299074500
3345+298828803+298894240+298735182+298290052+297863054+297872669+297844063
3331+296841685+295356084+294284175+293317001+291904732+290238287+288717282
3318+287527880+286596823+285369696+283529278+281636347+280098142+278735481
3304+277447011+275928857+274241264+273331264+273079115+272623220+272482020
3291+273306954+274496337+275352819+275701110+275681425+275914801+276925387
3277+278188742+278615667+278434859+278835828+279572094+279648387+279271582
3264+279193131+279359116+279396459+279578601+280004502+280108067+279974142
3250+280222306+280597101+280563031+280279096+280296918+280846069+281226677
3237+281001635+280947477+281468882+282117449+282845160+283573767+283779032
3223+283629973+283656476+284133849+284865637+285090477+284868068+285044708
3210+285936888+287383171+288924795+290040754+291016465+292196855+293188669
3196+294252572+295990211+298087877+299768506+300742626+301535884+302316255
3183+302532157+302550308+303581493+305291897+306353260+306708333+307193145
3169+308461362+309983245+310611102+310397430+310440384+311097230+311724722
3156+312119349+312477091+313022843+313389979+312720265+311444334+311204706
3142+312665978+314017069+313834104+313249347+313419627+313709520+312902864
3129+311764240+312258812+314650995+316215905+314612757+311901509+311297414
3115+312839402+313304328+311052997+308405869+307492396+307379290+305304400
3102+301768858+300212356+301566664+302795108+300772859+297656986+297544373
3088+300621314+302554512+300306325+297258008+297063418+299002483+299907073
3075+298394896+296759305+297219989+299284242+300061396+298663404+297406135
3061+297597088+298771318+299009411+297361883+295582607+295133072+295476903
3047+295397832+294746615+294003367+293493258+293134090+292272929+290717506
3034+288868772+287273996+286543250+286328791+285784739+285021605+285701573
3020+291713231+302855481+309331443+305195205+296913573+290552307+286608138
3007+284102685+282413812+281313791+280788858+280769118+280935084+281258737
2993+282625291+285817896+289709900+292394717+293611171+294211483+295131628
2980+296346070+296294983+294849539+293591211+292937033+292623488+291899560
2966+290098989+288402805+288311688+289873326+290924672+289527392+287394815
2953+286723144+287795547+289582592+289979522+288649744+287286608+287110734
2939+288022087+288069684+286237016+284426027+284231053+285642315+287047546
2926+286323125+284332972+283208915+283316062+283924563+283634250+282268792
2912+281367492+281668955+282849912+283919336+283937486+283217049+282646878
2899+282925657+283753040+283843006+283134011+282929569+283836718+285229757
2885+286076935+286025171+285626285+285622374+286230692+286750050+286478198
2872+285859954+285614898+285708793+285827017+285706947+285313344+284958179
2858+284623413+284177698+283760150+283230776+282565320+282009388+281686356
2845+281771624+282173581+282596558+283122496+283997365+285170572+286175053
2831+286599766+286803404+287292786+287729855+287674545+287460708+287665241
2818+288171420+288291746+287861312+287397666+287379479+287798581+288325378
2804+288784217+289263765+289839529+290285153+290562104+290919517+291240392
2791+291519409+291946060+292204843+291995886+291618093+291551378+291888465
2777+292209504+292114457+291793253+291684900+291784644+291720378+291382066
2764+291101678+291165762+291460699+291714419+291860262+291970242+292064978
2750+292152092+292220471+292211423+292119977+292044561+291997951+291874226
2737+291721639+291628036+291484406+291324892+291448672+291838218+292133594
2723+292170498+291934197+291544432+291294989+291201770+291114308+291050919
2710+290946514+290746769+290597217+290521362+290407690+290261373+290082538
2696+289794144+289455467+289146418+288845650+288669667+288683869+288631191
2683+288272865+287738848+287318978+287034806+286728335+286316746+285783771
2669+285338970+285302194+285489089+285333011+284744306+284168724+283924618
2656+283948636+283997164+284010050+284118916+284224546+284066768+283666182
2642+283353697+283333518+283401476+283457664+283670514+283887952+283931527
2629+284078448+284412318+284543501+284409284+284469894+284930140+285483971
2615+285856079+286079184+286296987+286562826+286779661+286882585+286931041
2602+287044732+287378876+287879188+288390686+288855045+289124704+289246455
2588+289514140+289866490+289927009+289749692+289815018+290234961+290731087
2575+291190876+291612208+291822809+291836664+291847193+291665580+291274663
2561+291178045+291514711+291857319+291903709+291810490+291818185+291917948
2548+292005190+292159074+292495979+292824164+292997698+293106965+293120491
2534+293153209+293507697+294045589+294404739+294554053+294595307+294573465
2521+294552244+294670943+295017608+295466119+295848025+296096115+296321778
2507+296618690+296803374+296798877+296774805+296809003+296897634+297116754
2494+297438378+297733334+298059290+298418585+298729772+299101533+299536610
2480+299806744+299769603+299579600+299512154+299644068+299793931+299689379
2467+299375999+299190804+299200108+299261321+299353882+299473294+299623139
2453+299805081+299975123+300175215+300383569+300472273+300527473+300763646
2440+301147179+301441842+301549007+301573939+301615888+301686113+301784449
2426+301879076+301877157+301782731+301802527+302052920+302297574+302335703
2413+302336525+302466502+302654987+302899970+303240786+303535157+303731319
2399+303980068+304586540+306241762+310157107+317929453+331157085+350715898
2386+375831916+404367500+434290804+464259804+493788445+523814364+555975034
2372+590240225+624053869+654501686+680783015+702760842+718730759+726230613
2359+722637915+706644749+680874845+650287017+621650866+606008934+611576815
2345+632550838+643312626+634383633+622162291+614240283+611467876+614966660
2332+620593141+621031672+617056960+614341179+613687622+611206022+603625159
2318+590370329+575619279+569061339+573061129+575788937+566882865+547872803
2305+526297864+509963553+500083251+491811909+482238609+470797089+456853754
2291+442085413+429156666+418235784+408482955+400012636+393133621+387728600
2278+383303804+379448996+376085727+373151887+370590155+368433506+366723869
2264+365363639+364117246+362828082+361539247+360445477+359549807+358646094
2251+357804674+357166690+356573634+355998747+355616074+355413588+355271712
2237+355119418+355015999+355122232+355368184+355489698+355554440+355879207
2224+356338722+356571441+356734483+357133241+357699903+358323703+358968449
2210+359681191+360543229+361388305+362099036+362787175+363496481+364316845
2197+365403193+366548800+367444982+368255988+369198487+370185292+371143876
2183+372088861+372944064+373616410+374236883+374966222+375789144+376709454
2170+377730038+378707521+379482336+380070676+380612443+381174352+381732643
2156+382276786+382763280+383170117+383579257+384043487+384456905+384884798
2143+385964677+387889594+389966587+391919178+393960931+396102921+398136265
2129+399973594+401806572+403720925+405699362+407735704+409760750+411790256
2116+413871087+415856542+417732950+419785559+422050087+424301016+426414894
2102+428618336+431132909+433831472+436737785+439882410+443159113+446515254
2089+450015134+453895787+458193951+462686121+467230091+472133558+477601529
2075+483367144+489296714+495345093+501708662+508522168+515538416+522776050
2062+530470640+538639112+546967518+555392836+564083041+572842887+581286081
2048+589233569+596995752+604643513+611958391+619246839+626841520+634367402
2035+641285204+647913478+654599584+660665181+665669544+670501652+675650193
2021+680303248+684403349+688782815+693607173+698234273+702183323+705664450
2008+708987434+712059640+714649301+717105531+719891281+722996095+726022899
1994+728264834+729706549+730919712+732398714+734188665+735652825+736967250
1981+738678166+739997489+740353842+740516299+741052509+741738674+742365179
1967+742980864+743575711+744110312+744701211+745100554+744824626+744244840
1954+744099857+744445243+745236325+746468205+747521397+747875776+748045252
1940+749118404+751227201+753484636+755608421+757969677+760273540+762116863
1927+764049604+766756831+770227868+773507350+776065060+779801937+785634669
1913+791362338+795984173+800376214+805441992+811538735+818115538+823965598
1900+828317134+831986527+836552066+841995398+846761705+850971476+856012395
1886+861346643+866480927+871757781+876028601+878556774+880801196+883626500
1873+885317675+883965378+881296975+881629931+884706085+887306421+888468113
1859+888293226+886851293+885078304+883646094+881819074+878853101+874698750
1846+869439077+864953670+863149096+862080331+860398514+858136472+854557739
1832+848935499+842530585+838321838+835806606+833605541+832407585+830887055
1819+828115050+825395614+822669451+818811061+815163675+813713553+813114758
1805+811702069+809540631+806645431+803738021+801843226+800028636+797326234
1792+795969624+797880358+799905148+799756290+798304851+796615650+795632354
1778+795893001+795437727+792268280+788650798+789772058+794131198+797553177
1765+798740678+798049541+797879773+798927847+800164772+801878978+801950190
1751+798771166+796392070+798368240+802149935+804275255+803743724+803627401
1738+805665206+805625432+804019506+807598166+813714942+818549755+821473542
1724+822618272+822524249+820173009+815969087+816472982+824013560+831950336
1711+836964861+838743042+838710068+839811003+841091210+839881630+839460134
1697+841954894+847766935+857435173+865534407+870072381+871374596+868789761
1684+869568706+880279535+890687749+895130092+895557583+897243568+900147395
1670+902611667+909163173+917753653+922100876+924491670+930421203+937128732
1657+938997645+934453017+931139465+937872729+943658377+946829505+953959700
1643+962371638+967003270+967162876+962660434+958831289+964357312+971854826
1630+974410270+975203180+977351239+978915198+980880182+982675471+980872578
1616+980580053+987987419+994696264+994840077+992434222+991890262+992790355
1603+994728287+997647615+999918064+1000467654+1000827882+1002203283+1003668247
1589+1004627050+1005421496+1006875566+1009064056+1011027358+1011407473
1578+1008051296+1004082213+1005085103+1005716068+1004861597+1008629619
1566+1014588252+1017113500+1013302049+1000232377+992638792+1007182567
1555+1022511868+1031326878+1036917825+1040980932+1042682124+1039990324
1543+1031893284+1024176285+1031656690+1047625218+1054910997+1053766560
1531+1054204433+1057096197+1057123248+1054569925+1050909598+1047935948
1520+1050414550+1056281938+1061410592+1064781538+1066016708+1064359676
1508+1058840379+1056503762+1063264079+1068011157+1067129414+1063881517
1497+1063382595+1067032320+1069211598+1066600808+1064563661+1068310847
1485+1072899269+1073741823+1071567956+1068504742+1064158469+1057868196
1474+1051666463+1051557744+1057988175+1061318397+1057056496+1051597737
1462+1047977256+1039937610+1025760789+1016163178+1017627703+1020269055
1450+1017637281+1011995520+1008190137+1004933759+1000089295+993463506+983402945
1437+969939559+960802268+957570895+953295834+947805490+944937415+943868357
1423+943292739+942409096+942198238+948258205+958268173+965340974+969682056
1410+974069418+977469755+979289902+983202834+988881664+992809803+995490124
1396+998412376+1002975502+1009104268+1013209268+1014156154+1014581160
1385+1015104210+1014641551+1016772136+1022578255+1026020340+1027171795
1373+1031264293+1034811661+1033609903+1031504469+1030582003+1028522338
1362+1027089178+1029134586+1032131047+1033065577+1032255851+1031592058
1350+1030758205+1028543175+1025735418+1021878856+1015684873+1009557422
1339+1006350396+1004783804+1002427447+999918137+999164123+999126617+999058256
1325+1001303555+1005734785+1009523571+1011928402+1013381303+1014517113
1314+1016533714+1018471500+1019756606+1022975039+1028963940+1034496471
1302+1035670665+1032759819+1030200061+1030915398+1033534304+1035476257
1290+1036612433+1038932892+1043980391+1050290404+1056043955+1061412712
1279+1065436557+1067531974+1068279335+1068033164+1067864126+1067077431
1267+1063476033+1057161413+1050535844+1045947787+1044017678+1043275435
1256+1041962400+1039809808+1036944877+1034111092+1032326405+1030883813
1244+1029233800+1028184410+1027200529+1023873889+1018604419+1015011941
1233+1014004152+1014247107+1015443015+1016604853+1016124501+1014349977
1221+1012791135+1012652221+1013729833+1013952827+1013908374+1016002329
1209+1018948781+1020705759+1020590240+1018688646+1016801820+1016003792
1198+1015401268+1013974249+1012402540+1012416505+1014041513+1015023054
1186+1014014607+1012639718+1011916997+1011047318+1010355743+1010046329
1175+1008357931+1005320161+1003706558+1003177220+1000748993+996809667+994281713
1161+993957019+994146820+993475058+991427676+988583728+986549726+985199768
1148+982731329+979772301+978654477+977904412+975300201+972532218+970976521
1134+970600281+970875405+969335281+965124048+960740414+956635853+952118569
1121+949191200+948291106+947100754+944899981+942754701+939822871+934960860
1107+930991850+929213450+927354554+925130750+922952276+921314912+921366456
1094+921408862+920519662+921183235+922087862+920624872+919032837+918896335
1080+919576724+920947592+921963716+921572927+922119812+924966392+926415710
1067+925839507+926733240+929636994+933739142+936801113+934972265+931032501
1053+931463063+935315311+937968361+938469258+937986786+937464686+937589709
1040+938874523+939973045+940487614+941512438+942285169+943574297+945088320
1026+943293397+938460923+934147990+932764620+934281129+935697107+934078386
1013+929917967+925752356+924443927+926147386+927070948+926206973+925404119
999+924814390+924933637+925937771+927295917+929138071+931035498+932668330
986+935177420+940020203+945553172+948298344+948523020+948840184+950170986
972+951340574+951324855+950868045+950055614+948151022+945922685+944944287
959+944850703+942925346+939327019+937660702+938149316+938547050+939603167
945+942066781+943211803+941065865+938021295+936980313+936528767+934309935
932+930965822+927021451+922993585+920476087+919144188+917884013+916879368
918+915665766+913605297+911464769+909880119+908686038+907570846+906186233
905+904360676+902447383+900526486+897539237+894236652+893554142+895629307
891+897992903+899754632+901702727+903818616+905135161+906049073+907413141
878+907802102+906078172+904928544+907917548+914526739+920643442+923718061
864+926059796+931874469+940256870+947056886+953293714+960713874+967986859
851+976043760+986395092+997473533+1005081082+1008118925+1010448011+1013965768
837+1020041893+1029133562+1035882838+1036478124+1034853262+1036356610
826+1040576983+1044308960+1047301254+1048504108+1047299646+1047145524
814+1048191989+1048104107+1048657134+1049002154+1045516567+1041397675
802+1039807103+1038485148+1037190902+1035819961+1032839585+1029396988
791+1024874075+1018285281+1013553557+1012312830+1009410465+1001639289+992542503
777+984835739+977422012+970820571+967028713+964017556+958786982+954135975
764+953865969+957041996+959969511+959356313+955044403+950738782+950378627
750+951293343+948255061+945024565+945627162+946077100+944821531+943768412
737+942309150+938733488+933079225+930127655+931961839+931758512+926217208
723+920305149+916773208+914093106+911360875+910408872+913210999+918212875
710+922344196+925684654+929157227+933839161+940272955+944159420+943511493
696+943457536+947641278+954251859+959409101+963117243+966589231+966298096
683+961763045+959128566+960633304+961613529+960298739+961662149+968117658
669+972416699+962692823+951543975+951037009+954812562+957036439+958183728
656+956416441+952734692+952231602+954254564+956960402+961177337+970742705
642+984140654+987486669+978724081+965758376+949782318+938708849+940922563
629+949691292+952253243+949357605+948837625+944929007+937795230+939287611
615+944914092+948441280+956150676+962251367+956780690+949655832+949965247
602+952766569+956051096
##END=
