##TITLE=Sample description
##JCAMP-DX=4.24
##DATA TYPE=INFRARED SPECTRUM
##DATE=13/9/2023
##SAMPLING PROCEDURE=Instrument type and / or accessory
##ORIGIN=Default
##XUNITS=1/CM
##YUNITS=ABSORBANCE
##RESOLUTION=4
##FIRSTX=4397.6552
##LASTX=599.8556
##DELTAX=-1.9287962
##MAXY=1.5538225
##MINY=0.21371503
##XFACTOR=1
##YFACTOR=1.44711e-009
##NPOINTS=1970
##FIRSTY=0.22942714
##XYDATA=(X++(Y..Y))
4398+158541608+157242092+155848286+155334786+155641405+156806727+157918494
4384+158118352+158044253+158475561+159372199+160144612+160857280+161735496
4371+162365756+163109172+163965249+164148426+163615979+162095908+159930266
4357+158135950+156438273+155059367+154903354+154949125+153804892+152525651
4344+152883386+154396733+155314438+155079972+154329657+153593768+152354656
4330+150313641+148859730+148866340+149285559+149109107+148602743+148687458
4317+149334039+149538057+149176142+148520901+147684028+147782129+148932026
4303+149183792+148235864+147984623+148763070+149405625+150133461+151305600
4290+152077147+152338696+152398234+152345029+152476977+152416306+152038523
4276+151913710+151492967+150296249+149211760+148401330+147782036+148448172
4263+149946186+150422080+150338107+150565438+150025536+148947369+148905758
4249+149697025+150198662+150013241+149685533+149870254+150037687+149707950
4236+149453805+149861471+150763350+151307134+151261589+151333526+151810759
4222+152209219+152380935+152976699+153985525+154411725+154012565+153982775
4209+154989140+155541152+154618235+153549758+153418047+153476576+153132135
4195+153087713+153621107+154548503+155693303+156050801+155569119+155565093
4182+156007439+155979616+155754159+155885387+156202900+156607600+156890052
4168+156605489+156021248+155617546+155466404+155613767+155824983+155993239
4155+156501066+156889270+156499408+156188814+156770234+157512445+157752874
4141+158127383+158955884+159312095+159122297+159450664+160004766+159623533
4128+158725114+158879489+160561936+162331930+162852751+162785202+163352371
4114+164493587+165322315+165411417+164923979+164254250+164141012+164793575
4101+165682253+166645092+167749712+168883999+169694881+170268373+171218432
4087+172015538+171996601+171797217+172154148+173273493+174447476+174881028
4074+174745517+174341868+174234283+174874726+175551355+175875922+176502176
4060+177742163+178746983+178536962+177898578+177892935+178204651+178708493
4047+179258424+179526625+180128577+181330321+182038932+181412410+180422686
4033+180408331+181027584+181265202+181084383+181102671+181336129+181336870
4020+181447112+182092498+182915284+183553957+183525763+182925582+182902907
4006+183449276+183495963+183027812+182818594+183052587+183134223+182664033
3993+182218247+182834843+184454796+185815178+186277851+186368219+186384386
3979+185763321+184571154+184035124+184763547+186151134+187425534+188265085
3966+188294761+187580651+187593790+188399916+188462997+188045199+187786842
3952+187187690+186658332+187704547+188866564+188191975+188675366+191262081
3939+192645384+191505980+187913477+184623299+185698017+188641261+188505998
3925+187319494+188680597+188995732+186370938+186442915+191811642+196964436
3912+198070889+195898883+189550029+178984519+171324627+172142584+179102978
3898+188437789+193742343+190856804+186517796+188846011+190271841+187214689
3885+187180791+187521401+187760481+192977613+194296764+188939674+183271258
3871+179645722+182371037+186665437+186432597+189074567+195684331+197541470
3858+190004794+173306609+164665138+181690208+200134734+206613270+203016051
3844+194940400+186731751+180245409+180749189+188712127+194906873+198061272
3831+201784281+204191702+204062946+200045745+189834149+185339778+191093681
3817+195419899+203033742+213287021+215938526+210035314+203901527+202243124
3804+197469431+194951048+202738048+210240763+216732748+224376040+228598051
3790+229323468+228545103+227781773+228735025+228360042+226314383+229648817
3777+237058199+240377003+237293902+232847288+233888354+239213853+245727297
3763+249720999+247762619+246996220+252340192+254440756+247810068+245576135
3750+264846660+289415396+312744578+348368271+379037287+388213851+381849655
3736+374199628+380514109+397518759+409962909+412210373+410822106+413711703
3723+423047297+437807119+453204543+463696099+467020813+467452306+477915195
3709+499936922+521535683+537290666+549881612+565677249+584504913+600884730
3696+612102567+616760025+616117604+620965231+642916567+671002225+690702184
3682+700079008+701744434+697216638+696473675+710880015+722918909+727263251
3669+743349927+768022233+786025586+795491501+800605413+802249833+802095210
3655+805318394+803858748+790959256+786668130+805581755+827607849+842954363
3642+854642494+862126077+862918466+861566734+864261548+864900715+856474981
3628+858170969+875513819+889161381+893864971+894470939+899160525+906755071
3615+909747268+909986410+913589931+924106406+939357775+948390549+947214199
3601+945056238+949942706+960081892+970430647+976672307+975121056+967750166
3588+966274620+975791527+987341757+996404022+1000570346+998305624+996993022
3574+1003900951+1012456430+1010402429+997922157+992361594+1002261639+1017757421
3561+1028591297+1027757060+1021636660+1022500141+1028684878+1032290870
3549+1032532978+1032937533+1037871451+1048256699+1055833451+1052371207
3537+1041855885+1032410400+1030929747+1039751305+1050374294+1054072138
3526+1051156139+1045439636+1043841183+1051967640+1061100997+1059864017
3514+1056116912+1055618940+1053374895+1052384470+1054350738+1056339660
3503+1060708963+1066091673+1068941028+1069747009+1067239438+1065662403
3491+1066982173+1063010754+1057332886+1059146344+1064889620+1065555395
3480+1059502297+1055972669+1058621764+1058040509+1047715890+1036569969
3468+1035401362+1041512124+1046754792+1050317207+1054348267+1056791666
3456+1055716145+1054212097+1053934320+1049369371+1042575288+1045168614
3445+1049173643+1042375358+1034816317+1033717319+1038909902+1048254227
3433+1053604234+1052197473+1049272990+1049094066+1052349789+1056862840
3422+1055795557+1044341544+1034397098+1038560044+1048193103+1049677958
3410+1045872612+1045583137+1051684014+1057785385+1056877915+1052282651
3399+1048194751+1043385306+1037372738+1033408238+1033825480+1037184258
3387+1037042816+1030210344+1025880830+1028079568+1029602069+1027517918
3375+1024618478+1022542071+1019214185+1013879007+1009987412+1008296614
3364+1008340191+1012275199+1016096691+1012920792+1008494567+1011717257
3352+1020023626+1025047665+1025859989+1030818372+1038562845+1036183289
3341+1026028286+1019062857+1013114708+1004624308+996616062+992256481+994097288
3327+1000350893+1003561144+999660075+993370554+989015338+985631765+984640187
3314+986942968+988414312+987718057+985445757+979215959+971462178+968277793
3300+970641863+977068213+983784203+983602396+975260357+967477002+969449284
3287+977469639+981369307+983762949+988324768+987451896+979384915+973507693
3273+976470153+982736196+984474444+986469379+990673597+990806637+988625693
3260+986525067+985094252+986276534+984028617+976669177+974310791+978212519
3246+980531445+979850266+979908671+983904062+987310948+983401724+981729626
3233+990674174+1000939315+1002767025+999088293+993891756+984090812+973616184
3219+971552546+974368126+971385484+962051620+957341687+961182785+965124713
3206+963434079+957628196+952761005+953828452+959296670+964291382+965924928
3192+963846873+962975731+965691882+965487256+959900250+954473221+952540398
3179+951431102+948592868+947958232+952491548+957308572+955767042+947763080
3165+939248378+934309188+933769368+936544501+938494953+936897159+933047659
3152+929486151+928153448+927952117+927299193+927438493+928348518+926989866
3138+921987740+917390334+915778372+912968393+908058777+905541650+905656155
3125+904749920+900974313+895352296+890752172+889025622+886891881+881205774
3111+876792236+877198027+879019558+879542820+876002894+869157655+866340262
3098+867253746+866638057+865257327+864083942+861512611+856845103+853180211
3084+853021881+852701350+849806852+846592153+844183847+842292131+840369522
3071+836480316+830849156+826951959+825158931+824085717+823250574+820117675
3057+814924434+811165466+808559372+806474315+806269195+806177344+804108516
3044+800663984+795699587+790586910+788004870+786253277+782526767+777767902
3030+774287041+773262347+773346537+771967785+768741059+765165134+762407959
3017+760210046+757871266+755948823+755165248+754723293+754223838+755117469
3003+757554360+760433536+764828952+771952463+780403981+788661501+796296082
2990+800672551+799549993+795975387+792740505+788888616+783087840+775666864
2976+769440938+766053575+763744699+762052830+762325994+764799460+768873192
2963+772402656+773022052+771443946+769903982+769800763+771226635+772289057
2949+770772570+766979334+762581776+758099040+753425106+749559213+746691323
2936+742922717+739058884+736491507+732650574+727672090+724692249+722406768
2922+717855494+711742261+705231391+697878623+691095496+687332863+686014370
2909+683892078+679745113+675978155+674557844+674969278+675587974+675795195
2895+676879901+679482411+681981497+683199572+683483157+683701704+686226863
2882+691509031+696162288+698485992+698722498+696406537+690284901+679580070
2868+666975820+655444866+644396355+633383762+623412337+613636188+603014888
2855+592143778+581367566+571112763+562023066+554548874+548872365+544418378
2841+540777829+537625036+534339616+531102181+528885032+527890076+526910773
2828+524988329+522863072+521765186+521522708+521175940+520326216+518997962
2814+517114318+514492737+511490118+508402610+505085021+501632128+497967194
2801+493930903+489611398+485340620+481397662+477764609+474634264+471902009
2787+469191089+466295809+462819726+459185313+456621273+455078878+453292728
2774+450911400+448590126+446517756+444523644+442826544+441560608+440258755
2760+438732053+437522175+436688803+435512535+433952758+432676855+431630990
2747+430282635+428484582+426637514+425273219+424227395+423130992+421931988
2733+420601756+419282892+418063953+416824377+415632952+414612171+413597486
2720+412485514+411259943+409738266+408213829+407085340+405989266+404593174
2706+402944924+401003945+398868350+396840957+395019097+393198801+391122271
2693+388882056+386954999+385481101+384048680+382408956+380710497+379043548
2679+377249984+375283509+373447315+371965097+370671688+369451307+368442141
2666+367523303+366358320+365115697+364151304+363342933+362539835+361744110
2652+360909997+360172347+359760748+359610574+359381977+359092543+359049460
2639+359195021+359386919+359566626+359695752+359913476+360349088+361010785
2625+361692294+362167613+362617352+363302280+364040547+364499843+364719049
2612+364910907+365122699+365297957+365388778+365335851+365011695+364311404
2598+363307140+362229231+361139336+359943873+358685434+357357962+355946341
2585+354474543+352868224+351221456+349644998+348079249+346584757+345191671
2571+343751012+342243731+340901122+339834025+338757763+337595334+336683724
2558+335992103+335293192+334671674+334185338+333797670+333486818+333148226
2544+332706250+332341957+332329167+332585361+332840279+333076949+333395420
2531+333780391+334265512+334881716+335420692+335903856+336609605+337456466
2517+338329626+339195311+339801094+340162258+340591341+341168355+341802661
2504+342267353+342263687+342044295+342080582+342192801+342035872+341588500
2490+340901513+340122655+339512155+339177620+338911603+338432886+337705946
2477+336928303+336322746+335913350+335515982+334949101+334277972+333775181
2463+333493450+333211472+332777548+332208093+331724887+331413294+331013537
2450+330511776+330060100+329727130+329705650+329897157+330013289+330094699
2436+330191018+330140830+329838669+329454378+329252265+329277514+329481584
2423+329774456+330017264+330247880+330456501+330592938+330857967+331245409
2409+331557311+331812805+331991811+332178828+332658636+333281822+333712038
2396+334127695+334645417+334930237+334864602+334486634+333501193+331555190
2382+328485804+324378319+319632922+314458689+308732774+302677493+296739950
2369+291137827+286148820+282364789+280215396+279636117+280654365+283752994
2355+289413769+297604831+306072866+310501707+308800014+303472106+299645774
2342+299064004+300292664+302004572+303514901+304818978+306226171+308503744
2328+311893227+315339057+318182522+321080377+324382355+327549152+330211427
2315+332364137+334323980+336407018+338490983+340544119+342735071+344994501
2301+347168937+349101060+350608156+351719099+352623274+353488279+354458727
2288+355593065+356677318+357377403+357683476+357820429+358025260+358475247
2274+359046700+359493021+359769151+360057843+360480151+360800970+360871773
2261+360888084+360956499+361063219+361245397+361350551+361233617+361173110
2247+361355371+361557937+361622891+361653371+361752265+361897126+362119504
2234+362411038+362693634+362937966+363072323+363128422+363215866+363332842
2220+363506700+363789625+364008791+363984407+364060977+364580408+365189054
2207+365592292+366014229+366552072+367042671+367406739+367804128+368375951
2193+368973147+369536979+370092821+370478513+370696525+370926646+371240010
2180+371644443+372152506+372675232+373086049+373517418+374166265+374913676
2166+375623811+376405738+377209166+377814187+378291894+378841476+379467792
2153+380084717+380707079+381466023+382400966+383375203+384274724+385180712
2139+386261257+387483781+388599707+389486707+390254671+391048996+391907205
2126+392755528+393644422+394732341+395970227+397202677+398360904+399461962
2112+400652358+401999353+403360271+404734245+406283477+408025473+409871635
2099+411745640+413719158+415868222+418107860+420609458+423529205+426559873
2085+429528181+432572029+435880186+439562006+443409447+447280036+451403647
2072+455811255+460157038+464244444+468351127+473070863+478603871+484394226
2058+489986463+495515517+501082505+506677584+512414394+518187120+523754108
2045+529134594+534693386+540760529+547003714+553088568+559230881+565305809
2031+570926302+576020608+580737996+585439403+590351449+595145737+599271284
2018+603060278+607436582+612039836+615997663+619528362+622953948+625956607
2004+628387690+630599155+632803907+635005033+636878462+637762084+638353760
1991+640075738+642586934+644903183+646617953+647591696+648108326+648481126
1977+648668576+648576354+648227774+647415037+646037274+645261854+646092714
1964+647002779+646571945+645726052+645111680+644379386+643515410+642516377
1950+641453049+640330038+638383952+635674886+634974842+637619448+640698595
1937+642567822+644106016+645755502+647452766+649585643+652060922+653946831
1923+656353819+660258100+664342541+669992236+677910690+685040380+690952447
1910+697877058+706418203+715073524+722917920+730506288+737600390+743113257
1896+748206327+754492306+759938118+764196787+770437294+777308894+781926400
1883+785276528+788231408+790416389+791818206+792297396+790312181+784182307
1869+777837428+777914204+781400008+782054579+779537288+775878409+771823295
1856+767063771+761575700+755597236+748652401+739859263+729226059+721988702
1842+722048756+722146043+718080797+713096629+707833778+699135456+689328087
1828+685015502+684084059+683260943+684156510+684612676+682752304+680629600
1815+678548168+674613984+670468254+669630393+670821654+670329366+666406344
1801+661340952+660125390+662261768+661386795+655654846+653723094+660827328
1788+667557858+668772514+667788103+666746728+666715548+668403463+667350514
1774+660020029+652969793+656185933+665692914+673926173+676933981+674739980
1761+674129110+676757941+679354562+682173190+681066613+674353589+671732214
1747+678088543+686127186+690545626+691905926+694625948+698410040+696187825
1734+693531481+703828337+718592773+730469547+738451267+742805082+744766655
1720+740966581+731920297+732638300+749086860+767184454+778558643+781565916
1707+779772723+780732503+782143300+778433100+780188235+792876098+812368590
1693+834165674+848489636+856102635+858887735+854974557+859612904+884172270
1680+908107215+921091390+925972092+930757483+935558278+939262217+951085446
1666+966313996+972545771+974685279+983125512+991819138+988516378+970532630
1653+962070979+979828518+989245089+989517017+1000871024+1017192724+1024882827
1639+1021936102+1010121028+1004217363+1017475773+1030354422+1032055518
1628+1029133341+1025922513+1022260093+1023748983+1026854944+1021241001
1616+1015245649+1020701922+1025634357+1023109157+1018693806+1016909675
1605+1016296292+1015696831+1016780671+1019638264+1021435906+1020562622
1593+1019161051+1018536053+1016857118+1013675534+1010760030+1009037764
1582+1007178751+1001576917+990770226+984965414+989749486+990230324+984915163
1568+987467465+997619914+1006261890+1005149629+988043860+979138689+999671443
1555+1016357910+1020576050+1019013019+1016060610+1008993033+994665693+977620472
1541+968135610+984584500+1012061595+1026030922+1033328250+1043687055+1049271837
1528+1045989753+1038842270+1028513450+1018504668+1018167908+1022949016
1516+1028809927+1035002078+1034255656+1021104007+999309559+995508497+1019938942
1503+1037331055+1038133576+1031533656+1030923733+1038773649+1041817250
1491+1035273677+1032707041+1044057177+1058328500+1065121595+1065514865
1479+1063842685+1058149164+1047447175+1039578065+1044795608+1056760939
1468+1060089731+1054212509+1051416287+1051076645+1039658383+1019335527
1456+1015408757+1027872801+1033794177+1029783299+1022660282+1020526294
1445+1022112637+1020171082+1012164072+996323622+976648747+968814236+968605656
1431+962780167+957060615+957186653+956778308+954383017+950840538+947255799
1418+954222711+970431553+983621507+991200236+995423730+996381369+996417368
1404+1000735349+1006156776+1006865964+1007470038+1013773316+1025158133
1393+1037881254+1045492852+1045517071+1043833686+1045301736+1046001533
1381+1044673113+1045692699+1048154304+1048205954+1049584541+1055003003
1369+1060574193+1064414879+1064880147+1061693291+1060311738+1062574813
1358+1064169888+1063401141+1062023625+1061074636+1059679162+1058344481
1346+1057642460+1055291901+1048625503+1038371400+1030389515+1028425965
1335+1028540470+1027661749+1027450286+1028780600+1030559954+1032240373
1323+1033641531+1035506640+1038713761+1041614355+1043352355+1045927310
1312+1049698799+1053071169+1055231271+1056618508+1058163004+1059605763
1300+1060113044+1059711289+1058576209+1056716949+1054725556+1054451157
1288+1057129578+1062084584+1068191557+1072760625+1073741823+1073465529
1277+1073406959+1071847223+1067897305+1062473571+1056805670+1050915597
1265+1044512148+1037659823+1030292557+1023528953+1019185682+1017395043
1254+1015770312+1012773254+1010404901+1009682862+1008994763+1008474879
1242+1009100700+1009546939+1008938911+1009067008+1010959054+1012693347
1231+1012327262+1010685643+1010028106+1010722137+1010665131+1009110091
1219+1007995524+1008703888+1010627979+1012445144+1013600406+1014084786
1207+1014104886+1014354407+1015355953+1016963961+1017998787+1017792267
1196+1017024015+1015928723+1014338673+1012008379+1009536148+1008163409
1184+1006823622+1004462518+1002873456+1002082221+1000164061+998412550+997491900
1171+994790330+991195788+989963421+990120515+988836579+986257669+983992865
1157+981976264+979420914+976743234+974223389+971119158+967822987+964983023
1144+961466905+957127588+953521761+950669358+947482502+944183284+941177329
1130+938005219+934822976+931708448+928245381+925223857+922757804+919543682
1117+915571192+910987461+905984017+902019601+899120654+896641257+895129877
1103+893929307+891498348+888498571+886575386+885420948+885064913+886001710
1090+886580988+886931504+888973148+891743338+893595843+895207724+897852288
1076+900460771+901453667+902287575+904250218+906805651+909593058+911292258
1063+910984002+910370454+911362609+914081148+917654272+920670441+921030760
1049+919127758+918574264+920648941+923106756+924423560+925018325+924602236
1036+922636792+920826711+920634278+921049378+920121642+917564151+915460971
1022+914543203+913523288+912137369+911118689+911039442+911906300+913141056
1009+913647266+912731805+910950886+909735406+910503576+912121140+912384913
995+912323789+913399227+914540732+915553563+918159081+921822408+924528591
982+927025041+930411003+934336949+938148309+940697151+942732122+945719953
968+948031630+948942808+950759643+953313428+954570426+954859324+954851581
955+955356225+958138772+961343503+960851957+958199237+957645660+959015927
941+960250025+960504983+959871830+958940470+957848474+956888529+956268309
928+955743564+955250205+954833293+954104005+951396421+947462237+945789068
914+945940313+945528838+944231804+941901510+939796847+939370379+939175556
901+938019800+936717906+935140212+932151886+928778528+926954443+926148791
887+925332925+924602236+923022566+919321263+915244401+914033781+915499441
874+916751332+916040085+914202078+913403593+913572467+913862518+915654641
860+919241521+923773107+929794325+936496228+942398246+949711225+960440070
847+972039314+982117294+990641882+997659291+1004616399+1013351379+1023107757
833+1031253820+1034722901+1033610887+1034036532+1039157363+1042873494
822+1041463439+1039460595+1040795769+1045142912+1049216973+1048841497
810+1043863754+1040268718+1041632066+1042721178+1039387609+1034620588
799+1030400554+1025943025+1021862292+1019696176+1017708901+1011929049
787+1003640885+997948518+994617172+989011137+980898849+973816856+968190061
773+962019328+955303009+950076734+946359615+942379628+939665125+939803520
760+939172426+936118033+934219479+933406743+931219703+929227321+928754556
746+929046008+929487057+929328727+928522005+927371438+925902318+924700348
733+923935555+922014348+917454342+911828041+907785943+904838476+901033377
719+897265431+895447936+895027729+895115131+897799814+904071624+909554258
706+912024512+913966396+916010017+917690106+919035330+918872058+916509307
692+914253564+914316171+915635447+916459139+917185626+919364099+922543705
679+926460920+930904609+933267113+932823428+927440223+918234621+918402836
665+924459064+924930593+924826962+926732189+928490784+930133144+931693868
652+932363185+930963344+927289555+925006051+927281729+929069897+924666738
638+919958370+922789849+931340798+936925744+934864907+928879358+922965149
625+921253427+926243196+928952592+922448724+915019922+913978259+919390954
611+930366437+939777159+941043054+941786263+945643507+945996989+943818763
##END=
