##TITLE=Sample description
##JCAMP-DX=4.24
##DATA TYPE=INFRARED SPECTRUM
##DATE=13/9/2023
##SAMPLING PROCEDURE=Instrument type and / or accessory
##ORIGIN=Default
##XUNITS=1/CM
##YUNITS=ABSORBANCE
##RESOLUTION=4
##FIRSTX=4397.6552
##LASTX=599.8556
##DELTAX=-1.9287962
##MAXY=1.5625738
##MINY=0.22009127
##XFACTOR=1
##YFACTOR=1.4552602e-009
##NPOINTS=1970
##FIRSTY=0.24005066
##XYDATA=(X++(Y..Y))
4398+164953766+163797889+162234202+161670721+161161551+160578431+160819838
4384+161512705+162194688+163137337+164134922+164671647+165207972+165899355
4371+165822241+165343585+165786802+166630282+166230644+164542752+162871939
4357+161663533+160799164+160486347+160240752+159833445+159821741+159494158
4344+158006562+156547809+156467562+156820692+156130938+155444184+155820384
4330+155619239+154074260+152724333+152401297+152676832+152974413+153132091
4317+153260341+153455383+153392390+152550732+152118737+153120418+154119211
4303+154250891+154101916+154287528+154906538+155079483+154685927+154795869
4290+155194330+154888281+154587198+155395167+156613004+156710904+155271239
4276+153649873+153074094+153078907+152950739+152731009+152560839+152365960
4263+152466215+153353254+154387384+154587106+154256267+153688578+152374797
4249+151238425+151710877+152732258+152959268+152970317+153520332+154447132
4236+155023975+155236875+155331365+154592512+153342789+153192955+154351402
4222+155448403+155964433+156680923+157818175+158504765+157825486+156981750
4209+157685573+158374007+157546029+156692176+156966339+157756154+158229517
4195+158307910+158640644+159666776+160354134+159330828+157422469+156870334
4182+158076037+159127932+158759166+157711551+157311227+157858662+158572633
4168+159308444+160237803+160329293+159576279+159559784+159915023+159497097
4155+159016116+159000931+159314813+160073336+160802707+160710674+160180421
4141+160413595+161400050+161835332+161072897+160294080+160772429+161816542
4128+162544940+163094045+163742032+164875536+165881344+165886269+165894051
4114+166882768+168124822+168519053+168222568+168352999+169090654+169791139
4101+169978051+169660083+169468123+169829947+170760586+171966371+172856635
4087+173271438+173600577+174118717+174721558+175365030+176048579+176655639
4074+177108574+177209474+177180435+177626202+178099493+177688008+177169376
4060+178071703+179897962+181109604+181306059+180752674+180320444+180459456
4047+180286203+180019423+180612332+181651725+182482968+182807356+182613297
4033+182286902+181855614+181485332+181880230+182864943+183526621+183594632
4020+183350501+182980548+182752452+183278292+183918815+183453879+183224125
4006+184455038+185540734+185745278+185908988+185697603+184740454+184083958
3993+184626570+185820314+186616354+187216021+188156807+188689262+188404030
3979+188072127+187645159+186834149+186812154+188121502+189470025+190060538
3966+190046592+189677089+189886262+190814412+191303861+191113304+190391090
3952+189064213+187921503+188315970+188931611+187982715+188646502+192005739
3939+194047990+193108535+189496587+185969421+187039881+190496312+190678677
3925+189052540+189662835+189962874+188544783+189670392+194399820+198423049
3912+199611406+198278037+192251754+181560327+174011530+174763151+181345932
3898+190800139+196397570+193172757+188391845+190935423+192575855+189448481
3885+189592961+190312963+190912773+196388375+197547550+191685119+186069912
3871+183213333+185993279+189022681+187556710+190784779+199302111+202135468
3858+194170312+176397050+166461013+182821057+201473053+208214976+204269649
3844+195765751+188343371+183293119+183438725+189641189+195839762+200647543
3831+205171238+207256086+206949781+202555247+191369619+186485002+192961025
3817+198290468+206325150+216341281+218507533+211552628+204417897+203536643
3804+200631283+198896156+205827653+212257270+218233871+225855082+230295612
3790+231305986+230578305+229491237+230192705+230028258+228451475+232214067
3777+239709373+242458212+238568916+234127731+235997692+241882219+248622852
3763+252604037+249772340+248019765+253596717+256616023+250827522+249375210
3750+269211673+293900846+317072729+352521484+384039739+395793066+393076645
3736+388406484+395038537+410568729+422206759+424528549+424244341+429362379
3723+440167280+454484704+468371332+477381574+479249466+477579893+486836252
3709+511032598+535626073+551582844+562304396+576456841+594052180+609592571
3696+620343531+624213864+624762005+634033929+655742277+677072582+692107182
3682+701370750+703609518+698477226+696254596+711168574+728091874+737245346
3669+752188896+770698010+782644822+790424316+795254828+793496662+790736252
3655+795838726+799628248+794962715+794762758+809709994+828750416+841090016
3642+846062899+849889119+855901026+861657764+863825101+861018409+855339573
3628+859752805+875585554+889354182+894316415+890761255+890354459+899411926
3615+910267042+918828998+923138442+923256401+926349227+933297926+940094180
3601+944716953+943750261+942001515+948532689+960753838+966786715+961664172
3588+956591270+962316061+971760090+980628248+989913687+993182223+990129045
3574+992345204+997655990+994852329+986375566+986435364+998656678+1010792389
3561+1019987311+1031276091+1036415673+1030028672+1021826164+1017628126
3549+1016179357+1016724591+1020319399+1027329454+1033616107+1035678919
3537+1037190272+1043520505+1051648223+1051980721+1044240384+1039524144
3526+1041057532+1042104830+1040751166+1043072096+1052136034+1059385775
3514+1057305433+1052306255+1049713774+1048597421+1049681581+1053012373
3503+1057008979+1059170663+1060423407+1066574653+1073741823+1070850347
3491+1059103820+1049442058+1048246082+1052184037+1056106509+1059010436
3480+1059417723+1052673486+1039594264+1030815395+1031667650+1036101361
3468+1036883414+1033160899+1029754663+1033194649+1043714810+1051712937
3456+1052298064+1047262597+1039855741+1036841227+1038605127+1042252771
3445+1045326592+1044775050+1044455413+1044949286+1041746529+1037520721
3433+1034815851+1030182183+1025161297+1025984964+1030495103+1032051755
3422+1032202153+1036124543+1041262241+1041557057+1038385920+1034966003
3410+1029167324+1022603302+1020424989+1021808634+1024641703+1028043926
3399+1027789331+1024045846+1024266446+1029337218+1030040550+1024556593
3387+1020361340+1020243463+1023676895+1028545499+1028568681+1020397301
3375+1009380482+1003569844+1006773583+1014589365+1018223247+1018017801
3364+1018173442+1014938328+1008799861+1006679871+1006669304+1003160918
3352+1000789528+1003184428+1003867936+999838891+993164775+985888165+985918883
3339+997747655+1011119480+1013362344+1004964875+995635857+992169330+991449123
3325+986239749+979514926+980169272+985228085+985936249+982843424+978365561
3312+975001429+977229630+979587749+974388369+967328836+964608647+963292665
3298+959642564+954972198+952068353+951847507+954013287+956982747+962479156
3285+972679926+978553886+971486326+961014905+959120758+962828938+963889424
3271+965798233+976001871+988256688+991101307+986251217+980384384+976670880
3258+975766771+974412862+972142310+973664066+979373129+982290572+979251811
3244+975222766+973448463+972323509+969482903+965863275+963071164+961143022
3231+962267321+964154750+960943310+956086093+955268242+957343997+960809131
3217+963576340+961386804+957661095+958805709+960423798+955980421+948604283
3204+944543291+944577942+946174569+949158610+952370787+953355419+953186262
3190+952494644+950768180+948706678+946768133+944840729+943476825+944208336
3177+944985147+942648325+940507365+940781211+938580862+932081226+926244538
3163+922962159+920371315+918478151+916985230+914406674+911785604+911143299
3150+910864866+908651165+906654295+905808839+902100004+896486210+893764792
3136+892351165+891746460+893229798+892311600+887807851+882855365+878724990
3123+876957650+878824682+882463806+883405186+880374290+875670256+871312318
3109+869164968+868012981+864361980+857756345+851601986+850634228+853649397
3096+852663291+846382781+840723769+836968570+834629537+833516133+831040873
3082+827810428+827176807+828537516+828565941+826511812+823987894+821514354
3069+817969434+812005612+805247695+801646416+801034421+799102838+795386959
3055+793759940+793738642+791604235+787872546+784148147+780334788+777306266
3042+774958714+771792655+768124779+764765726+761235960+757830296+755305477
3028+753268141+751520870+750069398+748567712+747091911+745698026+744581673
3015+744020384+743132331+741722718+741589522+742907389+744180202+746352208
3001+750772403+755743483+759862636+765408276+774028228+782495981+786751032
2988+785618050+781432791+778105932+775456190+771267655+766203436+761753506
2974+758082025+755000913+753802153+754679884+755069231+754703312+755231917
2961+756065905+756633748+758039346+759917601+760281227+758845647+756516526
2947+753602523+749883694+745473494+741642604+738696081+735109792+730260685
2934+725577294+722854156+721438809+718949788+715499726+712384947+708099423
2920+701813834+695919067+690927344+685228971+679484766+674878540+670862397
2907+667190425+664490920+663517469+664359403+665293452+665261341+665881528
2893+667721815+669293294+670714334+673428297+676959210+679672805+681686017
2880+683996584+686114935+686600042+684141043+677649354+667570598+656326625
2866+645612897+635004389+624059165+613519508+603820843+594103419+583410046
2853+572176273+561551341+552153267+544471623+538876669+534791020+530995600
2839+526837988+522918915+519741020+516958370+515078067+514550568+514154585
2826+513020006+511419242+509966336+509335746+509106258+508038563+505991848
2812+503783225+501523732+498704302+495235236+491505307+487881461+484134658
2799+479942108+475662236+471872468+468807126+466140428+463098554+459341389
2785+455647463+452835651+450508454+447949272+445231335+442820707+440985254
2772+439626511+438312658+436686909+434851742+433145552+431745810+430677542
2758+429857398+429032052+427877731+426245675+424520070+422955882+421186166
2745+419383847+418054962+417147332+416345578+415247533+413887315+412657959
2731+411619181+410571514+409312709+408045426+407164991+406513799+405633856
2718+404478797+403344095+402404066+401473950+400161039+398492817+396683822
2704+394664426+392557379+390456189+388350412+386452702+384667790+382774832
2691+380781525+378761555+377041071+375640264+374121457+372458232+370841863
2677+369296433+367769107+366147495+364593751+363350633+362312755+361306088
2664+360318917+359478007+358727450+357746054+356544221+355390760+354558861
2650+354330356+354448807+354349197+353959686+353584551+353458154+353596715
2637+353784385+353789300+353710783+353807813+354240494+354984129+355799849
2623+356520425+357159412+357909927+358776846+359369754+359698648+360198008
2610+360866854+361262427+361180429+360735174+360030244+359254539+358603552
2596+357930980+356923657+355705974+354633159+353540562+352139018+350633112
2583+349121555+347319769+345368076+343697560+342340333+341080135+339763579
2569+338556606+337564356+336532971+335432223+334381710+333336357+332401920
2556+331765411+331292181+330800254+330324649+329890555+329525148+329168035
2542+328731340+328451023+328589174+328985587+329336065+329639052+330045623
2529+330525672+330944345+331345386+331862277+332483160+333175413+333895599
2515+334550334+335102899+335608588+336238052+337039519+337740271+338066236
2502+338171559+338374875+338575324+338568177+338390706+337992716+337321536
2488+336568543+336032463+335790913+335616943+335350921+334847731+334019804
2475+333203940+332625981+332119166+331584130+331020547+330463927+330003026
2461+329592155+329050833+328412338+327906485+327535815+327207659+327013395
2448+326948906+326823718+326591998+326372094+326201708+326074103+325973121
2434+325819610+325665588+325648344+325736179+325834212+325902079+325905888
2421+325879573+325943898+326130113+326328064+326435292+326498122+326709383
2407+327135429+327687052+328272425+328727653+329041515+329349684+329578905
2394+329731618+330004685+330243696+329982363+329019132+327279642+324408830
2380+320291459+315364593+309903245+304106060+298545020+293274188+287880707
2367+282857528+279073801+276545521+275357717+276320969+279922575+285782364
2353+293530196+301636289+306082000+304369564+299063099+295902692+296313952
2340+297781418+299021690+300136405+301239651+302368824+304283409+307401137
2326+310681735+313379683+316185004+319550344+322916933+325631900+327492932
2313+329058881+331058167+333551264+336258060+338803297+340791667+342337896
2299+343849023+345333794+346628929+347770471+348844760+349891649+350908760
2286+351866565+352588328+352891704+353021828+353325532+353791716+354252167
2272+354610632+354928549+355222914+355417629+355681440+356067510+356249979
2259+356217294+356280943+356481351+356642930+356653784+356582968+356592634
2245+356758145+357013355+357220521+357323244+357370182+357421256+357514518
2232+357695348+357923075+358022029+357908985+357783653+357933806+358265361
2218+358482275+358673304+359035455+359442086+359766761+360154101+360669804
2205+361191283+361700473+362207493+362669131+363094891+363537402+364046551
2191+364595471+365167082+365741355+366167073+366486382+366932006+367416622
2178+367774513+368143832+368632421+369141612+369626309+370227615+371012986
2164+371785168+372386023+372869410+373313150+373856950+374672097+375646203
2151+376513408+377273549+378071822+378892744+379775309+380815848+381812686
2137+382657036+383560694+384480735+385242227+386074577+387200228+388349347
2124+389319234+390305996+391415017+392611771+393899001+395224855+396510528
2110+397699213+398872375+400263639+401913512+403655049+405435127+407309901
2097+409374965+411637161+413954610+416419056+419265724+422380503+425542056
2083+428766971+432092479+435508669+439135546+443163117+447659862+452395352
2070+456911224+461048071+465266547+470088540+475495291+481172038+486873565
2056+492597372+498347639+503970690+509557370+515211385+520967755+526804852
2043+532533207+538346672+544403960+550671568+557063811+562949281+568217143
2029+573398666+578455431+583333332+588264888+593036461+597271607+601265141
2016+605676079+610340834+614462240+618009413+621461973+624626311+627268434
2002+629723092+632110333+634326902+636051605+636630588+636918400+638818855
1989+641803796+643903061+644851486+645593810+646390526+647083742+647733828
1975+648071241+648022582+647599240+646251720+644636702+644511043+645471100
1962+645656107+644822816+643747543+642809768+642153333+641682888+641037553
1948+639774939+637547311+634981043+634789441+637922487+640892357+641796137
1935+642200434+643593050+646142648+649259393+651825457+653402342+656048356
1921+660297551+664237758+669895295+678649140+686591400+691979803+697568531
1908+705498995+714577842+723004882+730380201+737099290+743187296+748835905
1894+754778101+759623031+763105777+768583673+775647547+781269123+785250001
1881+787939881+789609168+791014194+791975234+790208794+783934838+777767126
1867+778131653+781455318+781805510+779173626+775669582+772120484+768155333
1854+763476693+757818337+750355695+740581135+729149821+721539239+721550379
1840+722105115+718922428+714338401+708814387+699705395+689336369+684247329
1827+682582343+681688351+683063314+683817720+682254924+680504950+678588932
1813+674733180+670587937+669723763+671002023+670602887+666830854+662068782
1800+660771477+662110314+660729167+655390898+653715917+660498082+667087497
1786+668438253+667694332+666940867+666988870+668582098+667691956+660526588
1773+653043673+655763698+665188476+673312468+676104333+673893212+673641853
1759+676854317+679752263+682028221+679876448+672656156+670434918+677350237
1746+685492905+689635527+690615735+693128185+696831203+694029672+690157988
1732+699495853+713777767+725571560+734228457+739772868+742518533+738557642
1719+728874500+729468065+746074512+763680747+774227940+777048476+775752481
1705+776794864+777617957+773336938+774871473+787720182+807837309+830739258
1692+845728599+852919361+855559026+852725220+857856282+881850746+905252874
1678+917190184+921417630+927018563+931797387+933630916+943681370+957925274
1665+963675377+966605189+975945185+983612616+978736968+960348845+951726107
1651+969150569+978930127+980512828+994620752+1014015871+1022789416+1018636350
1638+1006022904+1000124369+1012389672+1025349377+1028780270+1027007114
1626+1023285991+1018322529+1018489065+1021043619+1015947043+1009992314
1614+1015233308+1021295429+1020437768+1017649752+1017575864+1018237173
1603+1017914013+1018144444+1019011935+1018820743+1018311798+1018709010
1591+1018515442+1016648409+1014018328+1011415443+1009290047+1007490186
1580+1002855535+992028434+983705427+986622215+987753559+984638370+990020342
1566+1001245555+1008348339+1005042450+986175608+976590192+997934096+1016134959
1553+1021742118+1019972320+1016477696+1011100475+999432669+982947949+971455853
1539+985366195+1011428386+1024428558+1031377012+1042899171+1048871348
1528+1043936966+1036851958+1030639603+1025296623+1025387468+1026991222
1516+1030002787+1034677085+1033278449+1021436161+1002263773+998812728
1504+1021006921+1037246876+1039001601+1034288229+1035424733+1044467537
1493+1047431017+1039652179+1035342572+1044640216+1057497854+1065187731
1481+1067938966+1067297645+1060831022+1048210613+1038133290+1042825528
1470+1055303894+1058781398+1053739378+1053107231+1055232054+1045306686
1458+1023571633+1015867175+1027609279+1035845537+1033670172+1026853603
1447+1023957212+1023961800+1019933328+1009200513+990863669+970462292+963179621
1433+964281229+960629735+956427028+957370620+958643023+957611453+953529081
1420+948200682+953090912+968022748+980841066+988104569+994112708+1000330552
1406+1004857319+1008537893+1010414264+1008454912+1005082015+1005020333
1395+1014001126+1030452097+1042213533+1044291499+1042690203+1042102291
1383+1041230539+1040331264+1041328347+1043603076+1046643803+1052999266
1371+1061858659+1068404496+1070102125+1066797874+1061579325+1060246550
1360+1062555356+1063474865+1063177345+1064126753+1065640481+1066104127
1348+1064057043+1059085225+1052658659+1044175670+1033763147+1027893528
1337+1030097891+1033920671+1033860463+1031637833+1030197092+1029424541
1325+1028955325+1030670976+1035030717+1039287489+1041735470+1043670165
1314+1046688120+1049892105+1051778060+1052964697+1053986519+1054681659
1302+1055520153+1056616928+1057478358+1057687490+1057521118+1058045218
1290+1059703774+1061914526+1063686126+1064886607+1066538200+1068619116
1279+1070626143+1072260452+1071790335+1068157518+1063181605+1058144336
1267+1051562703+1042594607+1032779662+1025092816+1021815597+1020607170
1256+1018654535+1016948140+1014841995+1011726560+1010946965+1012067905
1244+1010809837+1008740226+1009268257+1010603163+1010846535+1010985957
1233+1011052554+1009794650+1008096939+1008113486+1009517528+1010589892
1221+1010948685+1010748646+1010353155+1010788211+1011996310+1012484940
1209+1012076015+1012354775+1013412968+1013912001+1014069280+1014597147
1198+1015184158+1015129848+1014005713+1012291782+1010450061+1008721385
1186+1007510255+1006817736+1006333940+1005361431+1003537159+1001071156
1175+998252258+995904132+994383359+993178209+991512690+989126391+987353317
1161+986288079+984018265+980498820+976584130+972306798+968525959+966139332
1148+964321695+961687436+958777857+956990201+955948310+954074643+950553805
1134+946316611+941946550+937118495+933486989+932434612+931596528+927792999
1121+921557870+915784667+911368650+908472342+907341080+905595120+901521267
1107+897302176+894346642+891024615+887407035+885775102+886136024+887250248
1094+888488820+889523666+891507757+894928165+897900819+899140702+899442890
1080+900075283+900992334+901223338+900846769+901732446+904786771+907920882
1067+909854922+910859460+910836523+911731293+914656518+917024386+917314123
1053+916573765+916743250+919136839+922481311+924485635+925234758+925867396
1040+925995677+926111178+926430569+924967547+923161379+923991762+925309957
1026+923804748+920497794+917768184+915539410+912905889+910378776+909891703
1013+912018655+913850545+913124932+910626572+907988054+906612927+906756936
999+908241994+911039593+913646656+914863602+916280014+919087853+921537719
986+922546762+923612573+926197682+930438070+935356069+939902824+943631810
972+946145571+947537326+947900050+947503658+948341087+951177105+953269653
959+953322898+953857811+955787263+957301647+957673792+957432712+957376518
945+957660685+957912659+958405958+959405335+960071395+958651051+956003604
932+954703349+954088568+953169142+952976884+953891560+955102362+955392591
918+954069236+950986896+947179270+944604073+942863273+940777115+940019882
905+941250672+941762812+940218529+937532253+933986186+930386791+928669255
891+928869295+929512009+930060437+929984829+928047430+923326849+917897284
878+915733306+916733584+917708713+917390059+917314287+919144457+921844003
864+923767394+923974150+922932833+924807074+932117843+941144837+948141949
851+954731528+963125064+972227339+980336217+987330708+995666166+1007545070
837+1020540900+1030136310+1034674627+1036852859+1038737012+1039040102
826+1037794403+1036375124+1035732247+1036772500+1039591807+1042914080
814+1044546832+1044626209+1044767022+1045462490+1045957264+1042797841
802+1036207688+1031636850+1029126939+1025051120+1019716906+1016085891
791+1015300643+1013700248+1007729217+999418416+992587675+988174444+983074591
777+974777224+965974763+959950405+956189062+952973116+949743491+945946842
764+941556383+937977631+936270663+936336851+938043164+941355197+943604860
750+941191611+936074474+932222040+929450244+927224009+925606002+924010931
737+924375212+926151399+924718604+920182662+915519587+910844387+904943886
723+899171011+896432555+896657169+899078446+902768276+905263359+905866590
710+905471508+904821340+904145450+904983452+909850417+917410702+924227026
696+928774682+928619369+923029330+916898563+913825397+913815813+916597111
683+922175928+928557850+930611077+929243078+930109505+930949555+925677187
669+916083989+915736746+925500330+933882971+939496438+940447075+939601127
656+941684582+941232077+934149035+927474181+927595908+931440970+936687288
642+945560362+954483486+959161061+958701266+950695274+940337062+935474848
629+932108914+925828814+922112770+927280613+939657240+949026725+950639735
615+950662999+949961388+946286876+940842074+937079093+943183483+957260525
602+964647558+965691333
##END=
