##TITLE=Sample description
##JCAMP-DX=4.24
##DATA TYPE=INFRARED SPECTRUM
##DATE=13/9/2023
##SAMPLING PROCEDURE=Instrument type and / or accessory
##ORIGIN=Default
##XUNITS=1/CM
##YUNITS=ABSORBANCE
##RESOLUTION=4
##FIRSTX=4397.6552
##LASTX=599.8556
##DELTAX=-1.9287962
##MAXY=1.7522031
##MINY=0.38294005
##XFACTOR=1
##YFACTOR=1.6318663e-009
##NPOINTS=1970
##FIRSTY=0.39662462
##XYDATA=(X++(Y..Y))
4398+243049705+241931460+240662420+239765921+239079681+239202078+240157401
4384+241046193+241574771+241337209+240213577+239530496+239674699+240439742
4371+242191174+243611521+243605567+242911839+241724726+240645235+240689595
4357+241116175+241100214+241007658+240326824+238774967+238002345+238212202
4344+237935266+238007714+240047806+242343960+242282232+240497891+238437363
4330+236890547+237155046+238573876+239081251+238740524+238778163+239620312
4317+240599505+240836445+240459156+239473334+237781256+236500838+236301994
4303+236928716+238312701+240013527+240920490+240232954+238499072+237071183
4290+236949480+237696901+237718487+237017947+236938267+237793236+238843233
4276+239103331+238744560+238851433+239584280+240095107+239430307+237833122
4263+236830663+237355844+238575831+238563887+236779144+234935120+234663864
4249+236002613+237480816+237777092+237657928+238103484+238691050+239321078
4236+239830388+239550165+238820295+238290147+238037719+237779192+237796012
4222+238801302+239961460+240185927+239659851+238852967+238129581+237350055
4209+236662262+236868412+237956341+238979546+239337532+239303746+239233855
4195+238947769+238109127+236953279+236053146+235655475+235684677+236179287
4182+237443177+239073216+240187352+240036154+238399614+236728848+236337770
4168+237169510+238499127+238760375+237683806+236901504+236877215+236826371
4155+236666189+236737669+237092989+237629383+238161596+238304666+237961838
4141+238286914+239520506+239712046+238777360+238619661+239147034+238824898
4128+237469858+236573980+236924533+237260969+236559882+235772868+235914623
4114+236609958+237321583+237657471+237417262+237419691+237915889+237903726
4101+237543713+237826036+238211380+237894302+237644998+237711164+237246834
4087+236818646+237131432+237182805+236680890+236810958+237908219+238555322
4074+237624324+236350646+236276883+237130975+238062246+238401823+238095211
4060+237979133+238342579+238545021+238018270+237225083+237416970+238542939
4047+239440936+240101590+240988939+241321868+240293513+238815511+238157925
4033+238080089+237847239+237663516+238041737+238991015+240018641+240224498
4020+239540522+239025057+239055830+239308367+239375190+238806799+238041609
4006+238100854+238928246+239681200+239976527+239527446+238773835+238963457
3993+239873963+240324614+240009162+239741595+240382397+241202047+241264250
3979+241108067+240998180+240394999+239902672+240365157+240872112+240816429
3966+240879125+241087229+241232856+241462090+241676987+242028453+242555643
3952+242642902+242211354+242021130+242111841+242268553+243050490+243882430
3939+243932981+243778223+243170147+242071133+242190425+242769883+241775825
3925+240694124+241368475+242420189+242721341+243084696+244480699+246030711
3912+246349249+245581082+243573808+239924770+237208135+237842637+240228571
3898+242816636+244534866+244277617+243417826+244161265+244384911+242822644
3885+242005862+241735391+241653757+243425241+244103354+242193128+240377083
3871+239712466+240568257+241504222+240997833+241887173+244592923+245804089
3858+244335729+239737979+235783606+239910470+245570399+247316041+245619580
3844+243128125+241286512+239667065+239598452+242066860+244389641+245280204
3831+246000504+247189700+248038350+246906682+242994825+240811078+242879441
3817+245064174+248292092+252152175+252682250+249282973+245911692+245620913
3804+244723027+243599997+245978151+248655667+250604537+252842250+254588458
3790+255714994+256029296+255758788+255913200+255441254+253765741+253757267
3777+255981009+257538582+257132930+256111789+256881215+259337186+262215501
3763+263812850+262361639+260650824+262505915+265150777+264969337+265751073
3750+274836138+286971243+302226863+326517033+347158366+356338818+355712479
3736+349000089+344882758+346128969+348920061+350707836+352165165+355362346
3723+360997310+369068301+378496541+386654463+391554279+395246453+405137361
3709+422607153+440228453+454848566+469838354+487478245+502340705+509453305
3696+509244890+503669354+495230259+487836231+485050873+484981000+482725335
3682+477138877+469795656+460393640+449714623+444522713+441920275+436017800
3669+432642812+432753411+430660539+425943315+420313465+413465455+405431209
3655+398969930+392024690+380646940+371014669+370925181+373593767+372867970
3642+368693002+363409779+358634734+354071866+349064775+342868343+335150954
3628+331910088+333694356+333229789+328857109+322927458+319612957+318855309
3615+317316602+315077300+312623228+310155569+309442556+309246085+306865065
3601+303278832+300606228+298467536+296564085+295630367+294523518+291223882
3588+287909326+288161644+289486823+289468963+288442397+286688700+284708619
3574+283305641+281749930+278437949+274241413+272934204+274318116+275045027
3561+274666660+273977480+273077091+271893630+270798214+270100888+269043696
3547+267481849+266826199+267316809+267645922+267207233+266221265+265271896
3534+264725018+263871309+262312166+260883911+259993640+259560850+259661112
3520+259701984+259225291+258683983+258203400+257586211+257166698+257124530
3507+256775657+255777179+255100162+255187439+255093130+254470773+254101264
3493+254361361+254418524+253867903+253597249+253880522+253944296+253534352
3480+253117871+252965541+252793780+252425093+252152321+252105312+252124141
3466+252076676+251963137+251745865+251389158+251115692+250895918+250649372
3453+250659069+250735279+250557474+250617558+251247750+251889557+252041868
3439+251765060+251448585+251412315+251729922+252203054+252252272+251837654
3426+251592440+251497474+251392390+251815319+252773180+253433140+253513076
3412+253460370+253492786+253359395+253068598+253235592+253922344+254282795
3399+254204996+254450392+255040315+255419704+255575997+255810983+256056909
3385+256076194+256215484+256720156+256969808+256852086+257037763+257580933
3372+258045263+258312264+258628556+259279640+259892556+259869216+259542185
3358+259454433+259566511+259821295+260263855+260690363+260765149+260462243
3345+259997000+259439238+258933818+258671218+258479167+258138330+257527807
3331+256855666+256626779+256449302+255873423+255435922+255150530+254630463
3318+253962029+252934166+251281280+249417624+247955127+247230864+246903943
3304+246049284+244520749+243152250+242426745+242239497+242362478+242492564
3291+242838222+243786185+244669024+244972148+245399734+246346692+247242461
3277+247834063+248332307+248450795+248304201+248381233+248517253+249057794
3264+250385347+251543989+251782665+251587765+251467231+251346295+251106524
3250+250970211+251284786+251751216+252007899+252456596+253026283+253291951
3237+253426748+253719153+254394362+255291829+255993866+256426528+256588902
3223+256663779+257096387+257975664+258776229+259368525+260314297+261266113
3210+261619661+261957047+262665768+263299047+263692754+264196860+264893766
3196+265692559+266853064+268431127+269942149+270791457+271002300+271179302
3183+271511008+272041704+273000570+273941429+274544099+275372350+276453321
3169+277487594+278629215+279571023+280005840+280470079+281459316+282736209
3156+283853285+284526266+284690905+284730297+284918129+285322229+285931017
3142+286406432+286686198+286651755+286102175+285637882+285837785+286514164
3129+287332443+288040617+288101304+287442622+286907050+286825068+286604838
3115+285754690+284550062+283609934+282979012+282335945+281467169+280434138
3102+279757267+279527430+279074734+278335477+277968944+278177541+278480337
3088+278627863+278926386+279302945+279707263+280416295+280997196+281126989
3075+281243998+281499749+281572636+281442185+281624794+282358024+283200283
3061+283542307+283257664+282887534+282773702+282678188+282522133+282475490
3047+282574949+282474431+281665082+280573281+279956348+279381091+278190434
3034+276728723+275672297+274864026+273815398+272799954+272069117+271524888
3020+271211134+270916976+270395320+269875672+269407964+268643286+267798470
3007+267395010+267243375+266994764+266697374+266435213+266463575+267374465
2993+269596746+272796411+275958912+278357283+279977351+281004501+281619334
2980+282015507+282368672+282666281+282539994+281640372+280117243+278584727
2966+277544171+277011521+276673423+276224343+275719050+275296523+274711751
2953+274027081+273975745+274619159+275123247+275169159+275019861+274819538
2939+274630719+274392683+273793227+272727670+271563605+270666649+270244963
2926+270355233+270601451+270507252+269995695+269267980+268686112+268409943
2912+268327286+268431895+268683263+269057265+269648320+270323109+270765524
2899+270911808+271058987+271416827+271901301+272327680+272703107+273261033
2885+273847979+274322024+274941076+275316247+275029961+274659428+274731475
2872+275158147+275541463+275604798+275533227+275368040+274874180+274273811
2858+274050695+274184963+274226930+273905762+273221476+272283722+271474793
2845+271288586+271789058+272556951+273201588+273716871+274130412+274443472
2831+274964635+275756689+276420959+276737361+276806668+276878660+277138830
2818+277551130+277896514+278002109+278010145+278219125+278703781+279273523
2804+279828783+280358238+280863093+281517318+282335853+283128182+283763797
2791+284137416+284197902+284028315+283916675+284037318+284137690+284002930
2777+283846948+283851148+283900275+283986128+284050814+283887126+283703932
2764+283814002+283954040+283784946+283540700+283559985+283691733+283707165
2750+283810660+284152520+284474784+284622182+284698575+284737456+284735173
2737+284742058+284666542+284495019+284403395+284369298+284427081+284727266
2723+285053675+285031742+284641632+284278003+284261877+284549752+284867523
2710+284915974+284794363+284817703+284970269+285139218+285172000+284865003
2696+284516806+284488115+284584360+284615352+284644536+284760686+284875924
2683+284751354+284413676+284044952+283643099+283155740+282554604+281862666
2669+281351913+281263357+281350324+281243085+280954680+280676064+280445114
2656+280206402+279893671+279597066+279610982+279816036+279763932+279460844
2642+279196656+279136900+279261032+279322650+279210408+279154560+279216763
2629+279184548+279108374+279200272+279371211+279482486+279620643+279888977
2615+280274485+280629512+280917114+281212623+281419868+281632757+282030738
2602+282525859+283085977+283630206+284084710+284667620+285400375+285894071
2588+286027973+286219148+286654951+287070446+287438641+287890095+288241196
2575+288412574+288624695+288882254+289021398+289053906+289085427+289111725
2561+289069192+289029032+289020667+288920533+288840177+289075602+289445002
2548+289501689+289400149+289535713+289832117+290109108+290348696+290477083
2534+290567374+290815729+291056888+291064887+291040196+291266069+291710347
2521+292123431+292399691+292581442+292674801+292787683+293031837+293344568
2507+293608537+293768008+293845624+293882460+294037109+294409705+294776786
2494+295043129+295353194+295758772+296264577+296803619+297237852+297539278
2480+297860739+298290241+298612158+298668024+298581477+298402484+298043201
2467+297638627+297524138+297761554+298092913+298278991+298226011+298071089
2453+298049137+298177031+298361484+298593421+298912032+299288208+299616736
2440+299952533+300346679+300523681+300362567+300249284+300375789+300421592
2426+300298684+300259876+300344031+300474828+300683754+300951357+301140504
2413+301268417+301473069+301583850+301561990+301778494+302145265+302334284
2399+302515012+302810411+303081339+303258359+303345491+303482607+303621386
2386+303295469+302224233+300466701+298055803+295108838+291828598+288310558
2372+284739739+281288084+277779761+274280714+271571202+270022486+269432527
2359+270289633+273142216+277634809+283319045+288999684+292075656+291097632
2345+287660314+285183834+284771060+285675338+287361645+289188739+290728743
2332+292019096+293360603+294889741+296658376+298764689+301234704+304051327
2318+307011532+309698051+311926323+313924228+315865957+317739932+319533623
2305+321235965+322917633+324535308+325948587+327244656+328537438+329870032
2291+331265268+332620289+333864893+335026987+336116030+337069125+337799743
2278+338469876+339330634+340296513+341249060+342168077+342868051+343408043
2264+344183405+345171528+345905726+346301808+346737374+347334528+347912434
2251+348480660+349076098+349546363+349942299+350444670+350992917+351492695
2237+351938634+352233686+352385523+352683497+353183969+353582790+353840806
2224+354174648+354624204+355066454+355378308+355583837+355826110+356081204
2210+356302986+356702757+357369748+358046492+358512301+358806623+359099776
2197+359595426+360355484+361199478+362003987+362770657+363575020+364460543
2183+365231303+365926455+366857489+367941053+368914931+369793258+370693537
2170+371702589+372815994+373914314+374974210+375958899+376845701+377837366
2156+378988466+380164147+381308526+382478436+383769391+385124558+386441520
2143+387600436+388599005+389757848+391231394+392815393+394232616+395406362
2129+396658125+398209215+399772869+401140345+402565495+404250341+406074166
2116+407879144+409665092+411541806+413472030+415385927+417468023+419790786
2102+422118626+424363699+426728940+429370205+432175578+434881822+437521589
2089+440456445+443686427+446874185+450093319+453692828+457704016+461881578
2075+466054427+470465751+475420026+480469012+485114866+489840455+495174120
2062+500833519+506619843+512779494+519195372+525510621+531697338+537833759
2048+544064342+550623363+557276363+563662363+570237308+577470625+584926966
2035+591979810+598497959+604908211+611594559+618248838+624499584+630594658
2021+636778635+642967361+648914726+654270671+659292043+664457326+669552187
2008+674157973+678196811+682219650+686615488+690591283+693627716+696631423
1994+700010099+702737308+704861993+707563342+710273677+712147578+713939589
1981+716073625+718271800+720333077+721653691+722131663+722388729+722562444
1967+722846977+723508745+724228004+724941273+725617432+725951055+726301627
1954+726932640+727445458+727967625+728522739+728611131+728646122+729405924
1940+730765182+732159505+733321964+734680783+736680844+738924529+741025472
1927+742762476+744257755+746820965+750449037+753847000+758085705+763637938
1913+768726005+773036738+777344769+782527364+788864310+795174592+800787896
1900+806103590+811297289+816456801+821685053+826969335+832662191+838802776
1886+844415568+849252414+853766740+857497887+860005359+862349124+865548242
1873+868216791+868221905+867086986+869101876+873496325+876037693+876002628
1859+875541166+875089054+873717231+871886649+870145627+867765994+863940173
1846+858915002+855301247+854612231+853529252+850605463+847628931+844609811
1832+839572294+833472983+829698078+827512542+825468943+824225398+822429661
1819+819114100+815384852+812155053+809642467+808053172+807528374+807276276
1805+805810144+802372516+798265814+795951269+795785444+795441812+793045597
1792+790752237+791654343+793582521+794504423+794542921+793722706+793090304
1778+793487116+792962684+790090615+787564954+789274491+793146991+795929938
1765+796536918+794994887+793859384+794835563+796702159+798407313+798214021
1751+795882090+795053766+797635092+801227662+803938069+805392439+806537731
1738+807315943+805811752+804234583+807791869+813791539+819072023+822615867
1724+824332709+824522277+822456470+819383000+821112772+828167516+834745164
1711+838976126+840905838+841545180+843099703+844436826+843344204+843672130
1697+847661804+854190289+862190238+867793461+871267396+873007761+871002368
1684+871835659+881390497+889866007+893576627+895312170+898395502+901757451
1670+904395757+910603110+919258837+924522300+926795790+930521897+935086555
1657+936505495+932294696+928809730+935956883+942734837+946062305+951987755
1643+958826707+961326216+958297599+952307937+951862692+959903112+967233549
1630+971610540+973575755+971983976+968548173+969483663+973815435+975299245
1616+977005713+983633329+989643664+991911821+992470952+993683963+995081645
1603+995792650+997239422+1000045526+1001825631+1001889550+1002833075+1005502866
1589+1007991272+1009141823+1010436943+1013392655+1016648825+1017266763
1578+1014254071+1012673542+1016183564+1017704922+1014800565+1014313023
1566+1018284289+1021439868+1019103043+1008786577+1002774635+1013128722
1555+1023719348+1030588689+1035875820+1040560355+1042915735+1040535371
1543+1034592973+1030169669+1037961496+1051692580+1057595677+1057960712
1531+1060410108+1061713263+1057185057+1050275028+1043435565+1039079613
1520+1043557121+1051212490+1056006600+1060401196+1064521266+1064177197
1508+1056113620+1051117962+1060992835+1071022430+1073741823+1071159547
1497+1069849233+1072674769+1073417477+1068355635+1062627495+1064042418
1485+1069770850+1072254215+1069308657+1064473856+1061050180+1057574711
1474+1050953670+1048019946+1052509143+1054105086+1048062170+1041148999
1462+1038188904+1033049846+1022310927+1017091806+1021270317+1022623366
1450+1017695133+1011050716+1006870598+1003455688+998432270+991336910+980305349
1437+966095197+957198695+954218437+950655088+945438378+940328833+936987339
1423+936947307+937838966+937472543+941515545+951172873+959703025+963134518
1410+963086523+964554700+969213083+974817328+979896264+985335853+991160639
1396+995256018+998697737+1003971720+1008950576+1011014775+1010572671+1009938370
1383+1010028442+1010908048+1013021849+1015345524+1017485331+1021805999
1371+1027081515+1029017218+1028770452+1028765777+1027559195+1026286430
1360+1026643941+1027141636+1028363705+1030190269+1030067617+1027747740
1348+1024711891+1021253004+1016682867+1010392820+1003225432+998237809+996624699
1335+995848680+994123729+991861562+991315141+995079088+1001749731+1006206346
1321+1006220153+1004778275+1004860676+1005928607+1007153086+1009626443
1310+1014217765+1019956424+1024031787+1025180439+1025348091+1026317257
1298+1027734006+1027585640+1026814661+1028674536+1032332414+1036264086
1287+1041451064+1047679237+1053904780+1059751554+1063855407+1064764599
1275+1063571386+1061421060+1059066775+1058441314+1058560898+1055056793
1263+1047673758+1042240744+1041128398+1040584315+1039042722+1037370587
1252+1034904024+1032014715+1030432798+1029349015+1026636416+1023413849
1240+1022234370+1021927629+1020227369+1018421405+1017586287+1016455971
1229+1014333696+1011678370+1009219330+1007697973+1007971621+1008892136
1217+1008759402+1008817404+1008747860+1006572258+1004395780+1005466706
1205+1008821568+1011481351+1013199727+1014382129+1013670833+1011411442
1194+1009619942+1008592700+1006941092+1004300814+1002510921+1002381548
1182+1002124336+1000589244+998664865+997850931+998203621+997456530+994601774
1169+991739056+989940543+988717963+988622924+988865380+987696638+986190694
1155+984996823+982682206+979682663+977240791+975258044+973559026+971542310
1142+968451016+964613287+961511327+961109182+962055410+960061048+954947777
1128+950473410+948455379+947961555+946856003+943620141+939538349+936065510
1115+932679090+929401661+926161197+922679883+920551254+920585807+920121860
1101+916767656+912057115+908468782+907273085+908014406+907858515+905554709
1088+903111011+902256388+902940364+904387867+906189886+908269938+910091389
1074+911061724+911990420+913500601+914339809+914304014+914342147+914171062
1061+913649040+913197659+913857381+916998789+920913586+922150338+920154149
1047+917548716+917533594+920297256+923659788+926385974+927466908+927056435
1034+926977394+927116045+927103188+927531412+926438206+923442754+922222658
1020+922124112+919124277+915643037+915651219+916897394+917391510+918046558
1007+917383109+914521852+912428798+912543707+913347340+914546470+916131528
993+917367988+919315525+922810791+926701189+930148607+933204399+936365530
980+939332127+940405536+940016613+940782917+942207556+941318161+938542666
966+936691994+935594624+933640658+931310919+929855307+930033113+931670403
953+933351523+933467163+930774653+926167844+923497615+924204675+924857019
939+923832480+923417771+923731743+922657384+920747103+919381490+916957150
926+912860675+909940319+909077807+908026970+906503056+906117712+906428982
912+905504158+902158500+897166713+892621268+888509817+883914040+880685044
899+880402264+881565088+882551860+884040637+886731905+888081666+886850612
885+886466657+886796628+885467832+885601442+888892677+892036641+893226640
872+893382312+893883879+896144439+900717863+905791394+910653223+917620890
858+926189833+933358171+939626960+948330535+959411406+967764556+972463920
845+978702393+987982925+996788845+1002391848+1007077259+1014417267+1022063942
831+1025956532+1026801438+1025442692+1022858662+1021875763+1016707412
820+1004384603+1000116167+1010011494+1020331175+1024142021+1024788083
808+1022297193+1019251702+1019214080+1020162500+1019560196+1017362679
797+1014994588+1013401348+1011347303+1008472969+1005307236+999988693+991506900
783+983511772+980137916+980283361+979470231+975713151+969840005+963071548
770+956131056+948653128+941938728+938710463+938382319+938220584+937569335
756+938828441+941143569+938819748+934026879+933048873+933386953+931460893
743+929328830+928221670+926486712+924434274+923638676+922444440+919086948
729+914992811+912020151+908910229+902577301+895161393+892266679+893319123
716+894501013+897327352+903441785+908604876+909849298+909577841+911431142
702+915698629+917422411+915583793+916239717+919562510+920592381+920329617
689+920966183+920387912+919096737+919067736+918548709+918687871+921171894
675+921566442+918127133+910592883+900750809+906521684+923511495+927916610
662+925019923+923266190+921157722+920882905+921318288+919728700+921191764
648+924302198+920673468+913242293+912351802+916147454+913920132+906472740
635+903031531+905629294+906097039+899853160+899880481+910716850+908645638
621+887397837+874260583+878558606+884502099+882806077+878186996+871713153
608+863169632+857227234+860012153+874101625+890175305
##END=
