##TITLE=Sample description
##JCAMP-DX=4.24
##DATA TYPE=INFRARED SPECTRUM
##DATE=13/9/2023
##SAMPLING PROCEDURE=Instrument type and / or accessory
##ORIGIN=Default
##XUNITS=1/CM
##YUNITS=ABSORBANCE
##RESOLUTION=4
##FIRSTX=4397.6552
##LASTX=599.8556
##DELTAX=-1.9287962
##MAXY=1.7403399
##MINY=0.35292748
##XFACTOR=1
##YFACTOR=1.6208178e-009
##NPOINTS=1970
##FIRSTY=0.37131646
##XYDATA=(X++(Y..Y))
4398+229092042+227564267+225868874+225116083+225540074+226603903+227514198
4384+228090086+228004751+227138989+226144884+225056049+223868437+223840838
4371+225647584+227605178+227754354+226732190+225739832+224622037+224104952
4357+224704835+224941809+224611942+225230782+226343668+225991884+224182325
4344+222670841+222338694+222826783+223687856+224601131+225082489+225044189
4330+225083850+225455529+225714660+225683255+225498114+224990590+224538872
4317+225048712+225819633+225039188+223175386+222778737+223899879+224037434
4303+222928078+222042237+221755066+222066987+223054214+224117657+224062919
4290+222756084+221533059+221344424+222199779+223528347+224203452+223762416
4276+223430527+223705637+223204052+222031352+221418653+221084116+221023586
4263+221980603+223627675+224861567+224709634+223340503+222102125+221750175
4249+222233979+223008467+222567450+220557488+219321647+220123477+221002606
4236+220913060+221329990+222569711+223043200+222461503+222489690+223343206
4222+223551533+223241212+223315920+223561499+223372699+222414468+221712922
4209+222643352+224251939+224741002+223926780+222869202+222585524+222582748
4195+221610156+220308084+220498980+222057131+223126550+223155638+223061735
4182+223168270+223115444+222577526+221601073+220658986+219956723+219876610
4168+221090883+222274008+221549791+220259983+220271016+220924828+221137678
4155+221092262+221496137+221775255+220954873+220074971+220227107+220757468
4141+221160258+221614937+221861068+221610377+220790344+219522454+218920272
4128+219134410+218733734+218299722+219482774+221090423+220957208+219752662
4114+219132406+219126761+219517986+219825089+219214100+218296909+217893770
4101+217746543+217936281+218687454+219673155+220623443+220847988+219963710
4087+219246002+219614868+220352213+220482910+220000411+219715758+220210411
4074+221414921+222013112+220987510+219734440+219288090+219084507+219021623
4060+219227100+219594384+220229828+221076854+221354739+220570378+219619501
4047+219521847+220095988+220542834+220532574+220079218+219440539+219304492
4033+219631361+219577321+219255729+219366107+219663962+219724217+219438957
4020+218928712+219234050+220641040+221734343+221693634+221100260+220935051
4006+221534346+222095321+222051817+221881809+221634942+220942553+220340317
3993+220385163+220633997+220730586+221035170+221449636+221320282+220830299
3979+220987804+222024310+222915207+222940563+222470825+222322403+222829596
3966+223270466+223354441+223927920+224849193+224897919+224168682+223772676
3952+223766976+223627822+223681218+224074925+224201356+224343544+224945689
3939+225259043+224869253+224079504+223373104+223644904+224651236+224866716
3925+224527398+225110787+225901217+225539467+224954202+225913242+227736132
3912+228686567+228088780+225864921+222868540+221220954+221968560+224255543
3898+226547123+227238942+226113148+224939271+225323325+225538695+224807490
3885+224706931+224576786+224447634+225877828+226490876+225031024+223338278
3871+222498847+223521176+225011515+225164680+225797991+227501291+228400480
3858+227310799+223484806+220262796+223544473+228185129+229884329+228298487
3844+225511408+223992109+223792185+224398430+225657053+226816955+228022495
3831+229481814+230363702+230559029+229707462+227098114+226192654+228324633
3817+229372079+230309202+232453684+233492084+232040358+229354391+227897020
3804+227076270+227802675+230899376+232680766+233321248+234668516+235859603
3790+236403239+236464910+236166890+236147547+235785962+234834332+235623971
3777+238141934+239805554+239735020+238948452+239200615+240608615+242602304
3763+244042501+243724310+244024518+246891894+249462095+249726945+251983221
3750+262959872+277824114+297178917+323856667+342387300+348117013+344766826
3736+336419583+331363945+331932294+334216023+336179814+338685550+343132608
3723+349882737+358530464+367798355+376350873+383320436+389614857+398789929
3709+412865561+430431895+449593688+469019999+486088592+497533271+502992729
3696+503647755+499977152+491955841+482326347+476516172+473891066+469672819
3682+463043640+455707473+447607171+438598282+433814003+431697708+426553150
3669+422038942+419867155+416547454+412055421+407551473+402530403+395745889
3655+389127191+383036905+374421576+365687944+362351254+362018813+361314288
3642+359136029+355041380+349333254+343186629+337935830+333457293+328323840
3628+324941733+324446014+323334875+319939124+314685640+311020039+309785705
3615+307830317+304788704+301620845+298798040+297574904+296856442+294569643
3601+291610000+289247482+286820076+284590627+283758936+283052555+280361439
3588+277236385+276168713+275777452+275000720+274209647+273341035+271800169
3574+269780333+267800141+265114063+261644506+259878801+260044764+260012568
3561+259834101+259684374+258723477+257090030+255805941+254987728+253770090
3547+252310440+251454368+251144507+250860406+250531790+250250631+249539836
3534+248228791+246780909+245569430+244960299+244776408+244340135+243576459
3520+242895010+242442703+242157168+241716537+240746299+239730258+239497090
3507+239633284+239260649+238887149+239082789+238982487+238228630+237599805
3493+237329403+236835725+236006314+235499305+235658594+235908844+235629045
3480+235158388+234914721+234550948+234038717+233957409+234340543+234542490
3466+234192434+233657624+233601046+234076944+234410341+234365973+234368896
3453+234350895+233706019+232585594+232018974+232319274+232974005+233632985
3439+233836164+233584718+233422893+233255403+232938941+232899758+233296039
3426+233574844+233274287+232940725+233290486+234060285+234422293+234182652
3412+234109508+234549403+234924080+234955834+235029273+235315341+235370043
3399+235147613+235231698+235627832+236010360+236364387+236651614+236892596
3385+237250320+237823357+238407188+238673711+238615570+238456006+238499271
3372+238775061+239076887+239531970+240148457+240517801+240484777+240443443
3358+240782981+241198900+241256838+241242882+241614929+242198925+242520021
3345+242415177+241801688+241075246+241019698+241242937+240975698+240317895
3331+239610962+239260888+239317263+239187045+238101868+236455918+235743046
3318+235720448+235019381+233622100+232186775+231026119+229820672+228468605
3304+227494671+226910068+226456584+226213064+226302922+226727557+227153552
3291+226986688+226217992+225800345+226362460+227283402+227661554+227464314
3277+227537936+228374885+229395229+229952803+229943443+229792705+230059982
3264+230393213+230318929+230356457+230945914+231826533+232550070+232962587
3250+233067026+232689997+232178685+232210366+232757625+233266197+233324098
3237+233339084+233828662+234476057+235172270+236080727+236806838+237047178
3223+237214207+237812913+238698331+239561427+240468266+241248380+241498170
3210+241505231+241930454+242754661+243546561+244280413+245294560+246518376
3196+247549034+248542771+249802406+251203364+252436778+253129425+253385651
3183+253816187+254654846+255540761+256053654+256432485+257170511+258042028
3169+258705016+259372270+260222458+261050416+261792229+262750902+263831445
3156+264712836+265457830+265911314+266057382+266367428+266793827+267094715
3142+267495869+268079682+268515128+268395096+267878231+267782360+268235679
3129+268532614+268581046+268666914+268678369+268504555+268159739+267652179
3115+267060736+266535174+266319271+266217848+265300638+263467139+261985019
3102+261421488+261124976+260829456+260775232+260719427+260575327+260722057
3088+260979680+261083678+261262825+261722946+262322130+262650158+262773114
3075+263198630+263953591+264399646+264125806+263684586+263719301+264068272
3061+264158406+264125769+264675326+265325810+265229094+264922045+264962883
3047+264975350+264477222+263401110+262185955+261143749+260159077+259234219
3034+258290899+257071459+255830249+255188554+255027941+254611342+253818522
3020+252942298+252074183+251306572+250637130+249937919+249107038+248221878
3007+247592998+247359168+247281960+247195632+247309412+247892544+249146589
2993+251267444+254074049+256867086+259098264+260813239+262149217+263032410
2980+263403354+263341904+263144811+263042909+262710983+261725337+260271478
2966+258808242+257718505+257105513+256651348+256151363+255819033+255843175
2953+255864339+255626353+255525720+255757675+256159490+256417408+256177473
2939+255584265+254936741+254272300+253598115+252901736+252225767+251744537
2926+251621177+251776108+251578371+250619405+249661100+249374002+249398972
2912+249421092+249675405+250234836+250699941+250956038+251241996+251519992
2899+251785651+252228985+252842327+253428327+253901614+254327591+254681434
2885+254989163+255522613+256211434+256532530+256504710+256484871+256408747
2872+256242417+256033391+255755192+255502534+255272271+255068412+255100166
2858+255318331+255325943+254913168+254149161+253349851+252841499+252509739
2845+252386011+252758831+253404498+253925628+254326101+254878306+255725993
2831+256632851+257360488+257857991+258007516+257866927+257739044+257870641
2818+258315410+258774097+259006511+259166388+259410570+259881283+260603717
2804+261263321+261708457+262181652+262925948+263819732+264445191+264720871
2791+264819886+264722986+264627813+264757314+264917743+264945875+264867546
2777+264758969+264722287+264731002+264597456+264258635+263948590+263867006
2764+263934983+263944030+263835913+263831518+264129980+264565738+264791404
2750+264798539+264841197+264899172+264791129+264551047+264386978+264432265
2737+264610088+264844360+265049929+264965476+264588391+264277886+264196504
2723+264184884+264125934+264105690+264121724+264102068+264132811+264196688
2710+264242509+264382951+264568901+264594201+264454790+264374235+264455856
2696+264471614+264238391+263937925+263787315+263795737+263884602+263916173
2683+263781799+263414331+262780303+262166850+261878796+261702500+261398338
2669+261043300+260609472+260099429+259751249+259573996+259262149+258710183
2656+258270214+258250429+258416319+258425880+258284317+258182930+258229541
2642+258304469+258233219+258086397+258128614+258321569+258256111+257897909
2629+257724867+257947923+258259788+258429429+258620196+259009159+259435467
2615+259635078+259714051+259993206+260476275+260851650+260955207+261040211
2602+261437503+262125939+262917288+263746257+264488916+264960033+265262411
2588+265680886+266236566+266576196+266528150+266551392+266984631+267512160
2575+267897336+268169503+268261494+268247502+268267948+268322227+268474161
2561+268710124+268783011+268604030+268472230+268589228+268771096+268800865
2548+268767529+268992680+269432980+269662821+269608928+269567887+269634854
2534+269650097+269659272+269813669+270067799+270368595+270567986+270576334
2521+270633445+270820259+270963238+271018455+271070012+271179508+271322965
2507+271544311+271970195+272519476+272971379+273256951+273453197+273574737
2494+273634422+273807390+274141964+274538613+275038764+275667974+276263867
2480+276620450+276763539+276794320+276643471+276416426+276337728+276362735
2467+276354810+276317576+276349092+276487547+276629276+276706171+276829384
2453+276980711+276959253+276887763+276959198+277079818+277348860+277792230
2440+278074934+278189229+278324081+278396600+278350521+278314280+278372696
2426+278403826+278343957+278341383+278447459+278626054+278865290+279045503
2413+279128300+279282018+279532856+279801125+280072557+280202206+280177162
2399+280274081+280595251+280965348+281230970+281380293+281475906+281580180
2386+281515806+280791387+279044400+276446617+273486975+270318214+266862558
2372+263352954+260022846+256841362+253631819+250543741+248404647+247825118
2359+248914101+251712230+255810409+261040817+266698728+270024405+269176883
2345+265809376+263468886+262971475+263517023+264986198+266890838+268670499
2332+270198606+271914868+274178279+276358248+278089662+280175121+282991546
2318+285847337+288239771+290249549+292211133+294417599+296646791+298576970
2305+300363729+302084828+303598353+304972907+306331594+307644882+308865315
2291+310097699+311498658+312953344+314199298+315178454+315908463+316433676
2278+316983269+317669738+318352933+319074043+319975788+320822998+321414919
2264+322029971+322795541+323457370+323880901+324179767+324632093+325272446
2251+325752720+326073429+326536346+327084395+327537015+327929288+328263972
2237+328463252+328623000+328847288+329072678+329338006+329788272+330304474
2224+330609628+330767832+330967517+331169776+331425248+331829914+332274811
2210+332686023+333053914+333351566+333749576+334338114+334838577+335211470
2197+335806737+336699915+337634904+338451517+339187263+339907932+340584655
2183+341212688+341924016+342799836+343771085+344748513+345682693+346569619
2170+347478094+348466039+349445967+350378604+351399682+352504975+353547125
2156+354552795+355679269+356905402+358021322+359020336+360178032+361540341
2143+362816413+363993048+365311889+366683354+367967334+369310041+370769692
2129+372233755+373578375+374818667+376214844+377878115+379615376+381317222
2116+383028815+384785161+386636055+388643387+390703674+392713396+394754818
2102+396857212+399100158+401580409+404150316+406771855+409607310+412664295
2089+415865876+419245446+422806608+426521009+430401520+434425230+438670250
2075+443140549+447664906+452297307+457166646+462188708+467383390+472976817
2062+478854216+484787329+491068474+497803563+504547625+511171803+517992282
2048+525075919+532167610+539023135+545606419+552283625+559397123+566680997
2035+573714841+580679182+587681805+594268803+600634015+607221712+613743326
2021+619912677+625510848+630574466+635834238+641463153+646771541+651536550
2008+655904102+659821976+663528470+667197234+670391019+673086070+675901373
1994+678750141+681219102+683610543+686125399+688254270+689616983+690873492
1981+692738029+694733704+695962484+696355823+696892583+697775831+698167920
1967+698453878+699303294+700006421+699955157+699558729+699465395+699702664
1954+700018556+700412631+700635263+700682629+701054712+701687600+702661019
1940+704153620+705429545+706429368+708094735+710560019+712950357+715326205
1927+718504545+721943101+725106658+728602141+732641223+737490814+743057506
1913+748188862+752887898+758191138+764164702+770520574+777120921+783302923
1900+788674563+793709497+799152847+805274613+811584883+817731582+823581142
1886+828476922+832424068+836168514+839542788+842437376+845252017+847522323
1873+848955717+849534032+849340966+850145885+852338523+853742497+853532368
1859+852431194+851043475+849765931+848002671+845012469+841723511+838660790
1846+834186004+828584891+824970407+822819985+820682067+818357924+814764621
1832+809014204+802345603+798285780+796828189+795166867+793122577+790807995
1819+787728284+784509271+782035088+779900553+777294129+774874813+773168994
1805+771138531+768349926+765976873+764895484+764510308+763624118+761767525
1792+761010486+762849943+764750593+765197770+764934538+764496481+763996717
1778+763741208+763068751+761221866+759443749+760359211+763585505+766716038
1765+768102876+768046979+768421489+769390569+770038534+770786011+771144636
1751+770529694+770861620+773321902+776190013+778298659+779223462+779468821
1738+780057874+779962187+780038016+783713399+789041278+793471934+796083801
1724+797400620+798572988+798725014+797425258+798793414+804260006+809755135
1711+813842760+816132188+816972116+818092927+819229845+819379958+821372838
1697+826776105+834326703+841840160+846844644+850423311+853119832+853772358
1684+856116066+863642320+870864155+874760185+876437687+879159509+883014793
1670+887706254+895220666+901909787+904429865+906235122+911206141+916656332
1657+919487595+918708051+917463531+921725760+925572512+927916661+934050930
1643+941732372+945844709+945555000+941954195+939706395+944646672+951845927
1630+956636458+958907426+959170437+958552774+960037357+962942978+964492873
1616+966548343+970245791+972446078+973615726+975819249+978098822+979560312
1603+981211483+982597364+983343959+984879585+987325011+989339293+990494672
1589+990961046+991272451+992457838+994195724+995733410+997019265+996935787
1576+996549655+998781421+1000584251+1000144576+1001863339+1007593530+1012701130
1562+1012689730+1006410865+1002867943+1011187568+1019856109+1025809521
1551+1031672174+1037375446+1040366310+1039620745+1035295632+1031061645
1539+1036667171+1046146000+1049762764+1051108267+1055088216+1057418906
1528+1054949944+1051989015+1050623359+1049329267+1051051120+1056062665
1516+1061602659+1065391307+1065490010+1061273969+1053924967+1053263175
1504+1063762568+1071940317+1073741823+1070604450+1066624280+1066254697
1493+1067558350+1066730264+1063975418+1062667425+1064202905+1067257094
1481+1068366579+1064882055+1058344297+1053001120+1052054547+1054719736
1470+1056379513+1054192538+1049709441+1045741260+1040962791+1032472459
1458+1021204995+1016573992+1020046233+1021078491+1016364672+1008609534
1447+1002379799+998617040+994865460+989544568+980612501+967396582+956995230
1433+950829041+944010989+938380236+934302614+929687644+929096753+934304526
1420+940346123+946474802+954517001+962253237+967826181+971449638+972893182
1406+973216576+975902874+980847637+984998881+987791531+990106334+993512749
1393+999612376+1005571819+1007622655+1006885181+1005912645+1004764621
1381+1005391183+1009427765+1014830958+1020590863+1026826923+1031085254
1369+1031927241+1030283498+1027477756+1026094817+1028364535+1032287557
1358+1034581987+1033805091+1031358047+1029179309+1026566707+1024103262
1346+1022074269+1017926702+1011437046+1005039031+1000668538+998154123+996666304
1333+995801884+994778819+994226541+994325832+994223378+996160802+1001356514
1319+1006300835+1009258014+1011951300+1014250657+1015201570+1015976922
1308+1018170370+1021241696+1023315553+1024691652+1026408283+1026724984
1296+1025255993+1024918771+1026447705+1028874008+1032457529+1037190029
1285+1042558875+1047343595+1050705219+1053959094+1056650394+1056245581
1273+1053851198+1051862952+1049784094+1047052563+1043502507+1039068246
1261+1034267933+1029225865+1025689122+1024846840+1024159600+1021402327
1250+1017808215+1015138760+1013122712+1011377251+1009695115+1007854481
1238+1007078982+1007447609+1006986311+1005209370+1003640279+1002870370
1227+1002415323+1002466145+1002503802+1001729554+1000643678+999815592+999276405
1213+998960807+999582883+1000693397+1000738998+1000955820+1002244690+1003278860
1200+1003493329+1002400319+1000856897+1000506583+1000276228+999136957+997865297
1186+996850985+995940818+994424755+991854223+989153068+986981758+985895368
1173+986921154+988816876+988573061+985162160+980840062+978575051+977114371
1159+973715826+970707530+970189158+969229640+966104770+962972471+961811429
1146+961807237+960612362+957874727+954731984+952218085+951444939+950797636
1132+947379158+942204335+938003004+935826620+935077819+933776740+930984678
1119+928148120+926390817+924209652+920007659+915370036+911550129+908775573
1105+908541172+908943999+906585876+902633655+899114931+896709295+896591102
1092+899317705+902799508+904443692+904640803+904853654+905719838+906701716
1078+906302566+905047970+904252907+903482482+903385324+905300463+908662675
1065+912613278+916063970+917715730+918546390+919770317+920611716+920629515
1051+920561776+920428726+919539888+918741883+919013058+919605862+921228570
1038+924680880+927062024+926724067+925878770+925030163+922836789+920204402
1024+919087342+919380949+919105582+917184413+914839455+912682120+909696036
1011+906234533+904239815+904692140+906554471+907327910+905399901+902659618
997+902077773+904058076+907484422+911161277+914587771+918385613+922636516
984+927121010+931973395+936108606+938093910+937337607+934052989+930665844
970+929408232+929237157+928528294+927193382+925717330+924124556+922426754
957+921448996+920688354+918927815+917385422+917352178+918326479+918982609
943+917868270+915617160+913990260+913219321+912594155+911120678+908159454
930+904202599+900572963+898084144+896148926+893917748+890936298+887466926
916+884757165+882931241+880762139+878656729+877082490+874214452+870414036
903+868603631+868529273+867657131+865161839+861823383+859255057+858322605
889+858329077+859126273+860330562+860270914+858833034+858074377+859530939
876+862501503+865962565+870216631+875469416+881053613+885969618+890433960
862+895746835+903091423+912465298+922428593+933356923+944791121+953644859
849+961387493+971813337+984159542+994028548+1000113906+1007464011+1018178975
835+1027023224+1029530652+1028075635+1027573296+1028237957+1028065706
824+1028163526+1030037183+1032845057+1034918473+1035896379+1036069807
812+1033588783+1027670528+1022841310+1021170354+1019172767+1018207365
800+1021648127+1025384115+1024720778+1016991455+1003573276+995986639+999386434
787+1003049976+997184455+985945970+978510622+975239831+971315338+966618067
773+961971839+957644225+954722276+951922712+946789002+939390871+933447756
760+931784448+932042605+931693763+931679494+931459951+929921603+928842715
746+928685835+928126055+927445213+927535825+927264357+925185498+923110979
733+922133956+919552171+913753138+907964770+905843695+904811289+901110017
719+897538043+897732139+900190951+902458315+905883558+912208245+918912811
706+922993816+924072704+922946524+921828729+921820565+922183455+923758430
692+925991226+926307265+926238203+928755118+930892301+929132350+927068717
679+927865839+929471263+929914322+928384285+923419590+915911135+915319508
665+924560186+935112313+944367039+948363463+942230445+931214592+929133306
652+936260190+937062240+930779624+930258604+934834078+936918820+938533217
638+943703408+949229795+953556085+956733911+950428273+935524996+926765475
625+924826065+924267682+927047461+927485518+921317932+918605891+927314002
611+942966595+956511499+966347628+974336137+977687905+971870338+962850527
##END=
