##TITLE=Sample description
##JCAMP-DX=4.24
##DATA TYPE=INFRARED SPECTRUM
##DATE=13/9/2023
##SAMPLING PROCEDURE=Instrument type and / or accessory
##ORIGIN=Default
##XUNITS=1/CM
##YUNITS=ABSORBANCE
##RESOLUTION=4
##FIRSTX=4397.6552
##LASTX=599.8556
##DELTAX=-1.9287962
##MAXY=1.7454003
##MINY=0.33905581
##XFACTOR=1
##YFACTOR=1.6255307e-009
##NPOINTS=1970
##FIRSTY=0.3611989
##XYDATA=(X++(Y..Y))
4398+222203678+221813385+222818102+222969430+222125777+222273016+222509762
4384+221084833+219677064+220106169+221482477+221966125+221205030+220874470
4371+221160515+220518957+219812625+220081308+220123110+219664927+219375691
4357+219380238+219596212+219500435+218635808+217552330+217116735+217089490
4344+216773121+216425620+216502072+216525741+216376925+217041291+217991463
4330+217535939+216296182+215883560+215795190+214971485+214066395+214097562
4317+214682194+214415069+213191886+212549044+212897718+213464438+213651407
4303+213566979+214153994+214907426+214185528+213099996+213711634+215021334
4290+215193746+214255326+213704538+214411145+214887240+214523202+214677354
4276+214787669+213512363+212170247+211856169+211555860+211588073+212407250
4263+212654648+212146597+211860808+212096417+212423549+212435209+212241805
4249+212031038+211981262+211989769+211934400+211776655+211419529+211457059
4236+212028471+212091650+211444078+211384585+212536632+213580730+213480553
4222+212845907+212334611+212172411+212464672+212675200+212332814+212142747
4209+212513201+212690600+212405765+211932347+211606590+211973341+212592716
4195+212324619+211171581+210034164+209587386+210035796+210965710+211599293
4182+211444133+210726948+210363771+210331614+209573030+208581606+208615414
4168+209539497+210648790+211549058+211984837+211666487+210802832+210036420
4155+209419612+209102491+209546996+210230099+210306625+209862064+209563185
4141+209949755+210858805+211481113+211512537+211509567+211839944+212001997
4128+211294309+210257471+209964532+210029306+209751052+209614850+209910209
4114+210394297+211222403+211874962+211617994+211391167+211686122+211509915
4101+210927301+210543480+210227385+210114742+210501624+211235658+211725559
4087+211398299+211025845+211710727+212615376+212581880+212023961+211709883
4074+211878720+212041819+211920283+212406461+213275232+213171884+212506400
4060+212328542+212450151+212602763+213298699+214482996+214989690+214681956
4047+214609958+214897837+215151798+215445434+215437734+215113646+215569500
4033+216686016+217099079+216705047+216143461+215751959+215897365+216367996
4020+216671092+217071963+217614115+217985450+218515428+219300046+219876024
4006+220233296+220585087+220815269+220755354+220514703+220640914+221289641
3993+221734018+221732258+221829959+222176727+222505344+222962995+223598008
3979+223882366+223733110+223437953+223326281+223611336+223854169+224054320
3966+224582667+225253192+226096424+227054095+227665439+227651725+227090414
3952+226353465+225740269+226088503+227263670+227781181+228572069+230682044
3939+232072139+231465250+229840280+228742702+229310668+230718565+230814745
3925+230150655+230718804+230809942+229453930+230331592+234502371+237508508
3912+237519582+236348522+233520041+227992241+223343625+223444608+227503972
3898+232957520+236354242+235961273+234523437+235810385+237347225+236841906
3885+236173782+235144113+235372847+239149062+240680035+238172562+235437620
3871+233400926+234091912+236282740+236458085+237703929+241176865+242568372
3858+239681552+232452348+227682251+235089606+244888069+249452166+247816433
3844+242461449+236933465+233303022+234543971+240173873+244371053+246247858
3831+247903794+249022676+249550216+248346522+243085975+240055179+243339771
3817+246716381+251224009+256175593+256951337+253436160+249900045+249074084
3804+247233287+246855719+251778262+256140685+259499071+263278000+265522749
3790+266277299+266451342+266631986+267199714+266708475+265678110+267916295
3777+272633150+275196449+273685424+271251653+273068708+277856643+282789087
3763+286306611+286437038+286469416+289743484+292153641+290707023+291661376
3750+303552727+318134468+335334933+365040329+393493520+409130322+414387826
3736+415364289+420719952+430957311+440025589+444695674+447197005+452199667
3723+462040646+475059991+488347524+499872069+507792498+514670682+528248330
3709+548366782+567563845+583702740+601008331+623134235+645200921+660730763
3696+667262180+664602590+656886071+651728524+654472376+660351178+661851772
3682+658018372+650738566+640152131+628881694+626274539+628158165+626389823
3669+626945634+630133239+629540028+625480755+620295194+613357095+604506696
3655+597911955+591566151+580242436+570357492+570751671+573765948+572657553
3642+568930014+564762755+559394735+552876555+546110539+537749655+527622007
3628+524466009+528072178+528568734+523260335+514471209+508265293+505850718
3615+503396945+501126804+499374963+497032367+495670378+495066826+493101652
3601+490717181+488145484+483571689+478729155+476660834+475204535+470893721
3588+467355682+468836548+470846200+470745840+469653030+467736513+465070104
3574+462428372+459791517+455391416+449307861+447387384+450637912+453062277
3561+453094582+452668062+451832879+449511917+447163491+445764724+443021055
3547+439724766+439305727+440574909+440724221+440173507+439770601+438891307
3534+437302784+435678584+434198855+431987676+429051465+427298194+427474162
3520+427917183+427672609+427047899+425732405+423941146+422696861+421702100
3507+419710854+417311643+416610445+416992120+416425272+415429558+414674971
3493+413368791+411335488+409507414+408393813+407563397+406739838+405839460
3480+404371538+402140962+399918306+398721689+398538350+398410343+397976599
3466+397344300+395893061+393590653+391620565+390338952+389171779+388000976
3453+386820052+385128310+382786007+380735470+379527413+378608041+377873401
3439+377335411+376484571+375181031+373839429+372896223+372115052+370923422
3426+369339849+367794485+366557276+365684252+365220111+364833009+363971866
3412+362917666+362162860+361256542+360098169+359418641+359009685+358042902
3399+356675596+355777601+355478245+354956389+353865669+352567518+351113310
3385+349408513+348026247+347394094+347009522+346472816+345598252+344225556
3372+342946583+342400636+342201053+341888166+341639742+340981665+339308696
3358+337444725+336367535+336094140+336110310+335423046+333328947+330814379
3345+329347923+328767399+328260466+327496273+326616135+326079759+325318352
3331+323579051+321534711+319775499+318211984+316851682+315650958+314379502
3318+312636094+310399725+308429417+306983165+305408558+303725322+302406345
3304+301184317+299558649+297826756+297186004+297641858+297526226+296297158
3291+294951743+294417493+294720662+294841226+294333670+294015211+294001387
3277+293569293+292821527+292471826+292644623+292718307+292056361+290965751
3264+290519742+290687625+290228288+289046925+288365563+288501986+288470708
3250+287716837+286304154+284479124+283403603+283884391+284946767+285287338
3237+284922713+284831190+285160614+284978686+284174543+283538137+283054452
3223+282561178+282516407+282832758+283116420+283272423+283324785+283534983
3210+284004881+284560893+285022376+285269370+285312345+284989008+284516525
3196+284784072+285670443+286143366+285979296+285669178+285844413+286598615
3183+287037529+286731958+286500804+286874229+287432459+287771985+287952391
3169+288361878+289027069+289300042+289237707+289811338+290980033+291636112
3156+291517088+291263145+291054505+290725980+290667752+291147678+291572841
3142+291478587+291073279+290766718+290560590+290341280+290530101+290727850
3129+290108311+289514036+289673926+289923688+289958046+289807855+289290050
3115+288594040+288111199+287925513+287817838+287640952+287278693+286539690
3102+285615221+284957492+284806293+284871598+284760403+284797602+285327287
3088+286219250+287153234+287645884+287757813+288050220+288593087+289113642
3075+289592890+290167493+290702861+290827862+290690541+290807144+291074269
3061+291250000+291471400+291637377+291610536+291587912+291638587+291584520
3047+291388036+291367153+291800585+292483266+293091604+293376054+293123083
3034+292697883+292734771+293134688+293375926+293558806+294081506+294882881
3020+295894362+297005763+297729898+297917948+298067773+298713255+299882023
3007+301322206+302942538+304842645+307080812+309607297+312756951+317046535
2993+322520195+328928260+336066602+343660725+350960698+357236760+362576289
2980+367202923+370943149+374055843+377173669+380148015+382341667+383743110
2966+385048777+386561948+387492503+387427748+387229889+387934534+389615239
2953+391148247+391875186+392480132+393148659+393319054+393179020+392945850
2939+391978736+389824576+386848397+383982624+382018293+380834290+379797544
2926+378725194+377465729+375311055+372240456+368957367+365648465+362338828
2912+359115362+355991411+353031403+350239736+347777163+345743640+344035946
2899+342947573+342559371+342278825+342055702+342192913+342648547+343593036
2885+345015124+346480589+347804774+349017708+349862204+349769361+348740793
2872+347509524+346507210+345583511+344511748+343148879+341331439+339038124
2858+336403323+333478808+330094810+326187049+322151536+318265152+314652017
2845+311703779+309473129+307499356+305479895+303547740+301804956+300272737
2831+299217089+298668392+298118081+297127812+296091763+295646763+295525759
2818+295222865+294713806+294058900+293428104+293195502+293448638+293837390
2804+294148590+294430033+294756469+295179175+295567872+295650081+295296915
2791+294808555+294551441+294338437+293900972+293385753+292852621+292262783
2777+291851755+291647919+291378759+290882588+290027807+288893066+288007044
2764+287775212+287793399+287494501+287070933+286907248+286834352+286570766
2750+286380662+286380093+286147234+285689290+285329451+285108747+284862871
2737+284512437+284274958+284150984+283923570+283713189+283737078+283933581
2723+284017128+283878872+283717479+283590077+283432258+283446816+283731193
2710+284061038+284390975+284651005+284603465+284399243+284206481+283851298
2696+283475270+283435595+283565858+283373810+282843887+282420080+282224366
2683+282029513+281739911+281357979+280905168+280469500+280036985+279496556
2669+278886880+278297684+277765689+277288714+276776318+276290231+275970470
2656+275766542+275563164+275354781+275289384+275412386+275473841+275195551
2642+274676005+274245836+274065889+274210525+274544789+274710931+274666856
2629+274658991+274692964+274654719+274712471+274951930+275314446+275821690
2615+276278828+276602495+276999607+277428070+277727499+278025334+278501575
2602+279063381+279541401+279879460+280160042+280567586+281067643+281438300
2588+281594376+281663550+281884034+282233038+282384476+282223633+281977885
2575+281851271+281807031+281735052+281617697+281468551+281253952+280932596
2561+280619728+280484203+280445024+280319033+280237741+280377647+280436737
2548+280216180+280010730+280045767+280374677+280866630+281237140+281451519
2534+281588436+281547735+281449557+281681224+282130093+282417147+282647201
2521+282973947+283302399+283598767+283871044+284202392+284723479+285248818
2507+285493521+285623765+285969524+286454511+286739566+286815084+286961736
2494+287183962+287388183+287670507+287986382+288235191+288512601+288876621
2480+289184429+289193376+288917120+288727933+288757121+288841200+289011412
2467+289235159+289327837+289376330+289436282+289353302+289231694+289246177
2453+289283505+289257508+289261175+289343310+289511432+289843221+290280393
2440+290564935+290613392+290595039+290703154+290941312+291078321+291075883
2426+291116804+291155012+291152610+291355310+291748205+291929509+291906940
2413+292048954+292315511+292517881+292766433+293136338+293558916+294029841
2399+294460046+294743745+294953136+295135522+295337268+295623241+295859290
2386+295627054+294425908+292088262+288768304+284745718+280353941+275739224
2372+270925181+266186509+261818475+257864146+254813567+253226823+252812715
2359+253597626+256451812+261640196+268623305+275532436+278985077+277413403
2345+273096172+270196500+269852630+270935027+272659165+274412051+275813660
2332+277073932+278964928+281506190+283827244+285918482+288602364+291974280
2318+295375238+298278393+300672287+302967454+305372440+307725798+309961801
2305+312102761+314091843+315960801+317695041+319127359+320435300+321904322
2291+323272471+324432494+325804897+327354038+328466136+329012376+329508088
2278+330136905+330744637+331343459+331887572+332432786+333116164+333731596
2264+334163396+334625374+335124826+335524212+335970863+336576945+337131289
2251+337576032+338071451+338525765+338812214+339006224+339190296+339496582
2237+339897875+340202034+340511144+340944410+341334629+341643115+341911194
2224+342031758+342118550+342411269+342893121+343419671+343846411+344157244
2210+344501444+344918577+345300986+345672211+346115268+346567858+347033320
2197+347627228+348362308+349065229+349583052+350121409+350914680+351754043
2183+352486702+353362806+354336703+355042485+355506553+355989101+356671929
2170+357638236+358741643+359782166+360783637+361798822+362707413+363598844
2156+364711309+365928753+367118807+368449665+369964192+371361749+372446933
2143+373473924+374720777+376153718+377648848+379166638+380725753+382230747
2129+383593652+385022010+386635833+388243093+389767227+391329166+393048336
2116+394889097+396704446+398484302+400330856+402352058+404464564+406456396
2102+408498646+410770803+413098036+415557235+418315388+421255302+424276400
2089+427291960+430366006+433810506+437615707+441316699+444733515+448366012
2075+452658272+457462231+462417225+467230204+471892186+476811062+482332464
2062+488292742+494263031+500096366+506028960+512183321+518476140+524929637
2048+531538936+538283135+544975303+551313920+557712086+564695909+571948288
2035+579079553+586192704+593373030+600299286+606653816+612621282+618681077
2021+624814134+630391821+635446404+640917314+646940002+652448166+656857836
2008+660777845+664850245+669066089+673291174+677435002+681340710+684723756
1994+687131437+689006115+691433377+694266112+696864099+699096582+701087131
1981+702957482+704330545+705154764+705971869+706927945+707833567+708364223
1967+708689687+709356748+709998434+710449888+711023739+711182071+710666082
1954+709958100+709494692+709576241+709984647+710135645+709585335+709101246
1940+710177813+712342387+714170204+715541140+717112135+719072469+721211743
1927+722883061+723786116+725570298+728664034+731466261+735309341+741392676
1913+747405096+752247887+757062737+762972340+769810446+776476873+782559842
1900+788450819+794330281+800150195+805714022+810375013+814350830+819385173
1886+825673262+831763124+836958366+841040886+844536135+848178641+851409881
1873+852810518+851498178+849753010+851825034+856481186+859511633+859864011
1859+858450027+856167309+854120439+852130844+849202039+845944325+842406835
1846+837317344+832853625+831697856+830572447+827254084+823368030+819729190
1832+814400038+807727011+804023709+802487328+800229471+798611321+797243245
1819+794489493+791114515+787981544+784629300+781637647+780407662+779906706
1805+778386459+775503930+772045422+770024733+769678149+768045771+763630674
1792+760849934+763548685+767102969+768481165+768651450+767761156+767091895
1778+767805524+766830893+762202756+758244100+760619954+766297083+770648892
1765+771967760+770856799+771067785+773182491+775138278+776805417+776334015
1751+773095441+771541606+774206769+777768680+779220652+778776311+779898933
1738+782189057+780244710+777575147+782544882+789881890+795827721+800116901
1724+802086916+802171838+799215900+793300943+792619875+801004189+810577493
1711+817192585+819815873+819166046+818721632+818008517+814176145+813334618
1697+820320422+832398724+844602283+851245463+854084505+854344773+850269953
1684+850780589+862629497+873431759+878029975+879346643+883019510+888550335
1670+893448568+901169121+909433971+912977694+915413830+921977441+928360206
1657+927904205+918376882+914584258+928917923+938246726+940942983+950288287
1643+962910886+969130919+967421759+961131617+961183979+973467401+984691343
1630+989803422+992093106+993005621+992783561+994841065+998527426+999824806
1616+1001647196+1007669370+1013369087+1016922858+1019624908+1021579962
1605+1023066402+1025574993+1029111530+1031669476+1032872913+1034598280
1593+1037124765+1038561703+1038823438+1040084957+1042188003+1043250049
1582+1043523664+1041910647+1035875933+1030952913+1033782055+1036659011
1570+1036484472+1038600498+1041935288+1043137479+1040941737+1032324729
1558+1027868638+1039183443+1049665448+1055538824+1060769707+1066556473
1547+1068637004+1063089899+1053222372+1047702547+1055044322+1065236872
1535+1067188773+1065646671+1067923302+1069903437+1067695008+1064093717
1524+1059895106+1056229939+1057771673+1061055349+1064289889+1068671179
1512+1068798856+1061820313+1051228230+1048759093+1060642763+1070997971
1501+1073732069+1071166203+1069224349+1071596463+1072140833+1066526332
1489+1062532988+1067065056+1072650222+1073741823+1071769902+1067780591
1477+1061330651+1053929841+1049114258+1051224343+1056055473+1054839642
1466+1048863450+1046537318+1046721463+1040215788+1025592887+1017690755
1454+1022096978+1025169960+1022894723+1017174839+1010193948+1004818595
1443+1001183935+995516999+984206888+969470243+960918504+958006934+952644340
1429+945156041+940584812+939782887+940343905+939328353+939601675+947846578
1416+958676048+966053977+972021076+976583064+977833730+977925986+980081686
1402+983921905+988783763+994265967+998036664+1002651454+1010902517+1016959012
1389+1017092043+1015466046+1016303025+1017340797+1016161047+1016552806
1377+1022323805+1030175116+1035122703+1036671918+1037020409+1037767112
1366+1037641855+1034990112+1032308156+1032729029+1034973538+1036554581
1354+1036616769+1034871895+1032104356+1029556530+1026558790+1022798140
1342+1017736149+1011107050+1006957355+1006274967+1004427789+1001471704
1331+1000738421+1001799368+1003024586+1004588101+1005661881+1005233161
1319+1004988440+1006968502+1010817521+1015059693+1018406950+1020408719
1308+1022293664+1025181107+1028026603+1029820832+1031392780+1033099814
1296+1033507413+1032379511+1032873720+1036849757+1042106600+1047431719
1285+1052682255+1057128960+1062384557+1068494660+1071860178+1071618464
1273+1069641262+1066890663+1064175339+1061339011+1056727154+1051262478
1261+1048081692+1046767225+1045044131+1043398847+1042013244+1039134308
1250+1034215102+1028529832+1024359015+1023391205+1024083127+1023390985
1238+1020151605+1016111619+1014520383+1015705193+1017091089+1017300023
1227+1016404668+1015453945+1015873132+1017263648+1017822685+1016635529
1215+1014931209+1014798692+1015416764+1014783951+1014290989+1014378992
1204+1013226376+1012260986+1013641456+1015861691+1015635964+1012777342
1192+1010882790+1011121424+1011072729+1009387477+1006421565+1003333475
1180+1001459017+1000678139+1000447572+1000407898+999659654+998783881+997746328
1167+994667553+991483760+990635047+990165919+989000103+987362006+984519004
1153+980970000+977763181+975642462+974736033+973644653+971813243+970630926
1140+970292702+969255296+967019880+963661183+959274393+955353431+953362296
1126+953271580+953190251+950303541+945021543+941395757+940854981+940795065
1113+940150079+938764329+934889202+929222633+924487205+920767550+917031320
1099+914338070+913103392+911647606+909370462+907670836+907515878+908144878
1086+909028498+909351542+908436827+908548517+911188746+914629726+916438329
1072+916403274+917344317+919899110+921025911+919808393+919335819+922566472
1059+928209134+931401580+929936188+926936468+926657720+929799270+933429897
1045+936023337+937067343+936088093+935695600+936191716+935342343+935061981
1032+936572914+936652337+934149392+931183187+928040756+924883951+923662400
1018+924012431+924152575+924279006+924066552+922165767+919604740+918227424
1005+917049214+914043114+910387774+908628233+909413657+912872091+917191485
991+919531771+921203677+924258545+928014502+932215606+937803999+944110642
978+948071425+948283731+946857134+945467791+944789583+945987300+947448806
964+946301397+944085121+943168573+943033562+943197540+943468589+942106893
951+938895893+936598142+936068292+935973909+935747302+935258153+934378786
937+933128854+931884129+930366815+928718817+927265598+924187996+920367577
924+918645364+917637586+915310427+912781962+912455618+914385812+914957683
910+912040832+907842002+904583407+902904388+903687466+906010225+906625144
897+905108710+904344260+905105263+905278629+904907917+906679559+910594067
883+914039227+915765914+916328105+917872920+921718419+925437782+927139314
870+928479743+930488405+932631418+935681007+939995561+943604699+946595326
856+952013214+960208029+967578551+972654842+979080875+988778483+998508579
843+1005283763+1010029090+1015646818+1022165767+1026253567+1027307914
831+1028675696+1031472203+1033674471+1034429535+1034667216+1035925141
820+1039054372+1043147819+1045684278+1043542878+1037391487+1033028531
808+1033631790+1036167516+1037600933+1036489019+1032651953+1028531665
797+1025598680+1023512576+1021805689+1020966437+1019429322+1013362780
785+1005532884+1001010716+997700860+992160575+985752656+980736060+977220204
772+974679418+971560601+966348493+960516625+956740061+955141565+953469659
758+951231603+950422345+952026268+953499434+951689291+948455117+946777638
745+944724974+940489843+937773125+938775256+940008688+939330187+937797912
731+936563454+934103264+927718519+921177643+919538885+919809053+917505728
718+914763123+913781746+914013193+917795257+924657931+929132650+931422921
704+935942375+942504519+946268322+943854040+940120524+941627938+944770809
691+944054100+943383153+945849062+948625035+951009249+953193624+954712771
677+957527612+958909695+954268284+944130296+930606182+928690876+941494761
664+951719945+959409404+964260115+962758201+959404930+953460272+943722550
650+939800341+945770080+949912882+945517366+940433154+938250466+937725017
637+939500839+943257529+949115137+957494318+960815248+950459599+934962244
623+930424457+940239035+951888837+951821441+941879919+933626803+934472509
609+943792292+960352793+976247187+972710284+953012705+944654719
##END=
