##TITLE=Sample description
##JCAMP-DX=4.24
##DATA TYPE=INFRARED SPECTRUM
##DATE=13/9/2023
##SAMPLING PROCEDURE=Instrument type and / or accessory
##ORIGIN=Default
##XUNITS=1/CM
##YUNITS=ABSORBANCE
##RESOLUTION=4
##FIRSTX=4397.6552
##LASTX=599.8556
##DELTAX=-1.9287962
##MAXY=1.8272418
##MINY=0.45553142
##XFACTOR=1
##YFACTOR=1.7017515e-009
##NPOINTS=1970
##FIRSTY=0.47045341
##XYDATA=(X++(Y..Y))
4398+276452470+276860797+275357627+274165657+275138683+276927451+277945729
4384+278093519+277147253+275342408+274728955+276564674+278549918+278400569
4371+276975471+276199411+277002598+277418770+275665798+273914595+273726403
4357+273986415+273691973+273337813+273965137+275059210+275501897+275115986
4344+274196375+273368881+273537651+274341048+274222837+273459071+272970641
4330+272592786+272746688+273308497+273649785+273907292+273823651+273506583
4317+273544148+273434063+272820049+272052378+271468731+271912942+272651944
4303+271719882+270291578+270653759+272345261+273406323+272967716+272320498
4290+272663678+273316623+273355028+273073598+273336885+273893545+273404134
4276+271545875+269965596+269986138+270443203+270007872+269222390+269068401
4263+270073019+271594193+272508357+272661559+272191797+271855027+272108787
4249+272003062+271529010+270833580+269129573+267683862+268509622+270387478
4236+271278998+271825816+272504540+272310218+271619026+271683823+272558041
4222+273198832+272819839+272005987+271816902+272183216+272409708+272730419
4209+273534761+274263098+274156043+272980763+271742771+271755047+273027067
4195+274618292+275152097+273956135+272104566+271073136+271082891+271528432
4182+272135424+272511510+272584363+272788298+272555624+272032221+272361531
4168+272903970+272769385+272124513+271183939+270702479+270753757+270689380
4155+271089353+272075355+272609949+272540703+272263932+272083674+272627952
4141+273674811+273554778+271880298+270688872+271097934+271981469+272091677
4128+271283884+270570013+270936660+271771614+271774836+271298490+271532495
4114+272073534+272282408+272157893+271349225+270498508+270507948+271000616
4101+271707903+272577673+273182668+273234733+272716846+271860281+271161243
4087+271072068+271656118+272279676+272109697+271649813+272021153+272571718
4074+272057212+271116007+270856696+271068425+271475789+272272951+272871046
4060+272560072+272131571+272579634+273473029+274141840+274381887+274057691
4047+273599961+273505305+273419913+273077766+272871326+272918103+273004108
4033+273010150+272956648+273386026+274349156+274900649+274935114+274818375
4020+274411204+274144222+274351643+274605788+275077668+276006771+276549578
4006+276537320+276915490+277550063+277432816+276179412+274272993+273321544
3993+274450169+276253053+277596840+279028296+279750539+279155981+278564751
3979+278474263+278480813+278436961+278316771+278444859+278881399+279440528
3966+280338791+281388872+282058734+282269570+282216437+282136666+281851471
3952+281154394+280955222+282314420+283672726+282929415+281882241+282486413
3939+283053195+282145370+280174224+279114003+281100893+284296792+285041591
3925+283809027+283467231+283426181+282484592+282538776+284962328+287677503
3912+288589303+287733158+285143970+280848447+277334219+276957012+279375836
3898+283580241+286505323+285560248+283721639+285167753+286361158+284940490
3885+283788835+282964616+283467809+287062228+288265598+285419393+282608091
3871+280846871+281186793+283129988+284107392+285992830+289300110+290375812
3858+287148390+279310321+274053156+281339872+290037606+292962776+291352095
3844+288101976+284836920+282441090+283082109+286344503+288838702+290721759
3831+292677984+293061408+292022465+290150949+286247045+284307335+286855490
3817+289598439+293745788+298496782+299879027+297098636+293576002+293284590
3804+292961795+292082726+294130472+296552308+298929837+302305452+305050993
3790+306325255+305728911+304124745+304210312+304999121+304543089+306094367
3777+310241347+312482207+311088263+308772309+309111286+311594171+314435157
3763+316033474+315578283+316396688+319828694+321432335+319349651+319566388
3750+328806947+339764595+352350122+375088761+399097214+415818128+425120857
3736+427885032+430218044+435508956+439963950+440791953+440096557+441668605
3723+447385147+456790676+467620201+477722071+485225297+490941174+500414127
3709+514549671+528876103+542542305+557678142+575742667+593580053+607041881
3696+614160388+613234594+607422258+604935380+607172807+608729338+606047859
3682+598607328+589706866+581208181+572139737+566719931+563274161+556286930
3669+551705248+550546641+547174003+542387458+537979503+532015996+523071577
3655+514337696+504905303+490822963+479286344+478862641+480769252+478077475
3642+472282651+466574200+461610426+456616039+451112417+444306268+435092538
3628+429266962+429341952+428009163+422055743+413986016+409664923+408826624
3615+406766951+403519145+400323561+397294523+396028563+395845660+393740209
3601+390251287+387755302+385403552+382527085+380674728+378818168+374629683
3588+370843955+371177607+372592952+372193101+370563716+368792303+367010697
3574+365633566+363941591+359518750+353272588+350958560+353085902+354633152
3561+354283458+353419309+352307881+350353705+348163878+346445073+344542525
3547+342952719+342786803+343438312+343765415+342970056+341222180+339551010
3534+338371808+337011488+334981727+333112453+332290791+332311876+332537755
3520+332506302+332133877+331314841+329735298+327919647+326912700+326594038
3507+325959132+324792258+324117983+324269958+324301026+323693439+322510559
3493+321253180+320267108+319502432+319028607+318572400+318096089+318021870
3480+318151955+317890945+316854436+315446307+314682122+314557081+314367383
3466+314114499+313826554+313216411+312452891+311939032+311614941+311166055
3453+310551498+309650083+308548216+307943852+307788654+307601163+307893275
3439+308651962+308751294+308145914+307830054+307788934+307142994+305993809
3426+305285944+305216314+305373052+305425135+305491509+305942251+306448264
3412+306421785+305701486+304794292+304540707+304732086+304746727+304593911
3399+304528448+304857513+305232705+305007387+304344740+303690919+303375760
3385+303671095+304316474+304797864+305038489+304995478+304546732+304160226
3372+304251642+304363338+304106321+303694422+303328371+303143857+303152683
3358+302992056+302430843+302010082+302231548+302300268+301507782+300685314
3345+300354848+299825894+298988995+298548655+298666796+298654852+297835011
3331+296543797+295450652+294671791+294291625+294199543+293999968+293603864
3318+292995017+291924779+290449874+289025650+287888724+287054172+286134701
3304+284755363+283213839+281954551+281517696+281792173+282034077+282501421
3291+283579138+284659411+285219836+285299116+285220519+285485504+286098712
3277+286665179+287209160+287960316+289079870+290156815+290215781+289536287
3264+289624603+290470714+290696173+290333554+290550870+291500200+292097734
3250+291807723+291307700+291080209+291320169+292025722+292681556+292924861
3237+292718175+292583310+293141161+294043014+294711720+295146316+295405435
3223+295381197+295239379+295526868+296276238+296851706+297285111+297979421
3210+298916948+300078322+301107371+301691666+301984268+302131165+302476902
3196+303165817+303994555+304914709+305796335+306412994+306612639+306576773
3183+306854700+307365126+307502251+307574753+308128261+308881869+309732708
3169+310605122+311165144+311842957+312873091+313630097+313963609+314175863
3156+314518623+315240778+316049866+316307478+315972880+315649630+315779224
3142+316173646+316619660+317111803+317225041+316712653+316235851+316190073
3129+316227410+316123069+315821745+315586374+315970148+316843333+317312429
3115+316806521+315805914+315081062+314693470+314216878+313424532+312576636
3102+311909540+311345771+310979369+310872086+310669429+310412972+310627433
3088+311297996+312145962+313028849+313623197+313672127+313318020+312988220
3075+312837645+312898204+313337179+313822772+314047705+314363775+314873571
3061+315140220+315063514+315052446+315405362+316038553+316477667+316325131
3047+315896665+315623606+315183721+314350255+313646068+313260893+312945384
3034+312542100+311950170+311306962+310643930+310016904+309578140+309098957
3020+308795496+308986490+308976473+308347660+307693770+307407262+307175568
3007+306675895+306257516+306337549+306791969+307538082+308628390+310085274
2993+312196224+315199308+318586866+321382634+323439119+325219289+326552358
2980+327249330+327482670+327436716+327421305+327205653+326457894+325554272
2966+324653312+323787237+323323290+323257897+323047079+322469789+322086261
2953+322119184+322190671+322196030+322161425+322192633+322262299+322019817
2939+321565082+321103481+320311310+319128675+318089995+317606048+317392953
2926+316991071+316511537+316130740+315762902+315365433+314949051+314609199
2912+314385071+314304897+314511863+314922116+315134966+315012377+314979103
2899+315126350+315129817+315282843+315975752+316823684+317275758+317325914
2885+317272185+317253551+317225111+317101051+317068197+317342656+317408189
2872+316862807+316420716+316632200+317024415+317073731+316898428+316797135
2858+316671708+316355498+315714007+314669582+313684211+313028569+312620943
2845+312686230+313093576+313514548+313857482+313958671+314083817+314639706
2831+315361125+315854249+316040479+316058132+316177254+316318336+316250002
2818+316243452+316506178+316835347+317171522+317586574+318069610+318576779
2804+319190915+320084730+321132727+321933479+322238551+322261108+322402225
2791+322650241+322762883+322710169+322605758+322632238+322902739+323229632
2777+323408612+323378770+323032228+322660993+322617492+322529052+322333225
2764+322438897+322588701+322551084+322594025+322773425+323087253+323482131
2750+323698413+323699919+323529275+323196078+322972825+323066063+323231068
2737+323131596+322862355+322773110+322955102+323112227+322952721+322670906
2723+322614760+322848625+323343220+323760093+323665909+323485038+323752422
2710+324091854+324220047+324373529+324510829+324468903+324405577+324457520
2696+324472406+324242919+323950001+324085900+324575451+324836110+324667497
2683+324323582+324155880+324101276+323866150+323571375+323333447+323028656
2669+322641764+322264190+321943076+321623819+321288520+321034866+321057037
2656+321354438+321538252+321537131+321653241+321679089+321284072+320823067
2642+320666153+320505071+320139300+319913631+319870269+319841793+319977132
2629+320208125+320248754+320139125+320153065+320407665+320743244+320936620
2615+320915394+320921138+321254581+321832291+322339985+322590102+322700292
2602+322895769+323270507+323888531+324627498+325247764+325783024+326240316
2588+326441783+326494251+326655648+326915292+327154236+327387015+327710440
2575+328058313+328220026+328189659+328130851+328127944+328146857+328082200
2561+327896250+327749423+327851558+328181182+328591226+328928171+329104699
2548+329296148+329550503+329602411+329408405+329293486+329336287+329229740
2534+329146414+329380875+329694178+329970073+330156759+330273464+330574928
2521+330895972+331075757+331440477+331997417+332371875+332499052+332608192
2507+332854280+333078689+333176130+333537838+334234599+334764955+335098432
2494+335584831+336120440+336379209+336386599+336450030+336848445+337496591
2480+337989329+338102812+337946633+337799877+337819981+337837634+337683802
2467+337561248+337689722+337885689+337945267+337912589+337844079+337751962
2453+337728950+337947369+338328796+338541436+338653868+339009621+339426530
2440+339670902+339949250+340156285+340137862+340244409+340547485+340746009
2426+340850735+340991993+341078961+341043866+340963587+341041764+341435836
2413+341889801+342108675+342233541+342471258+342825471+343205602+343480552
2399+343652107+343939701+344349639+344607602+344694850+344810820+344965948
2386+344841467+344016582+342281245+339636752+336461483+333288877+330041210
2372+326345042+322378058+318636882+315245401+312355310+310715697+310649779
2359+311874830+314485944+318546376+324072345+329899917+332962089+331649825
2345+327874815+325289690+324889769+325879939+327592334+329088027+330155533
2332+331350217+333226356+335674461+337929086+339833490+342065313+344895756
2318+347824901+350269294+352223505+354187803+356260050+358161618+359908338
2305+361588370+363241782+364892707+366458486+367981393+369540132+370947525
2291+371990443+372869933+373911555+375092159+376173745+376972641+377603835
2278+378338494+379269857+380356207+381431594+382307055+382979404+383622822
2264+384407953+385277320+386080909+386886495+387781326+388597524+389182905
2251+389687342+390322424+391009588+391600223+392064170+392395476+392789232
2237+393370270+393977051+394599489+395285322+395876447+396347785+396908403
2224+397539386+398029393+398422624+398876589+399375947+399754712+399946477
2210+400182513+400628808+401172578+401762792+402371150+402892784+403340024
2197+403752029+404295309+405144256+406015200+406689160+407403609+408262364
2183+409109665+409892834+410671731+411402992+412035938+412660232+413356012
2170+414244714+415399188+416532858+417410245+418257056+419339974+420599805
2156+421860617+423110290+424333134+425368277+426259395+427304485+428605331
2143+429994301+431268843+432404298+433691274+435175934+436478496+437635913
2129+438938089+440360053+441868040+443547581+445453912+447383676+449096001
2116+450704616+452357082+454206182+456273315+458133412+459745320+461750247
2102+464302588+466755282+468795130+470820758+473192963+475909363+478726567
2089+481456907+484231625+487344478+490932732+494694853+498180623+501440934
2075+504901975+508880028+513421080+518096560+522395761+526628834+531336607
2062+536338805+541419704+546719618+552274868+557987872+563828964+569920173
2048+576242901+582446892+588296531+594110268+600379477+607042442+613715214
2035+620090340+626056158+632134548+638766410+645293896+651146442+657020704
2021+663403325+669383713+674439079+679676088+685723375+691644570+696771388
2008+701440073+706096149+710688198+714849644+718683742+722390487+725638469
1994+728475182+731228394+733925425+736966967+740530808+743845548+746336700
1981+748403623+750613450+752742648+754400193+755904957+757398654+758226095
1967+758439260+759303269+760659735+760991916+760614062+761040742+762309575
1954+763478865+764238707+764468965+764080392+763641593+763346469+763479916
1940+764781462+766522998+768015574+769728319+771451292+772678094+773943354
1927+775640548+777196239+778642511+780362612+782420568+786030924+791432481
1913+796488828+799847000+802628302+806884878+812503243+817853734+822159975
1900+826082687+830627662+835740330+841141187+846019885+849743442+853945448
1886+859186169+864390603+869902141+875933176+881284998+884989011+887261534
1873+888021586+887218943+887219713+890228401+894290164+896913082+897870048
1859+898406638+899037096+899004032+898273331+897210798+895399351+892378614
1846+888282946+886007482+887549373+888202528+885539191+882555371+880476680
1832+876844119+871932847+869659414+868532925+865600733+863159107+861549127
1819+859577193+858230043+856771022+853474005+849739239+847748742+846648662
1805+844787268+841943761+838802677+836820866+836426409+835071413+830876903
1792+828106459+831041313+834830088+835298799+833632287+831768512+831064570
1778+831734817+831190311+827974063+824315092+824556628+828367329+832096210
1765+833484129+832782009+833097868+834799966+836066417+837351011+836591589
1751+832579211+830482447+833142351+836942544+839362454+839844754+839880200
1738+840888093+839733373+837341834+841172080+848227890+853550921+855955069
1724+856184766+856081721+854709984+851277348+851506344+858413857+865856279
1711+870278594+871461264+871016511+871321163+870723278+867279013+866888129
1697+871992881+879868778+889664071+896848425+900109296+900144181+895820427
1684+894078751+903352934+914249148+920061834+920605219+921203174+924249970
1670+927093828+932349189+939471408+943776669+947249864+952812749+956779734
1657+955726588+948725907+944774965+953089240+958534300+960965908+970160163
1643+980458282+983878379+980591168+973790413+972241797+981568029+990468281
1630+993395079+993417425+993228428+993474446+996102547+998394824+996542678
1616+996653078+1003583217+1008526572+1007994745+1007066850+1009023023
1605+1011460935+1013529049+1017044135+1020623318+1022079046+1023031249
1593+1025320794+1027700494+1028333754+1027849422+1029275029+1033806904
1582+1037527099+1035941847+1029744090+1026171422+1028593994+1029372049
1570+1028032395+1030364181+1034480864+1035589140+1030060860+1016068396
1558+1010681409+1025794758+1039425410+1047905146+1053409188+1055402768
1547+1053977862+1049236394+1041574432+1033839898+1036230667+1046183224
1535+1051313894+1054379183+1061630436+1066660794+1065079114+1060420096
1524+1054375961+1049290613+1050711667+1055952457+1061049504+1064339446
1512+1064265542+1059577383+1048641521+1044167438+1058437444+1071360652
1501+1073655941+1070528937+1070140154+1071871673+1069713544+1064338605
1489+1062931492+1067563891+1070949102+1068628665+1063766009+1062247165
1477+1063123502+1060168053+1051243914+1045939797+1049190370+1050435316
1466+1045465272+1041839225+1041240920+1035341650+1022557284+1017638027
1454+1022561137+1022214175+1016082196+1010382571+1007613878+1004742070
1443+998059420+989668299+980691621+968251065+958512934+954619433+950303595
1429+945413269+943264036+942593648+940500176+937721325+938668204+946634607
1416+957321508+965706955+970321631+972922482+975440113+976501314+978945322
1402+985967368+991690599+992221936+993260861+1000686611+1010117358+1012719751
1389+1009053004+1006600031+1009104492+1013781653+1018381968+1021980345
1377+1023835293+1025426360+1028426922+1032015071+1035114475+1037373478
1366+1037030789+1033449504+1031762117+1033871071+1033527051+1030223449
1354+1029552291+1031072396+1030535315+1027653700+1023787519+1019659487
1342+1014848669+1008233759+1002354173+1000075556+998364632+995560984+994440379
1329+995916842+999666669+1004563650+1007413182+1007973379+1008613365+1010237916
1315+1012683745+1014865481+1016062301+1018163339+1021896494+1025445905
1304+1028725339+1030647327+1029860725+1030367894+1033717099+1035836070
1292+1036419454+1038152794+1042230600+1049580694+1058225120+1063724189
1281+1065434692+1066502619+1068872372+1071959867+1073741823+1072241052
1269+1068355186+1065173543+1064140641+1063572178+1061684586+1059277215
1258+1056524353+1053792787+1052457826+1052023090+1051706880+1051086719
1246+1049553024+1046205850+1040860123+1035629420+1032946889+1033944344
1234+1036169302+1036415181+1035729592+1035007507+1033548066+1031187139
1223+1027891943+1024659653+1023295831+1024953937+1027854746+1028119819
1211+1025572487+1023619046+1022636442+1021167894+1020458768+1021088596
1200+1021887667+1022081288+1021287611+1021035848+1022267343+1022804144
1188+1022262019+1023242032+1024973901+1023393202+1018707144+1015702660
1177+1016754405+1019050884+1018904828+1015890466+1011632770+1007548030
1165+1004956846+1005600614+1007709077+1006683251+1002723412+998507746+994837708
1151+992248625+990580782+989986190+990478508+989173879+984842350+980836347
1138+979154494+978859089+978262115+975807670+972144917+969155073+967445970
1124+966309884+964893664+962827722+960036192+956898820+953380932+950141637
1111+948243186+946399516+942845482+936932272+931314607+930247871+932298542
1097+933713711+933615430+932328384+931326586+930200026+927285557+924993070
1084+925468506+926809981+926681228+924848905+923510722+924362331+925963696
1070+925886360+924527231+924477005+926291815+928910599+931385709+933082062
1057+933521702+932338051+932110105+934081549+934338776+932193606+932288665
1043+937452470+943925807+944855733+941959757+941919058+943322318+942458800
1030+940554816+939174952+939030858+938954152+938033543+937550261+935865606
1016+933714902+934412750+934571485+931770919+930475537+933020417+936783343
1003+939025394+938807185+935882348+931649100+928735331+928812738+932051683
989+936806600+941228636+945526681+949578848+951303152+951043823+951418876
976+952430621+953380302+954305465+953847542+952502634+953681101+958163310
962+962480689+963017700+960339092+957944261+957334257+958766168+961182085
949+960282211+955908160+952534647+950778890+949424035+948676522+948189387
935+947969708+948054539+946887561+944555635+943270971+943205894+942666852
922+940883635+938797378+937400072+936310640+934687419+932810755+931664511
908+930492069+928058849+925147182+923439691+923412020+923206561+922060107
895+921380823+921737173+924477775+928578067+928887202+926533770+926760245
881+928870880+930378306+931220598+931967692+933005777+934286658+935685925
868+937160217+939904323+945182381+952529954+960403959+966298325+969480529
854+971746327+974690147+979004935+984984133+992896666+1001012137+1008156913
841+1015837298+1021117317+1020313412+1019346009+1024357453+1031328572
829+1034526467+1034266508+1033081457+1034745937+1041189573+1046270998
818+1044125758+1038479792+1033295673+1028887157+1026808255+1027285092
806+1028112183+1028082972+1026582481+1023599642+1022557634+1024602001
795+1024187580+1019868659+1016676298+1014814764+1009268201+999141287+991825658
781+993318513+997647801+997119827+993927466+990549680+986145367+981354303
768+977044489+973746841+972359903+971335618+967919164+964270841+958615489
754+949171431+947075577+954115697+958254236+956453086+952760771+951429383
741+953286714+955284567+958436368+960328094+955101173+945657186+936506292
727+930111762+928892876+928522797+924361351+919456454+916690493+916832066
714+919277964+921596020+925014996+932296931+941490556+947993875+949011645
700+946889732+947781971+951781950+951717223+945666153+939547483+937318392
687+938148566+943831238+952864517+953316556+944121740+938190387+941400331
673+946317766+941484882+930861307+932220295+943269780+948958897+948807797
660+948182873+949724414+952008775+952781156+948203468+937935331+929851943
646+925799216+915292136+905032125+911942230+925833611+930834338+934341438
633+936025672+931073281+930678054+936749369+942250399+948739147+952229225
619+952158684+951285569+940913477+920949800+906689461+910567340+931543533
606+951363676+952505226+945902364+948549309
##END=
