##TITLE=Sample description
##JCAMP-DX=4.24
##DATA TYPE=INFRARED SPECTRUM
##DATE=13/9/2023
##SAMPLING PROCEDURE=Instrument type and / or accessory
##ORIGIN=Default
##XUNITS=1/CM
##YUNITS=ABSORBANCE
##RESOLUTION=4
##FIRSTX=4397.6552
##LASTX=599.8556
##DELTAX=-1.9287962
##MAXY=1.8645092
##MINY=0.47970417
##XFACTOR=1
##YFACTOR=1.7364595e-009
##NPOINTS=1970
##FIRSTY=0.49726611
##XYDATA=(X++(Y..Y))
4398+286367810+286611057+285862832+284558210+283782473+284030903+284672943
4384+285461774+285923348+285376115+284500801+284780862+285957124+285663831
4371+283687667+282877502+283539604+283662232+283940628+284894564+285143938
4357+285369559+286069093+285717653+284856566+285904434+288305753+289206348
4344+288358682+287024249+285184477+282617350+280681775+281793352+285052135
4330+285969052+283477389+281464720+281830749+282576537+282576159+282704759
4317+282964774+282456226+281486191+280859735+281104561+282539191+283661030
4303+283107207+281908942+281488594+281777613+281221782+280017356+280040560
4290+280921006+281220238+280877928+280720992+280889633+280894387+281122891
4276+281895109+282411329+282231309+281960465+281654523+280613828+279106309
4263+278420385+279324515+280720512+281169247+281279861+282151709+283225527
4249+283316987+282484407+281209477+279842348+279321804+279600680+279860369
4236+280432367+281605815+282161011+281054841+279809739+280193754+280967174
4222+280805021+280959554+282045969+282760349+282574254+282267900+282598333
4209+282685743+281021803+279082641+279089095+280075761+280925039+282165198
4195+282547017+280873345+279423493+279767656+280270197+279392874+277844508
4182+276994216+277108829+278397215+280353865+281101712+280322234+279452978
4168+279161607+278909178+278220474+277543989+277647703+278339394+278783564
4155+278896667+278708804+278068841+277625546+277893490+278758781+280032562
4141+280970143+280856646+279986858+279089232+278828479+279301140+279849488
4128+279819384+279087138+278345967+278320360+278620021+278806356+279681105
4114+281370943+281946168+280499817+278733878+278070128+277942558+277542616
4101+277034583+276822881+277547524+279046943+279925707+279947624+279844082
4087+279463001+278815075+278876209+279839465+280780186+280937070+280125824
4074+278917519+278044470+278086175+278708546+278226481+276763069+276459101
4060+277735250+279079913+279849368+280611305+281324467+281440075+280523209
4047+279108557+278697425+279479821+280830044+282018320+281698905+280321342
4033+279722089+279885444+280095155+280634544+281547891+282387661+282543825
4020+281589390+280484507+280350381+280826560+281431922+282176114+282875305
4006+283125331+282495065+281939337+282615891+283054054+282129672+281226536
3993+281469697+282366242+282986914+283675962+284570584+284493919+283578512
3979+283060902+283278439+283817022+284025566+284032139+284604669+285340829
3966+285373455+284901412+284613285+285086993+285940322+286053819+285649191
3952+285358953+284803516+284571374+285004663+285047038+285149430+285929732
3939+286492377+286220640+285186862+284487105+285353769+286601205+286220417
3925+285289186+285724535+285925442+285006482+285547021+288529760+291090640
3912+291313343+289993429+287409706+283177557+279620229+279664731+282835350
3898+286955495+288817750+286981153+284979520+286577916+288070109+286772953
3885+285517004+284945864+285577657+288508547+288901504+286005883+283642357
3871+282354486+283488013+285669065+285895304+286903732+289834228+290999815
3858+288007602+280793384+276254161+282772706+290750338+294153769+293138767
3844+289905110+286815276+284248870+283808612+286952217+290033693+291177655
3831+291923545+292457751+292395314+290941428+286711287+284685918+287525108
3817+289867283+293352202+297639958+298227300+295154594+292404170+292146352
3804+290584787+289452667+293132760+296637588+298309131+300186147+301985998
3790+303243406+303510457+302967052+302828995+302750219+302747987+304654591
3777+307432236+308485716+307092964+305056335+305459384+307710168+310082670
3763+311291714+310458705+310581487+313379178+315044989+313176006+312500722
3750+319766274+328531227+338763796+359957320+383526126+399339076+407083947
3736+409059820+410919672+414050525+416313598+417058767+418226963+422201294
3723+428939848+437681219+447073847+455039156+460031852+463586623+471696819
3709+485814233+500819095+514057882+527764352+545049553+561274648+570771110
3696+574456455+573209379+567123248+560695167+560310757+564073918+565095647
3682+560417680+552217929+542594876+532410808+527636044+526159984+521790122
3669+518704750+517340522+513878498+509942097+505944459+498764858+488883129
3655+481414989+473885715+460713245+448080576+445777960+447948938+447502742
3642+443944229+439552605+434822533+428819915+422027848+414415404+405004104
3628+400631873+402981034+403447173+398972550+391804208+387423224+385809416
3615+382561514+378870711+376289785+373671513+372429586+372715723+371762438
3601+369063227+366253591+363532549+360814631+359150811+357520080+353725340
3588+350068451+350250375+351766905+351864870+350558068+348360213+346181718
3574+345165962+344278273+340884453+335526569+333431348+335123555+335935110
3561+335153658+334494062+333990165+332740618+331222749+330264659+328892158
3547+327111254+326605573+327032821+326770026+325610343+324469058+324050425
3534+323794461+322384923+319973222+318127202+317187099+316695422+316767574
3520+316944178+316735788+316520843+316042107+315072621+314608713+314594228
3507+313687694+312193510+311683366+311935658+311671455+310972350+310324767
3493+309705984+309029911+308332076+307849392+307609286+307326754+307132506
3480+307150012+306797559+305893085+305285389+305461615+305680337+305317620
3466+304595140+303795564+303261598+303309311+303764465+303953289+303181414
3453+301677619+300339066+299799574+300056534+300527204+300879142+301253769
3439+301767002+302275464+302331895+301853948+301368965+301066902+300726188
3426+300337796+300168606+300356023+300607800+300857860+301302648+301729965
3412+301895311+301824978+301671337+301601005+301641818+301572961+301080563
3399+300687366+301274639+302039237+301754165+301267465+301613465+302088871
3385+301908148+301442833+301388599+301788147+302203621+302359905+302463018
3372+302907601+303287411+302949546+302453785+302554358+302925415+303060966
3358+302939866+302613844+302315385+302353623+302349744+301775755+301012324
3345+300753888+300766658+300235850+299293927+298855523+298883498+298569764
3331+297940648+297467233+297248271+297323924+297186588+296161255+294694153
3318+293393153+292235975+291218090+290336340+289700222+289278671+288545516
3304+287461383+286263341+285056494+284578599+285151456+285825572+285850681
3291+285633178+285919606+286717500+287549667+288402653+289536764+290493962
3277+290564260+290285710+290830007+292008398+292565739+292105882+291578919
3264+291928317+292807081+293384640+293688969+294187923+294933298+295614383
3250+296179825+296703664+296718630+295977133+295231243+295067270+295164548
3237+295307514+295777806+296633057+297570209+298291454+298700921+298911130
3223+299205436+299828888+300540041+300949646+301237430+301645799+302006593
3210+302255830+302753377+303816331+305079814+305937571+306181865+306161579
3196+306773634+308268265+309635445+310053528+309964145+310195120+310886331
3183+311622782+312074470+312411064+312835635+313575141+314823281+315653131
3169+315558393+315771073+316759576+317477011+317465683+317510341+318126756
3156+318831559+319241061+319396624+319472105+319958908+320781104+321079357
3142+320811962+320854114+321420071+321772696+321634811+321553906+321631996
3129+321504134+321182162+320891391+320915076+321265298+321121852+320120786
3115+319187308+318932545+319105442+319310295+319285547+318933300+318163999
3102+317063253+316078526+315755593+316186033+316729507+316703523+316109007
3088+315558084+315652033+316253208+316723706+316916889+317175119+317660789
3075+318182535+318352034+318257399+318554759+319249265+319668515+319666112
3061+319465721+319189264+319111654+319402116+319957707+320398342+320204369
3047+319579818+319084743+318693880+318227021+317610296+316817620+315788442
3034+314474569+313559249+313620828+313860591+313398606+312388650+311478306
3020+311196872+311436567+311527254+311067191+310272181+309435397+308722630
3007+308467009+308694792+308765399+308493851+308625970+309604655+311198108
2993+313393972+316246000+319089068+321434900+323587548+325373257+326323521
2980+326535721+326239802+325732678+325159376+324380773+323546803+323000618
2966+322570418+321868978+321307175+321184667+320981393+320608688+320196028
2953+319705209+319452025+319607519+320015751+320364703+320388868+320353307
2939+320346373+319781961+318469632+317055426+316309090+316372042+316636931
2926+316626565+316416837+316043136+315373586+314564296+314131247+314130114
2912+314022744+313872090+314094622+314437326+314567522+314664183+314986532
2899+315485006+315800078+315765135+315825514+316308987+316905356+317353886
2885+317725218+318016606+318077087+317880918+317574426+317418452+317666006
2872+318055531+318189983+318239858+318236220+317882943+317374138+317111892
2858+316976169+316744885+316573464+316355978+315624264+314533987+313867628
2845+313865877+313977950+313953716+314227083+314981006+315749002+316217544
2831+316629895+317161904+317655297+318072659+318536086+318840278+318864821
2818+319136815+319695186+319874845+319729546+319825211+320267287+320762911
2804+321184942+321766277+322568290+323422820+324119042+324367695+324442318
2791+324913366+325473075+325584873+325457698+325360831+325155771+324774382
2777+324461300+324469538+324745652+324969179+324884464+324588304+324446575
2764+324613362+324743318+324695708+324881958+325454334+325944260+325830643
2750+325438372+325426393+325602001+325687334+325815952+325966125+326088358
2737+325968322+325431198+325028390+325274194+325740607+325839018+325822920
2723+326198542+326664338+326688331+326429587+326336050+326673228+327338557
2710+327788666+327639282+327245055+327129859+327180523+327160202+327184917
2696+327329770+327538262+327725816+327842763+327798929+327575334+327418123
2683+327303477+326958609+326505617+326212204+326119457+326105452+325981949
2669+325714074+325453132+325220818+324860127+324411940+324094053+323987747
2656+324021558+323997873+323913845+323964509+324014830+323856590+323529023
2642+323222772+323149830+323169773+323051969+322981979+323128308+323256376
2629+323165139+322956372+322826794+322903854+323123262+323354787+323650226
2615+323992621+324128172+324163733+324470191+324888857+325114821+325154330
2602+325200497+325553156+326285351+327236062+328080157+328436317+328432747
2588+328587589+329014254+329398801+329668908+330013912+330456744+330753933
2575+330714905+330614297+330831886+331244134+331445178+331401722+331365234
2561+331369044+331380749+331355074+331203458+331086786+331188115+331382843
2548+331496460+331618075+331852105+332042851+332151354+332335819+332496015
2534+332505969+332631772+333009523+333332559+333462309+333657312+334108862
2521+334582038+334749751+334805942+335076666+335456442+335781916+336060844
2507+336302254+336482840+336622888+336844115+337156064+337372863+337497464
2494+337740763+338136294+338641083+339289627+340019179+340621074+340930930
2480+341083849+341238966+341299756+341217100+341073483+340942944+340841272
2467+340854418+341078289+341303806+341329447+341240957+341223794+341479930
2453+341857852+341927773+341783229+341783401+341871308+342017980+342405274
2440+342918541+343262447+343407884+343503240+343556513+343605083+343781172
2426+344005660+344208112+344424842+344568597+344641504+344730922+344781963
2413+344736929+344731128+344946760+345272233+345484089+345649332+345926097
2399+346349741+346868741+347230222+347287751+347308998+347443726+347497307
2386+347237911+346333299+344359143+341264435+337398573+333072956+328788187
2372+325039065+321416158+317283072+312916780+309235486+306849803+306067390
2359+307466767+311253750+316692230+322901314+328707865+331826087+330740100
2345+326869913+323806578+323033879+323927884+325788423+327724100+329080536
2332+329996029+331381607+333645263+336213214+338830113+341768984+344899768
2318+347779531+350182617+352235000+354279764+356483934+358845109+361275552
2305+363429470+365077466+366552188+368122265+369491333+370619677+371862909
2291+373192983+374525357+376043981+377555431+378581931+379222855+379919866
2278+380737909+381608229+382508515+383368195+384248572+385190941+386000437
2264+386575524+387155109+387890496+388681044+389484155+390207768+390737375
2251+391241855+391907802+392660077+393423988+394179490+394828583+395326850
2237+395745037+396146575+396565551+397038589+397455985+397795463+398324864
2224+399005674+399540669+400042369+400708213+401235554+401341688+401366505
2210+401723523+402409036+403253921+404090533+404657452+404871539+405136806
2197+405717557+406398538+407025800+407635144+408271331+408872403+409351585
2183+409883663+410730265+411850817+412967250+413932377+414800260+415559469
2170+416184980+416811934+417646041+418781009+420028909+421161235+422201980
2156+423242417+424275680+425301563+426414186+427604796+428719033+429812571
2143+431153561+432699370+434106265+435368444+436663128+437887584+439042667
2129+440436553+442099892+443648207+445040582+446598577+448337398+450099526
2116+451819743+453474673+455176869+457065109+459041736+460929495+462774622
2102+464708171+466795223+469121077+471634244+474204941+476872710+479623066
2089+482465448+485443759+488367046+491273892+494428223+497914584+501670296
2075+505449933+509228197+513303582+517703787+522143742+526516178+531049257
2062+535933966+541122454+546407225+551768987+557348373+563007222+568808418
2048+574899252+580894147+586577195+592266216+598265264+604556695+610980828
2035+617395969+623696187+629943339+636103579+642128165+648229365+654444182
2021+660747422+667056222+672820484+677770754+682430974+687430535+692766897
2008+697932250+702781398+707517134+712156690+716486014+720209701+723185162
1994+725742335+728401591+731130185+733890976+736803279+739517250+741971172
1981+744403949+746668121+748309972+749174423+749978804+751001151+751616674
1967+752155789+753321753+754734998+756097236+757207936+757589841+757602335
1954+758030441+759094597+760449626+761360004+761075858+760084129+760455187
1940+762523291+764360798+765470194+766569019+768000181+769458392+770546301
1927+771506176+772618593+774328204+776913592+779903813+783708577+788652668
1913+793262979+796595974+799820089+804258430+809607493+815080744+819874834
1900+823484079+826941058+831493702+836759903+841833813+846996077+852422508
1886+857032065+860624628+864366919+869372110+875299829+879978929+882342712
1873+883474283+883539433+883159656+885588315+890552590+894046502+894741728
1859+894534609+894589255+893977645+892578817+891456240+890327964+887986767
1846+883856462+880374906+880705460+881616044+879633066+876417327+874118556
1832+871116320+866255983+862301629+860357302+859375253+859113281+858372540
1819+856569839+854125254+850972398+847187338+843753975+841885988+841327857
1805+840359332+837810809+834880451+833370203+832676075+830787766+827064286
1792+825024397+827366967+829932035+829876702+828195994+826436680+825857817
1778+826283315+825238313+821455998+818071446+820022227+825119135+828573024
1765+828799571+827207011+827385160+829396490+831001545+832441495+832181103
1751+828926438+826762360+829006759+832788731+835157937+835967467+836840842
1738+837779710+836266441+834479393+838044291+843715119+848613283+852142825
1724+853652181+853567191+851330412+847475602+848083093+854665810+861366263
1711+866373307+868797297+868264292+867912251+867890008+865116586+863325762
1697+866407014+874119242+884503289+890961062+892630992+892445291+890542361
1684+891896017+902133220+912545483+917911776+919993886+922025742+922201557
1670+920712385+925368349+934392699+939735582+943298695+949405936+954587353
1657+954429800+948182717+945106476+953230539+957613548+956877269+961393391
1643+969559332+974022250+973250684+967573334+964784327+973428558+982402244
1630+985450613+986825345+987767988+987090131+989812202+995012087+995892189
1616+995854363+1002007875+1008314066+1009281836+1007328447+1006188226
1605+1006731254+1008997416+1011483261+1013422027+1015934371+1017881925
1593+1018501978+1019972272+1022256077+1023696027+1024989682+1027276852
1582+1030459845+1031890389+1027412231+1022004953+1024106971+1025785482
1570+1023586804+1025522893+1031018044+1033570823+1030062151+1017140290
1558+1007326250+1018305774+1032195748+1041294241+1046798317+1049620413
1547+1048618249+1043828965+1039469503+1038862356+1044391833+1052306237
1535+1056752885+1059607796+1064071332+1066515231+1064093575+1059541205
1524+1053661266+1046941248+1045554708+1049105532+1055146182+1062132153
1512+1065555493+1061663269+1049406772+1043958234+1057469187+1069916053
1501+1073741823+1071981686+1069085653+1067174965+1063806409+1059264611
1489+1059509557+1064916972+1068666471+1069412568+1069922849+1070338186
1477+1066794914+1058204368+1049654052+1047603453+1050352573+1050583858
1466+1046534080+1043364336+1042254803+1037570348+1028840167+1023978182
1454+1023544721+1021209222+1015692789+1008982999+1004831481+1002634862
1443+998848978+991802045+980162306+965949743+957491212+953626311+947166205
1429+941471760+941825381+942581363+939361161+935871162+937432555+947191949
1416+959028235+966874743+969951465+970037141+970472250+974280034+982398605
1402+989266429+990789721+991693234+995837681+1001655491+1007651037+1011841137
1389+1012927124+1012988841+1013262139+1012896505+1012687601+1013688804
1377+1016218791+1020624248+1026291919+1030210986+1032663329+1035079698
1366+1032940403+1027135774+1026507002+1031403038+1034827407+1033412858
1354+1029527773+1027480401+1026383499+1023029840+1019229883+1016848868
1342+1012566776+1006098088+1002228107+1000990265+999280998+997768896+997471912
1329+997347243+997654455+1000188218+1004184654+1006395689+1006610085+1007949256
1315+1010980119+1014440049+1017896753+1020436214+1022487842+1024870161
1304+1027226050+1029776014+1031242395+1031013856+1030761565+1031139556
1292+1032038744+1033589702+1037492910+1043810635+1050530653+1057695117
1281+1064363304+1068336948+1068789905+1067166040+1066236303+1066662555
1269+1066543446+1065309449+1065495286+1066195593+1064924112+1062994613
1258+1059553013+1055060163+1053351582+1054401459+1056463590+1059117561
1246+1057734316+1049023769+1041003711+1039192978+1038627502+1036123122
1234+1034404106+1034446532+1032641017+1028153041+1025893195+1027843907
1223+1029819813+1028231646+1024739382+1022171088+1020377106+1019334300
1211+1020737522+1023702618+1024962565+1023522272+1021797284+1022225253
1200+1023831612+1024847095+1025324561+1024434229+1020750840+1016490030
1188+1014956166+1015303882+1016001717+1017343565+1018391657+1017765081
1177+1015985584+1013151818+1007602638+1001696406+1000591815+1003657828
1165+1005511399+1004120740+1002587905+1002478339+1001761693+999217084+995986859
1151+994012257+993640101+993830813+993743626+991935639+988203989+985148893
1138+982909985+979679074+976784826+974480151+971377479+968384992+966815017
1124+966858610+966555174+964216174+961090916+957785999+954328403+952209085
1111+951586422+949992145+945402498+939316332+934863231+932729359+931795983
1097+930701964+928437656+927044595+928056301+927989984+924939693+922300963
1084+922586345+926001583+931790079+936869001+938050892+935980111+934663938
1070+936028990+937904804+938698612+938798156+938931339+938968067+938411378
1057+939094727+942274013+944334635+943294644+942721548+942543124+941228462
1043+942318636+946084681+948517527+948359081+946769884+944996634+944040192
1030+944549924+945902550+946964852+947222087+946543680+945495039+944518276
1016+943951220+945108467+947398656+946461917+940524792+934107661+931819393
1003+933761867+937768051+941546864+942164927+939487204+937417452+938231856
989+940839555+943637761+946193835+948615148+952109747+957915131+963364904
976+965173303+963845803+961177759+959174461+959095238+960153489+961292474
962+962134819+962231548+960856542+958629511+957087958+956287902+956602803
949+958662601+960396101+959379383+956856055+955196148+953911143+953369420
935+954732001+955110198+952700967+949401474+946382488+944415780+943626228
922+943280296+944174130+945264166+942550676+937184794+933427332+931129247
908+929069792+927089423+925186561+924522777+925845677+928380401+929239566
895+926159068+923184156+924190095+926452962+927346589+926306667+923860915
881+923925996+927228785+928656240+927323111+927933004+931688064+935947021
868+939183424+942621112+947621840+951757980+953745214+957347458+964589840
854+972813104+979082293+984419135+991125766+998940833+1007262405+1015438300
841+1021475243+1025966377+1031651828+1037493666+1041432504+1043024103
829+1041443831+1038918650+1039867541+1045695099+1052895398+1057487791
818+1059906289+1059315344+1054051065+1048561681+1047029876+1047728191
806+1048819945+1049036813+1045593084+1040749634+1038600453+1036976863
795+1032581016+1027523720+1025549667+1026484896+1027526328+1025129112
783+1018138129+1012064595+1010894786+1009411792+1003570916+997072228+991768543
770+987005416+984417556+982832547+977746623+970682802+968222976+970541107
756+972384998+972154400+970437101+967657088+964446360+960783086+958812946
743+960162345+961358928+960099324+959195605+959887880+960458505+960023739
729+956843218+950960808+945391788+939413473+933529553+932400522+934908060
716+935942009+935311727+936262540+940368680+947267533+954768660+958465710
702+957326519+954443393+951529511+950103497+952101715+957348076+962326080
689+963268381+963335247+967472692+973958130+977082564+973791858+968712593
675+965581020+962529012+959438148+959467943+967926954+976199921+976818465
662+976545852+979199548+981108932+980222239+980821628+983122047+981888530
648+980167661+980308327+978948080+978643134+983007057+989703391+991015101
635+982415356+973089355+977724174+996206267+1007114463+993348953+965570173
621+943449246+942055498+958240055+969366904+970452410+973188280+977456574
608+980216815+984951934+1003358854+1037973397+1061568393
##END=
