##TITLE=Sample description
##JCAMP-DX=4.24
##DATA TYPE=INFRARED SPECTRUM
##DATE=13/9/2023
##SAMPLING PROCEDURE=Instrument type and / or accessory
##ORIGIN=Default
##XUNITS=1/CM
##YUNITS=ABSORBANCE
##RESOLUTION=4
##FIRSTX=4397.6552
##LASTX=599.8556
##DELTAX=-1.9287962
##MAXY=1.869994
##MINY=0.49028498
##XFACTOR=1
##YFACTOR=1.7415677e-009
##NPOINTS=1970
##FIRSTY=0.50115412
##XYDATA=(X++(Y..Y))
4398+287760352+286940978+288310206+289240502+289078448+289182799+289581688
4384+289589320+288379511+286095046+285411903+286985419+288273859+288891033
4371+289459266+289202136+288997198+290258824+291086001+289995841+289326200
4357+289760854+289340267+288142641+287145162+286367748+286181617+286541627
4344+286907027+287826953+289087346+289564849+289620019+289503142+288929639
4330+288271463+287472659+286323581+285652144+286289237+287451029+288111600
4317+288488277+288925292+289440990+289637953+289486714+289778446+289892722
4303+288929741+288276768+288846438+289452763+289418128+289139402+288869061
4290+288526335+287885477+287030920+286503997+286294952+285707690+285499262
4276+286802265+288034799+287797520+286999656+286022866+285008086+284881232
4263+285334538+285479514+286000825+286726218+286114793+284612106+284003112
4249+285285409+287310160+287680574+286946402+287122985+287455170+286763112
4236+285964975+285800662+285320387+283804386+282504429+282561789+283137192
4222+283810461+285305293+286912212+287072640+286100795+285496353+285816611
4209+286309446+285919404+285222572+285295676+285063256+283841160+283120097
4195+283502952+284444525+285542608+285417088+283434502+281839580+282488001
4182+284465932+285853950+286014412+286023841+286377417+285880132+284230415
4168+282829872+282416403+282632241+283032003+283465048+283936322+284033349
4155+283680852+283564300+283730255+283716257+283735748+283748240+283520920
4141+284043206+285106568+284833591+283420453+282407522+282370799+283053718
4128+283730341+284010196+284092370+284276772+284544838+284628431+284319725
4114+283796206+283731504+284011599+283975920+283797952+283649143+283393741
4101+283217672+283343824+283432979+283215499+283308367+283870457+284332182
4087+284273008+283464791+282631608+282935472+284115095+284520093+283762580
4074+283420385+283775398+283784792+283576860+283175815+282132595+281519339
4060+282383650+283673545+284162890+284349329+284971620+285187543+284098051
4047+282569747+281808469+282022340+282816815+283305527+283017919+283060752
4033+283746563+283700531+283188358+283371153+283645600+283513168+283832519
4020+284492251+284453235+284081349+284163283+284697805+285268040+285424036
4006+285443253+285351890+285047924+284987449+284730746+283988241+283781113
3993+284565047+285627964+286651488+287492817+287037782+285307604+283940241
3979+283602169+284150158+285118136+285430025+284720787+283812514+283754367
3966+284592667+285232258+285388442+285803109+286548848+287314164+287991300
3952+288503165+288667512+288304216+287649053+287489839+288901951+290993697
3939+291378998+290057753+288383310+287030595+287051951+288093769+288225500
3925+287628039+287832634+288355656+288205991+288221290+289464982+290850672
3912+291020939+290323337+288982550+286406405+283956823+283967860+286399936
3898+289693534+291447858+290493092+288589582+288380024+288743764+288296242
3885+288128746+287872711+287979184+290233018+291783569+290561370+288637565
3871+287786670+288104789+288338407+288179502+289586205+292089058+292958742
3858+291416406+287856249+285250602+288029358+291860266+293523176+293063094
3844+291447687+289779404+288519079+288246103+289276540+290119632+290273301
3831+290988666+292543734+293491826+292171643+288791029+287453972+290083867
3817+292969729+294971361+296327652+296678078+295668963+293971143+292981570
3804+291874367+291487251+293507844+295029851+295608796+296996402+298838924
3790+300335057+300823854+300237208+299705870+299471465+299429163+300493586
3777+302262045+303642875+303942615+303091070+303120777+305034178+307483777
3763+308827610+308414176+308057862+309292245+310681015+311038423+312770536
3750+319596962+327618173+336881500+352748451+369594948+381941990+389199511
3736+390851537+389997049+390040686+391044907+391604550+391657050+393424791
3723+398441654+405602968+413217145+420234818+425495327+429931260+437188198
3709+448399905+461508618+473954536+485821953+499766400+513532981+522555811
3696+526135682+524766556+520119491+516789153+516483972+516032548+513975609
3682+510036755+503756624+494874936+484818827+480159852+479007437+475060918
3669+471853413+470543325+467399477+462978775+458211136+451657002+443122420
3655+436155228+430245203+421548602+413312050+411178516+411303675+409495652
3642+405198740+399732096+394267574+389203789+384620382+379917188+374553047
3628+371882288+372230593+371060176+367055509+361453027+357168128+355097088
3615+353150421+350786383+348470363+346658575+346292234+346478245+345141942
3601+342374908+340181002+338633908+336520532+334604736+333057676+330759727
3588+328983362+328801834+328544225+327692817+326679697+325612776+324281161
3574+322630229+320823575+318620052+316225862+315264935+315889091+316460781
3561+316309063+315479045+314336111+313247320+312269384+311305171+310101727
3547+308858275+308253114+308208622+308098453+307754837+306977559+305631433
3534+304604076+304365461+304104019+303535101+303083746+302551244+301753705
3520+301109596+300879469+300916227+300668166+299962726+299691666+300000784
3507+299695910+298807985+298468065+298579945+298510572+298328462+298182699
3493+297946241+297426949+296779041+296462600+296592345+296841296+297080835
3480+297264484+297058897+296520918+296107689+295996356+296070076+296105533
3466+295853229+295331849+295025881+295214664+295623375+295860279+295646614
3453+295136153+294677165+294388822+294385810+294643351+294960477+295250634
3439+295432367+295438699+295393420+295351015+295144195+294955138+295078073
3426+295185915+295118287+295329488+295846007+296114260+296155159+296447951
3412+296763743+296808166+296909095+297051881+297161708+297739660+298652981
3399+299044888+298938791+298927703+298932494+298793473+298930646+299477659
3385+299903073+300090761+300328657+300443104+300305863+300239707+300411583
3372+300754001+301378226+302066861+302191028+301910249+301918292+302278336
3358+302649982+302762547+302657614+302665965+302699916+302497032+302204376
3345+301922296+301582000+301126948+300651841+300517030+300654544+300061328
3331+298545823+297700610+297915746+297794899+297082169+296536799+296234971
3318+295408650+293849748+292375211+291116734+289767596+288720663+288284263
3304+287798375+286565481+285530047+285563262+285808003+285557204+284872556
3291+284464529+285216788+286730034+287941366+288669668+289565226+290544360
3277+290987536+291304457+292091112+293027979+293481935+293604460+293979460
3264+294526063+294947335+295124379+294949936+294597832+294705127+295377745
3250+295855179+295964048+296159540+296816107+297679904+298008735+297947747
3237+298006989+298294717+298830162+299315126+299680783+300234402+300552486
3223+300313837+300604097+301893171+303043224+303561215+303754002+303645887
3210+303652800+304355878+305366192+306146138+306967600+308096365+309434927
3196+310766987+311655427+312034944+312459331+313137356+313645114+313766509
3183+314065599+315032276+316261080+317317562+317938261+317815429+317633764
3169+318328697+319457941+320057387+319907277+319735127+320601868+322369814
3156+323921733+324836559+325142528+324816333+324467720+324833719+325618662
3142+326145791+326545023+327166886+327515875+326954076+326053248+325719899
3129+325933051+326488141+327197688+327469021+327015578+326134703+325184522
3115+324489350+324067736+323802083+323743217+323360208+322240033+321026973
3102+320361268+320238983+320091338+319456606+318681383+318259974+318273013
3088+318699179+319386446+319899885+320146063+320335702+320526984+320967148
3075+321545272+321580455+321146143+321007431+321379624+322038861+322677220
3061+322867030+322673832+322460543+322354584+322371901+322250575+321955079
3047+321784195+321521315+320895345+320282996+320064403+319790845+318661806
3034+316946361+315816706+315513646+315271438+314745404+314041778+313372343
3020+312963290+312665329+312188339+311492517+310823184+310442879+310179760
3007+309746099+309247000+308909784+308823332+309096103+309792165+310854466
2993+312473568+314877649+317566958+319828013+321755377+323582121+324837620
2980+325151256+324898438+324472819+323680894+322324842+320994562+320471472
2966+320305379+319468517+318222498+317425165+317187577+317297198+317598376
2953+317814847+317679523+317447103+317723193+318345433+318320243+317460348
2939+316639605+316048339+315398138+314864472+314395662+313970283+313769863
2926+313509002+313150533+312983756+312604272+311899551+311727709+312040078
2912+312072626+312003663+312063659+312126701+312271882+312539451+312981942
2899+313479946+313685499+313617871+313641041+313974390+314508193+315099254
2885+315730323+316255125+316428815+316248451+316086260+316351775+317011764
2872+317483484+317337139+317010567+316948894+316877398+316744777+316802823
2858+316790023+316505205+316064082+315388247+314749785+314582289+314697695
2845+314791060+314792189+314872823+315333556+315947992+316223535+316336853
2831+316790981+317534307+318153193+318471174+318689220+318983279+319193932
2818+319323472+319569137+319825378+320015496+320277315+320746536+321518303
2804+322368000+323046162+323631439+324001750+324056031+324227223+324820884
2791+325451577+325639779+325539774+325568557+325691938+325694949+325711891
2777+325880550+326035999+325972683+325650765+325322858+325282986+325592960
2764+326060811+326246446+326065055+325969431+326225056+326642768+326936382
2750+327089298+327212849+327323224+327371960+327181191+326844899+326868378
2737+327293859+327667627+327802712+327703221+327462450+327385855+327497428
2723+327510570+327480966+327553488+327550476+327486476+327660132+328072026
2710+328411022+328556580+328573281+328471908+328349794+328331655+328488267
2696+328801902+329036889+329097433+329110917+329059991+328883049+328645016
2683+328391343+328020416+327546472+327273667+327254946+327156584+326829738
2669+326426229+326144217+325956871+325719009+325537002+325493708+325429297
2656+325274601+325089069+324853638+324558655+324295193+324128621+324119278
2642+324231261+324315694+324360425+324410428+324463271+324383869+324045353
2629+323735551+323745065+323842332+323751362+323794417+324316207+324827969
2615+324908774+324972226+325318854+325611920+325554217+325516912+325945508
2602+326575106+327028652+327423365+327946216+328503087+328948418+329228958
2588+329367842+329656357+330318776+331104644+331712680+331968338+331766481
2575+331436726+331553432+332123342+332607040+332771592+332831006+332864273
2561+332782544+332694210+332701226+332696366+332680246+332703451+332755472
2548+332941381+333254811+333454820+333453348+333510572+333779339+334079797
2534+334349830+334629207+334800296+334848108+334995856+335306582+335601907
2521+335860612+336078999+336205562+336290405+336324493+336446539+336857851
2507+337409074+337854543+338201205+338510597+338686546+338766255+338997751
2494+339446813+339943859+340426051+340894655+341215409+341437562+341768481
2480+342179519+342489903+342635632+342731256+342817092+342765789+342561981
2467+342384731+342339896+342347700+342358001+342394656+342488466+342679234
2453+342974662+343358561+343683558+343739310+343612131+343535639+343568324
2440+343756560+344127932+344534932+344817697+344928345+344941043+344931768
2426+344898091+344901239+344966403+345090365+345332676+345505134+345447363
2413+345445173+345679715+345936605+346074702+346312666+346782948+347202714
2399+347476888+347740829+347882383+347885018+347957916+348207894+348545794
2386+348638338+348075581+346676612+344558479+341944841+338980057+335871050
2372+332835763+329787129+326643829+323689005+321398106+320243022+320448130
2359+321935502+324607049+328123295+332329067+336806548+339381136+338386840
2345+335241932+333098404+332772311+333591137+334978538+336372100+337698992
2332+338925366+340392374+342545553+344841004+346680411+348620541+351290513
2318+354163677+356435411+358036169+359411626+360827399+362289650+363918438
2305+365643295+367162735+368472001+369734550+370984916+372161185+373253535
2291+374405162+375581876+376582846+377560030+378616820+379467886+380113570
2278+380805764+381611551+382561218+383640494+384714671+385669882+386393735
2264+386825822+387260921+387923990+388589969+389310536+390285735+391204360
2251+391811814+392320120+392978261+393772445+394476003+394955696+395312660
2237+395623044+395995990+396641639+397387772+397822597+398019731+398365675
2224+398892119+399336630+399674393+400148816+400784472+401330253+401675136
2210+401916420+402237892+402799486+403587783+404470712+405223588+405723097
2197+406214940+406864320+407474889+407981449+408530447+409145328+409752714
2183+410389602+411169206+412070583+412982842+413831855+414603143+415407492
2170+416326425+417269042+418185580+419112727+420054009+421181029+422490329
2156+423480758+424165902+425150958+426526483+427932503+429211103+430510718
2143+431839321+433034654+434146306+435301014+436598096+438005964+439342302
2129+440664607+442127987+443557964+444924009+446625490+448518562+450001005
2116+451220226+452856201+455102163+457393576+459282985+461062088+463056465
2102+465210020+467315045+469276942+471365300+473915143+476795939+479658528
2089+482497913+485464339+488571156+491769078+494987330+498326806+501917765
2075+505591856+509396137+513680352+518182749+522334583+526333843+530722306
2062+535668050+541181240+546922092+552270901+557276675+562409936+567809397
2048+573601381+579930009+586432361+592625185+598668173+604848882+611088252
2035+617459729+623831069+629830455+635997405+642642337+648765753+654197488
2021+659706023+665258024+670776416+676650539+682494682+687406133+691730972
2008+696379030+701174528+705775150+710158103+714166295+717774812+720857910
1994+723418261+726344131+730299959+734305345+737143669+738966408+740556078
1981+742223848+744064110+746181661+748278746+750065413+751465751+752180089
1967+752566828+753759628+755611321+756802889+757122411+757708748+759003469
1954+760007280+759990167+759413413+759203547+759582483+759798372+760238433
1940+762006687+764220752+765911589+767354572+768354618+768866208+769913005
1927+771657302+773346770+775204077+777687832+780757789+784600265+788557394
1913+791711201+794938865+799127764+803497917+807886003+812812308+817824790
1900+822592223+827246852+831851855+836723058+841782565+846518374+851073820
1886+855849673+860373426+864125618+867758981+871831653+875770164+879080309
1873+881475765+882324743+882221111+883744863+887586244+891348087+892860888
1859+892997171+893858812+894830177+894277791+892501871+890578716+888466504
1846+885165736+881728069+880875600+881325518+880684490+879019526+876943592
1832+873853854+869941764+866998371+864720785+862395969+860909727+859288845
1819+856597072+853709328+850788660+847461881+844787562+843951453+843359639
1805+841246469+838424299+836094624+834665126+833844623+832841770+831354912
1792+830226387+830489780+831072764+830811150+830137813+829358448+828387972
1778+827835449+827548030+826088414+823598156+823765994+827180798+830183811
1765+830325844+828670942+828759310+831212537+833086614+833277725+832803644
1751+832190064+832271792+834515427+837604618+839300178+839654404+839866049
1738+839972899+838564552+837214045+840361281+845596361+849796622+852367172
1724+853961769+855621052+855977947+853597755+853512810+859497684+865740613
1711+869174515+870728454+871442929+872713213+874659914+875018863+874411717
1697+876231992+881593909+888915053+894631400+898154971+899382680+897822307
1684+898885874+906755092+913881772+916871368+917768809+920094651+923978745
1670+928687654+935248736+941257500+944281253+946281687+949996573+953312468
1657+953734254+951323260+951245570+957360567+960839098+960998516+964617916
1643+971141967+975223126+975158236+972540388+974224997+981954237+985279030
1630+982960922+981667707+984193149+988032203+992802305+996519588+996224297
1616+996073982+1001049912+1005636434+1006485686+1006521964+1008489611
1605+1010653502+1011732813+1012823554+1013377105+1013950642+1016371630
1593+1018836698+1019565069+1020388652+1021954980+1022722640+1023650335
1582+1026316782+1028812790+1028888974+1028928196+1031843662+1033381720
1570+1031637834+1030069384+1029556767+1029865063+1031132678+1029896071
1558+1027107989+1030467692+1035563135+1040458705+1046053761+1050871641
1547+1053052371+1051720619+1046247062+1041086455+1047658009+1059205837
1535+1064575283+1066081307+1066577976+1065283460+1064186901+1064454196
1524+1062083108+1057244145+1056906278+1061323798+1065864664+1068264022
1512+1067304224+1062244648+1055197439+1055028711+1063339497+1069136204
1501+1070326129+1068682042+1066832128+1066955953+1067047059+1064010643
1489+1061688086+1065101316+1068665957+1067923417+1064660981+1061955997
1477+1060363453+1057554768+1052635172+1050924005+1053657122+1053690525
1466+1048241062+1041770196+1037653990+1033289245+1027532991+1025152047
1454+1026416513+1025220770+1019507434+1011317325+1004741389+1000808491
1443+996885039+991048837+982611556+971741515+964018642+961414963+957737244
1429+950540541+944675247+943761995+946091534+948704933+952155057+957204571
1416+961919230+966043718+969618283+973236314+978122028+982661319+984876821
1402+986552874+990540121+995982055+998687586+999755945+1004405508+1010841259
1389+1012545923+1009532027+1009464331+1013848173+1017590166+1016936064
1377+1014814679+1017554778+1024328053+1028505042+1029767386+1031209752
1366+1031385393+1030102651+1032400361+1036681667+1036074726+1032091654
1354+1029854659+1028143218+1025487997+1024290816+1022331931+1016718805
1342+1009910142+1005076860+1003690828+1003408132+1001988970+1000278282
1331+999225599+999435191+1000736483+1003503482+1006585074+1006277805+1003853258
1317+1004351365+1007558699+1010154232+1012183278+1015652226+1021871335
1306+1029389476+1033249271+1032069271+1030198069+1030187391+1030757233
1294+1031117687+1032381264+1034714156+1037959343+1043721484+1050611260
1283+1055336733+1059917163+1066071450+1070630249+1071299069+1069555046
1271+1069591803+1072360788+1073741823+1071436036+1067198333+1064382871
1260+1063150440+1059802373+1054152285+1049805541+1048236886+1046469317
1248+1042031878+1038380307+1038013281+1037609635+1035505842+1033944237
1236+1033990304+1034554738+1034880762+1035226227+1034630169+1032206786
1225+1029009445+1026123139+1025009330+1025962488+1025925525+1023695170
1213+1022376149+1023778678+1025880143+1025863510+1024687960+1025089484
1202+1025107760+1023254150+1023078509+1025609700+1027936843+1027425320
1190+1024189785+1020562993+1017963832+1017116838+1017538829+1017264142
1178+1016250953+1016141982+1016484434+1015254261+1012877219+1010535769
1167+1007532004+1004534535+1003502523+1004169837+1004331172+1002364278
1155+999218617+996187471+992543156+989420904+988944839+988122213+983437535
1142+978630607+978456198+980669715+980697437+977603934+973298534+970745713
1128+970533041+970349186+968981361+966312861+962131149+958369854+957261657
1115+957349067+956155104+952114946+945514848+941261059+942499104+945165824
1101+944333206+940511059+936940463+933793912+929919675+927805273+929173508
1088+931334662+932321634+932335050+932609532+934265323+934592169+930922870
1074+926478039+926031885+929510005+932738970+933409432+933656945+935751360
1061+937894032+938654505+939943408+942132899+944459084+946994998+949252186
1047+950010948+948194369+944688116+942021600+942262269+944661968+946500109
1034+947279268+948194848+950458949+954346328+956176392+951857508+944716728
1020+941151403+940827363+939704451+937618044+936842718+937970559+939286020
1007+940178189+942011128+943417147+942105451+940069628+939832999+940606614
993+940391135+938899280+938862249+941444640+944825631+949597719+955643650
980+959869786+962002669+962954390+962058593+960290613+960152892+961516131
966+961013028+957901865+956023750+956131489+954814522+952855295+953243677
953+954127906+952786435+951290610+952513390+954185130+953446698+952768501
939+953992308+954186910+952593339+952411400+953442112+952821823+949694164
926+944708993+939978043+937446647+937374296+938986006+940215631+939001749
912+935784079+932437519+929500902+927375274+925968570+923848897+922767122
899+924540646+926054405+925497432+923347094+919140193+915889530+917920424
885+924104281+928684779+927256925+921940595+919045664+921950931+927881320
872+931913196+933278899+934404823+936552629+940011720+945561051+952542960
858+958688486+963771402+969940474+978957453+988570352+995394895+1003069102
845+1014403367+1022291957+1022533857+1023081384+1029556904+1036586864
833+1039886331+1041376749+1041654722+1041954257+1044735493+1047370317
822+1045537583+1043407164+1048649636+1057118472+1057076854+1050132387
810+1046492590+1045539295+1042404585+1040453982+1041943373+1040929500
799+1034847838+1030574336+1032177900+1036247013+1038366480+1036171102
787+1029749041+1019771238+1008895174+1002424240+1001171615+1000389170+997381777
773+993772165+989712499+983590109+976620658+973185866+976088327+980105692
760+977671699+972365158+971443281+973067997+973158624+971622550+967356783
746+960239686+953954250+952305304+954745662+956075018+954016128+951497258
733+950664777+949123843+944809477+941859991+941583798+939159525+934091120
719+930972085+932636364+936232012+937063193+937655965+941931795+946252322
706+949292092+953119920+955809845+957731426+958839896+955390593+953019642
692+961336520+973810947+974817632+966385622+962146345+966439697+974099735
679+977365662+972548260+965666561+964560145+966517182+967004747+968896758
665+971371478+973337482+976913485+978076919+975842046+978523689+983017872
652+978370499+968570802+962741033+961110979+952001320+935176180+931445344
638+941793048+950004034+958265674+967432556+957644153+925758430+908934248
625+935582495+989888893+1023471751+1021283423+1003581583+980489077+972062543
611+982572677+980649796+968922289+982352544+1012948543+1027752372+1029416035
##END=
