##TITLE=Sample description
##JCAMP-DX=4.24
##DATA TYPE=INFRARED SPECTRUM
##DATE=13/9/2023
##SAMPLING PROCEDURE=Instrument type and / or accessory
##ORIGIN=Default
##XUNITS=1/CM
##YUNITS=ABSORBANCE
##RESOLUTION=4
##FIRSTX=4397.6552
##LASTX=599.8556
##DELTAX=-1.9287962
##MAXY=1.8176645
##MINY=0.45313823
##XFACTOR=1
##YFACTOR=1.692832e-009
##NPOINTS=1970
##FIRSTY=0.462621
##XYDATA=(X++(Y..Y))
4398+273282291+275535169+275774702+274992529+274974872+275191906+273721905
4384+271397727+270280672+270020505+269818646+270146082+271299703+272791146
4371+274190604+275057439+274512775+273043884+272596928+273346725+273783541
4357+273586065+273390808+273100695+272084921+270481211+269367835+269499274
4344+270869507+272386935+272537176+272131451+272671696+272944785+271819438
4330+270636328+270637209+271501914+271825195+270829244+269782873+269845740
4317+270603812+271433923+272061172+272337166+271820248+270439680+269524889
4303+269899647+270772362+271334930+270824262+269157490+268043075+268251695
4290+268992584+270196590+271692594+272670869+272750831+272012688+271040293
4276+270809808+270980911+269972901+268333329+267791764+268210252+269484890
4263+271372570+271911846+270766289+269653229+269085151+268832642+268945209
4249+269249142+269403943+269506879+270277697+271202365+270987108+270388362
4236+270270144+270303189+270606277+270934416+271104410+271833170+272670358
4222+272480189+271729054+270881073+269492302+268227963+268185922+269769511
4209+272303487+273791164+273438553+272185833+271188105+271178563+271385087
4195+270874647+270141522+269929540+269960102+269283471+268224284+268279863
4182+269688510+270874383+270857007+270736184+271215956+271348715+270797942
4168+270628406+271187629+271221994+270386460+269934857+270435790+271455014
4155+272229687+271904646+270731079+270189320+270560873+270680816+270468324
4141+270547177+270734758+270328646+269411143+269122474+269270373+269094816
4128+269188510+269872570+271177982+272615466+272847236+272240145+272248894
4114+272283664+271016332+269139938+267862730+267692190+268849173+270441687
4101+271561436+272572017+273579270+273460154+272101100+271307343+271272503
4087+270954768+270996650+271411090+271136944+270744740+271009484+271176978
4074+270734230+269970912+269190658+269144779+270117702+271005277+271272415
4060+271766957+272402269+272267556+271963007+272202153+272403959+272098812
4047+271554500+271582932+272372112+272756535+271727522+270024237+269348821
4033+269935931+270667771+271212329+271882358+272347447+272553197+273226501
4020+274168791+274494713+273934732+273082351+273155517+274262274+275196219
4006+275528091+275589462+275331989+274717750+274088178+273809508+274057316
3993+274836725+275813997+276193455+275881389+275882603+276458094+276923007
3979+277026700+276911968+276937161+277432830+278118404+278571557+278506049
3966+277873255+277523373+278310369+279485345+280131291+280438164+280035836
3952+278604320+277382902+277275987+276969854+275656819+275729493+278078001
3939+279872321+279908992+278946509+277880561+278150815+279312482+279106133
3925+278201870+278756780+279247819+278653931+279358695+281608281+282979323
3912+283055465+282467282+280040642+275374171+271797731+271653000+274089780
3898+278310898+281276320+280260124+278058987+278809577+279401950+278355966
3885+278910683+279227045+278873430+280893253+281756075+279564110+277007282
3871+275809648+277942742+280311971+279390208+279507281+282745106+284504709
3858+281585447+273387305+267680571+275052404+284069584+287258010+286034039
3844+283224966+279559691+275632876+274773400+278011700+280965504+282748627
3831+285411825+287725845+288298325+286394308+280863342+277647594+280324347
3817+283027526+286958108+291984919+293268342+290044319+286424377+285021821
3804+282406157+281155497+285195706+288808043+291443020+294978369+297274203
3790+297880766+297415748+296205755+295973475+295717533+294344343+295907879
3777+300493491+302915764+301452295+299377157+300403036+302807458+304805098
3763+305869567+304797704+304522326+307181950+308431836+305701087+305030653
3750+314158639+324404332+333757627+353446963+377259146+392922746+398564588
3736+398504590+402004360+409741867+415194314+415916613+415423708+418065374
3723+424206670+432893757+443177863+452052724+456354086+459012900+468592560
3709+484832582+500363897+512995843+525505505+541380259+557341101+567561583
3696+571551512+570773018+566360464+561666651+560732213+562642708+563330888
3682+560300995+553135581+541775033+528503075+522439381+520753737+516645186
3669+516255728+518536527+515790674+508795288+501627409+493840220+484826209
3655+478536644+471885542+458311270+444947448+443354090+446157511+445361835
3642+440899916+435534719+430648273+425469337+419497190+411897530+401713490
3628+397058162+399506984+399140377+393515717+386069503+381991795+380862892
3615+378602057+375565545+372625931+369947645+369685331+370639381+369068557
3601+365171054+361649912+358995112+357089334+356373479+354830788+350122187
3588+345892971+346871774+349137292+348593122+346067789+343849311+342668930
3574+341862198+339902972+335611012+330596084+329307292+331585873+333100185
3561+332968958+332391197+331453483+329892412+328400423+327312187+325397959
3547+322737384+321311555+321527462+321951602+321678689+321008748+320383665
3534+319644290+318257473+316230890+314458523+313320078+312715310+312854566
3520+313361097+313363456+312653094+311483981+310144416+309343317+309363035
3507+308965831+307372577+305992838+305718939+305636970+305420604+305165121
3493+304804147+304427964+303775276+302921292+302437506+302390501+302601338
3480+302757283+302556164+301997979+301318954+301175896+301388036+300953122
3466+299925623+299002945+298816649+299254732+299242091+298785453+298832599
3453+299020339+298046394+296274556+295409023+295335593+295209048+295710632
3439+296760419+297066887+296570602+296179172+296173573+296204417+296045902
3426+295768095+295553243+295639297+296195685+297027135+297330645+296802143
3412+296291351+296311174+296776897+297390960+297506097+296931962+296040233
3399+295392228+295469725+296008720+296403072+296598136+296786862+296687006
3385+296290506+296234522+296416699+296375327+296353215+296588629+297060936
3372+297544546+297586763+297312829+297264028+297473598+297737462+297796298
3358+297471661+297223043+297178045+296926188+296807776+296741265+295871014
3345+294682447+294000605+293749240+293891559+294005922+293668715+293170564
3331+292561149+291663910+290926700+290800243+290386754+289022419+287694843
3318+286961506+286481593+285915047+284908163+283597136+282533670+281726833
3304+280715372+279366740+278034640+277364611+277535731+278050027+278655815
3291+279274807+279829717+280560624+281400242+281843255+281860895+281893957
3277+282346142+283176323+284050535+285032648+285709473+285659228+285771055
3264+286449271+287159351+287703786+288015025+288065111+287887758+287699543
3250+288156798+289216743+289670987+289334485+289350523+289905363+290511433
3237+291260156+292130073+292663346+292922615+293122696+292962649+292829238
3223+293405274+294322231+295014055+295498034+296197446+297132342+297562186
3210+297442719+297595460+298326279+299492927+300633591+301094385+301276597
3196+301889110+302684328+303602007+304759360+305630597+305880130+306000091
3183+306327403+306246455+305803267+306030583+306932452+307705030+308124382
3169+308663553+309612674+310609364+311190998+311376062+311839884+312973893
3156+314338140+315440214+315952132+315768125+315375498+315503028+316208391
3142+316647706+316340604+316047446+316260607+316397715+316109450+315519401
3129+314840974+314455108+314653164+315415531+316203813+316236735+315595948
3115+315032376+314508521+313999068+313933436+313696895+312695663+311356133
3102+310311100+309787351+309327895+309006111+309240821+309619646+309918825
3088+310417540+311012237+311366274+311680946+312197829+312455073+312332049
3075+312360605+312651122+313025827+313558837+314142478+314449967+314417398
3061+314129591+313914493+314127197+314405743+314412081+314423278+314397891
3047+314110190+313849918+313842242+313871607+313587357+312609821+310980618
3034+309501058+308851926+308759993+308492221+307671123+306526762+305786472
3020+305757987+305643237+304867948+304072976+303874955+303962663+303898229
3007+303843336+303896081+303854111+303987874+304652357+305444794+306123396
2993+307580211+310335007+313552429+316327260+318321168+319636227+320470176
2980+320918118+321286908+321547708+321296555+320603305+319722421+318848790
2966+318280782+317863719+317237896+316585243+316050685+315570139+315381131
2953+315458805+315495564+315655558+315983399+316078430+315758583+315129344
2939+314604856+314314338+313837348+313203004+312665242+312139098+311462960
2926+310808019+310519684+310251982+309615315+308953895+308502678+308073362
2912+307642885+307657497+308247511+308817843+309171774+309655208+310082376
2899+310069524+309903861+310144134+310764182+311211068+311524085+312050792
2885+312357858+312298670+312353387+312482643+312565210+312715768+312797103
2872+312831750+312937204+312849355+312554436+312336310+312141281+311978400
2858+312031391+312009349+311448630+310540986+309800731+309372084+309290538
2845+309499262+309685594+309892523+310379337+310938155+311198251+311212089
2831+311401554+312025652+312789040+313185188+313168358+313082164+313193251
2818+313583061+314154696+314727492+315025580+315035474+315301099+315967519
2804+316650910+317300500+317960969+318544505+319099380+319626086+320054240
2791+320462148+320781186+320795164+320594679+320399087+320231699+320055824
2777+320018009+320269796+320660944+320877873+320664923+320168391+319891851
2764+320003819+320295851+320596862+320775024+320742455+320595524+320548518
2750+320726787+320974102+320982693+320830480+320885971+321022339+320923787
2737+320846606+320988432+321145751+321296062+321498449+321692034+321822135
2723+321886112+321904245+321870373+321849493+321903083+322010509+322154201
2710+322356482+322612530+322723054+322589537+322430494+322358630+322371904
2696+322505597+322650556+322804354+323002164+323066844+323168460+323358102
2683+323123920+322492639+321856218+321421973+321457394+321615065+321186066
2669+320382573+319876324+319755518+319705555+319539470+319404897+319535491
2656+319799073+319883084+319625347+319103957+318715027+318596404+318494577
2642+318417960+318392785+318351976+318434650+318558659+318464965+318227861
2629+318139167+318227087+318234269+318177793+318279972+318555420+318923013
2615+319163286+319133428+319186912+319560032+319930477+320160926+320522392
2602+321056071+321521195+321885302+322261345+322676154+323276238+324019839
2588+324478942+324575699+324651436+324970791+325545383+326052724+326332961
2575+326608409+326884878+327046351+327187895+327328630+327356164+327167966
2561+326832802+326688969+326839985+326991635+327023359+327028288+327089906
2548+327288279+327534115+327636893+327618338+327714532+328009662+328362642
2534+328714813+329016457+329196803+329332854+329516580+329659146+329657350
2521+329689602+329891954+330194514+330562529+330922587+331215147+331457251
2507+331717735+332000823+332232998+332465384+332645659+332735058+333024061
2494+333644110+334271799+334670482+334973957+335230638+335531648+336164584
2480+336821145+336946281+336786287+336792414+336886847+336930261+337035363
2467+337218208+337278277+337275601+337412779+337390773+337085889+337056982
2453+337374541+337582632+337706184+337851249+337994096+338334049+338727591
2440+338801392+338694811+338719951+338982301+339391582+339643369+339609638
2426+339466861+339430806+339691290+340129021+340412813+340515908+340517141
2413+340447495+340518408+340836390+341221200+341522140+341674705+341707662
2399+341805581+342150745+342754913+343278310+343445135+343481578+343447142
2386+342975962+341776075+339578794+336133282+331713721+327044837+322571651
2372+318237438+313767667+309056320+304601373+301333426+299504089+298687252
2359+299374481+302471132+307809287+314914493+322186876+326173248+324917342
2345+320441691+317185504+316385779+316930654+318382398+320179517+321888541
2332+323557003+325608585+328050576+330343276+332437885+334832307+337896389
2318+341339118+344394045+346815579+349082118+351455450+353716320+355875786
2305+358172465+360434849+362263129+363670474+365047009+366633291+368270909
2291+369747089+371113977+372413156+373507554+374319955+375005952+375838457
2278+376897786+378002747+378884230+379483152+380132390+381114925+382248019
2264+383228019+384063694+384842046+385477658+386056757+386820885+387715466
2251+388597512+389436109+390139323+390796131+391492620+392008658+392349174
2237+392749900+393188018+393569307+393995067+394496352+395007249+395569483
2224+396128547+396578989+396908203+397184777+397587228+398061190+398479978
2210+399010311+399663668+400266358+400809015+401289808+401684336+402047598
2197+402517053+403212521+403964290+404547509+405017844+405547474+406328291
2183+407386000+408468039+409311072+409916685+410578246+411512896+412613244
2170+413647080+414576766+415484938+416386420+417425679+418630847+419738449
2156+420637607+421531730+422777003+424240050+425375432+426296948+427415782
2143+428699469+430054280+431460286+432885200+434322579+435726614+437148113
2129+438698867+440303846+441787878+443066248+444321590+445833473+447554293
2116+449321413+451160960+453194726+455434964+457663054+459658440+461411688
2102+463219335+465400103+467845650+470353061+472919906+475614459+478439112
2089+481206936+483945114+487001766+490490058+494167709+497764940+501342877
2075+505109046+509065560+513157211+517312345+521592721+526246641+531227027
2062+536383746+541782040+547176285+552340891+557601866+563128606+568895585
2048+575010333+581306095+587442708+593506613+599947863+606786564+613583788
2035+619992574+625963278+631831732+637996231+644432693+650572193+656359312
2021+662570077+669069213+675041043+680562396+686028400+691400744+696686965
2008+701928680+706790409+711075187+715204970+719452284+723354751+726272464
1994+728216339+730553862+734330488+738197816+741226863+744041200+746606884
1981+748783919+750717864+752040494+753140032+754975671+756366396+755983523
1967+755755221+757349953+759520721+761123059+762009295+762271680+762868560
1954+764236469+765089256+765068200+765159746+765069327+764352381+764812646
1940+767479594+769959928+770649974+771109817+772712999+774584412+775935209
1927+776784193+777327343+778793981+781338961+784002740+787737466+792615673
1913+796716373+799537047+802746722+807960270+814041321+819163463+823476127
1900+827714991+832227155+837117615+841882587+845678720+849059656+853969271
1886+860184613+865814202+870660650+875497591+879934265+882987959+885286751
1873+887231259+887286961+886664871+889393436+894613251+898760357+900518182
1859+900439875+899987215+899886092+899597581+899137245+898711626+896751132
1846+892087636+888241575+887708496+886341009+883243161+880931694+878673253
1832+874167145+868542767+865882862+865515340+864948177+865032469+864901206
1819+862979585+859801669+855926948+851389010+847549780+846373625+846539886
1805+844793469+840428554+836027795+834738052+836235041+836400035+832442358
1792+828987411+831273104+834244618+833961812+832780023+832012162+830941989
1778+830618339+829858014+825557814+820965512+823180152+829056915+833134165
1765+834072019+832563551+832362925+833904842+835148530+837063040+837264300
1751+833622317+831182333+833355002+836485032+837934347+838298418+839593231
1738+841256905+838972760+834932411+838791781+847087543+853687802+857807303
1724+859996733+860242146+857163453+851357532+849800968+856420240+865153592
1711+871378441+873330696+871896451+871009018+870157499+865792865+864340029
1697+870576498+880561355+891231399+897637509+899074289+897582371+893381745
1684+892955915+902933096+913463568+918652327+920662678+923557294+924825207
1670+924182765+929926293+939618484+944579998+947413560+953711294+958981459
1657+956781749+946398878+940872102+951116950+958341482+960785480+968764140
1643+978510696+982313237+979957405+973348907+970492600+979380242+988098454
1630+988745403+986815471+988493510+992742937+998839904+1003417417+1001212636
1616+997847826+1002607305+1008709765+1010685188+1010903631+1011779304
1605+1013183268+1014450265+1016667158+1020829546+1023788596+1023016863
1593+1021845496+1023958871+1028424558+1031788382+1033089181+1034327165
1582+1035461984+1033625078+1027623037+1024405123+1028749265+1031332553
1570+1031003269+1034378713+1037923587+1037005310+1031213191+1017924649
1558+1010129362+1023461213+1037729369+1045159035+1049380997+1053753448
1547+1055183749+1049681973+1039332551+1031538673+1039632048+1055634930
1535+1062972205+1063530918+1065031146+1065393598+1060983614+1054680457
1524+1047499374+1039866546+1038667223+1045875065+1058094139+1067792668
1512+1068817702+1061529440+1047647749+1041747043+1055139314+1066825378
1501+1067684221+1063264026+1064387507+1071651263+1073741823+1067437399
1489+1062324130+1065147198+1069913860+1071211913+1068745592+1064800661
1477+1059550566+1052766370+1046782357+1045917951+1049827742+1050548421
1466+1044702713+1038974677+1035297624+1026666381+1015566423+1015574873
1454+1022566879+1025612193+1023829932+1017022146+1008211120+1000964195
1443+994504917+987164825+977345244+966129586+959897413+957327785+953077514
1429+949484402+947703479+943302790+938081990+936955269+941090404+950324161
1416+959877202+967212576+972798011+975776638+975737273+974950822+978183454
1402+983828887+985891913+986771107+991703608+999004898+1004256754+1006080210
1389+1006136546+1007228761+1010389423+1013177353+1014382662+1015800147
1377+1016888700+1016594203+1018705537+1024113866+1028597650+1029943166
1366+1028259493+1025653037+1025240446+1027018974+1028512372+1028755180
1354+1028770180+1028642578+1026244283+1021403610+1017341078+1014832012
1342+1010972713+1005934722+1002526041+1000777934+1000763990+1002705752
1331+1003409812+1000890042+998853424+1000555477+1003265451+1003816136
1319+1003633466+1004634980+1006480126+1009410444+1014613006+1020649200
1308+1024359280+1024955878+1024917077+1026691803+1028749687+1029466000
1296+1029705639+1029152842+1028877641+1031179742+1035496561+1040717291
1285+1046319768+1052054353+1058577995+1065102623+1069303178+1070191667
1273+1068524543+1065721051+1063079385+1062125334+1062853125+1062285751
1261+1059569227+1057614578+1057716547+1058130053+1057224592+1055311984
1250+1052543491+1048032524+1042718769+1039064110+1037978796+1038291109
1238+1037476420+1034532017+1031766130+1030868908+1030859120+1030625255
1227+1030936300+1031887041+1031407832+1029347553+1027499380+1026514696
1215+1025654163+1024061966+1022731802+1023330091+1024756378+1024781237
1204+1024339633+1024315197+1023716063+1023731485+1025093479+1025447551
1192+1023288261+1020385477+1018811167+1018180696+1017301854+1015618182
1180+1013762825+1013704024+1015658180+1016088869+1013679940+1011633112
1169+1010279498+1007922610+1005049261+1002293936+999606215+996787230+994680122
1155+994901382+997088557+998091973+996093241+993150599+990376190+986893285
1142+983689808+982293308+981256584+978767588+975859593+974007827+973861354
1128+974072755+972061136+968229793+964149656+961063146+960082476+958204022
1115+952533660+947108500+943953190+939325044+933564896+929594051+928062627
1101+928933511+929385045+927860662+927516449+927408073+924389377+921530887
1088+921858270+924199947+926134808+925281388+922428179+919774470+918028687
1074+918438602+921185617+924086430+924526062+922701409+922464586+925104774
1061+929112167+934264942+938023259+937567923+934475920+931502927+931228993
1047+933598346+935544685+935852984+934783726+933298497+933126320+934135158
1034+935007310+935449759+934698800+931747285+929414339+930445007+932732039
1020+933665879+931673133+928300365+928087485+930380502+931418916+930922807
1007+930439162+930356207+929951504+930235296+931768340+932478808+931558277
993+930683942+932320645+936326348+939547008+940938226+943234201+948062058
980+952014242+952256205+951383208+952043114+953462923+954304231+954291485
966+953644747+953106949+952609713+952456620+952937519+952344160+951848684
953+952634924+951935160+949978821+949177793+948984983+948553379+948683444
939+948860480+947892768+946491902+946183322+947657002+948132619+944995970
926+940749289+937741297+935495250+933451802+932005022+931767848+931694047
912+928909569+923070410+919042243+920567541+924700845+926372053+924956751
899+922300930+919070340+916602470+916522614+917986999+919267024+919719120
885+920133683+921538211+922183047+920970907+920487473+921463424+922699930
872+924723238+927931294+931073365+933479547+936764501+942237335+949613271
858+958200078+965775162+969407075+971039693+976769279+986629422+993690298
845+995396927+997111655+1003880429+1013852470+1021632686+1024179709+1022281044
831+1020338225+1020599695+1021163337+1022055629+1026243509+1038362938
820+1054877704+1055809150+1038917143+1027693035+1028511738+1029964292
808+1027170448+1024159005+1021780639+1017595154+1015187915+1017456285
797+1018787154+1014458504+1007106793+1003435234+1007771207+1014940318
785+1014090137+1004455902+994890396+988930889+984529778+980304576+974651959
772+968313170+966088390+968915262+970856812+966600837+959411233+956900758
758+956771819+948959561+938080440+937745664+946021356+951204411+951067233
745+949836150+949407081+950923013+952291133+949029559+942643518+936718094
731+933321384+934603099+936675983+933563065+926749857+920644862+918246074
718+917914043+912992035+905971791+906957390+914238399+920855559+927240403
704+932031923+933197233+933427436+934339798+936046991+938361135+940143043
691+941804322+943119205+939843617+932014177+926502894+926119456+927308921
677+928587186+931598628+933924179+930233113+920674790+919233926+931137166
664+940289517+942133184+939592711+932951467+929192305+935448421+937628907
650+926870064+921203786+922302127+917427230+914912037+919036116+919257024
637+917918832+920311494+922516415+925621657+930852035+930230367+922195793
623+915310756+911830034+910924573+906265936+891961162+884592268+893918064
609+906802395+913869891+912817957+907523778+908166713+915370472
##END=
