##TITLE=Sample description
##JCAMP-DX=4.24
##DATA TYPE=INFRARED SPECTRUM
##DATE=13/9/2023
##SAMPLING PROCEDURE=Instrument type and / or accessory
##ORIGIN=Default
##XUNITS=1/CM
##YUNITS=ABSORBANCE
##RESOLUTION=4
##FIRSTX=4397.6552
##LASTX=599.8556
##DELTAX=-1.9287962
##MAXY=1.8273951
##MINY=0.42747581
##XFACTOR=1
##YFACTOR=1.7018943e-009
##NPOINTS=1970
##FIRSTY=0.44806856
##XYDATA=(X++(Y..Y))
4398+263276374+262033355+261625062+262737745+263224453+261985216+260866211
4384+260306043+259787693+260672694+262975461+264018467+262681587+260456413
4371+259207457+259720432+261269216+262574803+262720111+261652660+260656952
4357+260606309+260113367+258850420+258935349+259836566+259188457+258284701
4344+259256803+260589954+260746259+260630580+260631841+260262283+259284331
4330+258042327+257102953+257018549+258352224+259715984+259385441+258455488
4317+258235967+257987149+256517849+254519551+254174754+255895674+257610850
4303+257861348+257319024+256870123+256211209+255168308+254964827+255645560
4290+255329359+254561228+255221402+256589803+257509109+257948327+257686025
4276+256510792+255101433+254813215+255682929+256060682+255360582+254714434
4263+254743065+254962323+255151025+255033647+254235483+253477035+253031636
4249+252854580+253869760+255236042+255108507+254274796+254080438+254201371
4236+254306264+254301816+254141728+254459995+255417178+256284529+256434635
4222+255593114+254398338+253853650+254060493+254579334+254609489+253867554
4209+253392929+253887254+254643005+254024665+252247167+252097253+253868780
4195+255139607+255610258+256231242+255962304+254026084+252522128+252840238
4182+253778334+254471290+254825648+254719705+254531914+254705696+255158555
4168+255854925+256238107+255299573+253962868+253408549+252659154+251412405
4155+251176475+252439143+253716800+254172740+254436478+254673510+254805580
4141+254825788+254428895+253613378+252796390+252394944+252648893+253450418
4128+253728532+252970347+252330205+252350833+252548378+252417306+252145128
4114+252563000+253474864+253921734+253460977+252514108+252227221+253006210
4101+253673599+253324950+252781943+252967055+253586761+253956844+254078407
4087+254070895+253715854+253637841+254332268+255049372+255315788+255670339
4074+256356290+256280852+255136998+254469154+254513597+253974688+253110472
4060+252957161+253312622+253834458+254396237+254981551+255861457+256556129
4047+256849512+257491545+258448151+258774386+257991632+257080083+257383466
4033+258423968+258800005+258552115+258628447+259193745+259598799+259529051
4020+259596750+259941547+259851941+259354937+259108903+259555703+260533322
4006+261235804+261176266+260815306+260674901+260499928+260329439+260619600
3993+261202970+262066293+263362792+264344667+264562787+264685156+264706344
3979+264099351+263367380+263289228+263937442+264603781+264869514+265368042
3966+266119083+266186519+265647627+265232890+265112693+265627489+266678148
3952+266978483+266271939+266318887+267019933+266654385+266621569+268343346
3939+269833538+269220206+266759995+264965616+266264689+268748575+268707090
3925+267172701+267452233+268107592+267708966+268626574+271893055+275200180
3912+276526658+275622307+271836459+265119207+260150859+260952927+265365889
3898+271120476+275118770+273911439+270731901+272047154+274008731+272342517
3885+270422879+268769571+268647307+273166264+275485106+272197033+267939694
3871+265903782+268076667+270603438+270231534+272453538+278189511+280775224
3858+276152320+264154074+256247072+266256792+278930885+284178801+282092369
3844+276613182+271786114+268354606+268203747+272344776+276334525+278719559
3831+281117464+282974429+283736939+281986548+275456948+271871359+275978889
3817+279816097+284946670+291578396+293195352+288239436+282572808+281149738
3804+279161684+278825135+284455041+288866462+292344147+297411119+300918800
3790+302103577+301692483+300440252+300105367+299222764+297510653+300101339
3777+306147069+309182331+307307575+304430089+305294375+308907930+313569674
3763+316722332+315407516+314667175+318849986+321940829+319317256+317505331
3750+326835543+339533837+354292962+381940903+411895148+431412118+440172304
3736+443505398+450105359+459385769+466119656+468507597+468852324+471124656
3723+478132279+489765958+502463026+512877641+518716738+521875735+531290842
3709+549331403+569158498+587240175+605547747+626505089+646524038+662284597
3696+671825575+671772691+664190943+657876591+658727779+661875534+661760240
3682+658190603+652377774+641995765+627931837+623410499+623691169+617335280
3669+613249902+614157476+613617989+611159898+606342899+598082485+588168097
3655+580777012+572322398+557558545+545440890+546274076+550978197+551887277
3642+549350315+545058899+539191539+532347086+525311060+515940642+502932363
3628+496852592+500086748+501170065+495800655+486789148+480878186+478149440
3615+474710543+471700637+468699626+465083094+464469605+465163716+462331619
3601+457652154+454328481+451036048+448025966+447399623+446054303+440311378
3588+435200330+436557629+439760019+440884872+440130242+437703181+434561835
3574+432601939+430496279+424281566+415470458+412976714+417652292+421663737
3561+422540491+421787857+419774972+416505023+413225093+410976052+408984776
3547+407190711+406869345+407581143+407926185+407197015+405376194+403547633
3534+402302267+400613270+398167542+396407870+396103839+396274294+395813467
3520+394358141+392602392+391523312+390654929+389045293+386814008+384875126
3507+383594982+382549559+382042118+382157272+381945876+381015082+379571699
3493+378086183+376885681+375688576+374400272+373151158+372005081+371237667
3480+370395375+368845103+367254835+366469700+366273189+365418569+363444454
3466+361681175+360699773+359950011+359484631+359145018+358056097+356174722
3453+354576714+353434454+351931567+350389981+349432675+348683753+348120556
3439+347620574+346936304+346623448+346311257+345194423+343900096+342934560
3426+341785155+340365132+339483194+339388493+339291936+338782323+337991900
3412+337019429+336146493+335472379+334874930+334555664+334193181+333106817
3399+331782755+331040278+330923057+331146851+331094668+330309498+329006940
3385+327748160+327388584+327839744+327838343+327000044+325910563+325164548
3372+324749916+323948811+322988668+322585384+322102213+320945489+319782075
3358+319428103+319823857+319868581+318927981+317722680+316892787+316539374
3345+316367974+315541617+313970472+312609741+311790669+311073968+310385986
3331+309937907+309625191+308994295+307631569+305819013+304315110+303094750
3318+301674376+300539156+300035497+299146835+297264129+295229600+293798930
3304+292520783+291040398+290272967+290523815+290761286+290590236+290437923
3291+290667268+290911130+290432827+289801756+289724811+289542327+289162612
3277+289257453+289414302+289078033+288777137+288866462+289051889+289192749
3264+289245090+289089170+288925562+289077928+289616872+290314976+290433650
3250+289566965+288402799+287798642+287925897+288297994+288596946+288738157
3237+288548825+288443687+288571922+288345659+288082955+288387073+288889857
3223+289380540+290001665+290314784+290054671+290172680+291064423+291338492
3210+290701502+290559031+291221114+291985673+292589812+293131295+293482606
3196+293799280+294498330+294994494+294750142+294553841+295228304+296299258
3183+296847571+297208794+297900348+298508655+298642056+298296593+298195133
3169+299008181+300181436+301118604+301735456+301873059+301923947+302551165
3156+303489839+304266814+304806196+305025682+305035208+304919879+304837821
3142+305015491+305395100+306057166+306651533+306714854+306519008+306059898
3129+305459751+305273712+305380355+305039586+303827036+302779477+302798845
3115+303093839+303394123+303715139+303278443+302311961+301616799+301042500
3102+300087085+299074479+298626155+298625350+298946927+299486799+299687968
3088+299549034+299648603+299923145+300016235+300231938+300710241+300996375
3075+300925805+300760288+300707825+300759027+301016653+301609094+302228713
3061+302447639+302416819+302655427+303175617+303696612+304019485+303976057
3047+303883668+303921107+303603978+302959843+302511415+302295816+302181257
3034+302068730+301629653+300904581+300546161+300713078+300714759+300328881
3020+300098082+300260377+300634102+300942616+301116012+301366038+301473312
3007+301346706+301651612+302394615+303294343+304854387+306915918+309012682
2993+311755402+315608685+320280236+325312623+330005572+333563266+335806354
2980+337542911+339623284+341766873+343249797+344069360+344604679+345086309
2966+345416291+345346211+345088060+344786411+344368347+344258201+344458705
2953+344360677+344073597+344155725+344572178+344664988+344046385+342973960
2939+341544690+339780816+338063241+336590824+335422752+334633099+334148177
2926+333913666+333684409+333082407+332037825+330832489+329665363+328198620
2912+326500903+325282854+324554771+323947130+323437132+322993606+322445469
2899+321926049+321955433+322410271+322736891+322933157+323107885+323491066
2885+324189556+324679031+324794955+324831273+324744733+324446761+324068027
2872+323756537+323605695+323396190+322692237+321607099+320592251+319690596
2858+318751327+317660866+316353194+315011972+313878642+312837668+311628585
2845+310289569+309103706+308482756+308484753+308528461+308285544+308075024
2831+308116245+308241661+308384098+308661896+308973527+309065426+308930940
2818+308824576+308813684+308745916+308709212+308921834+309285438+309550208
2804+309767173+310038667+310296608+310596611+311023431+311511295+311843413
2791+311887612+311844289+311879767+311883444+311675445+311317690+311173607
2777+311365040+311558960+311481595+311148426+310731203+310407489+310184536
2764+310026304+309962703+309966171+309934230+309781147+309597628+309489479
2750+309341999+309053238+308811022+308827483+308844994+308583061+308312932
2737+308278050+308309500+308280676+308338568+308504575+308542400+308455649
2723+308484367+308612865+308623232+308562012+308789168+309364448+309831194
2710+309944176+309948519+309943896+309768468+309584390+309680842+309827026
2696+309731975+309603092+309639375+309646380+309501632+309441918+309447522
2683+309155644+308734883+308617978+308614231+308386584+308015556+307667922
2669+307395937+307106266+306679411+306206572+305788998+305475266+305402595
2656+305396781+305069460+304624324+304459333+304477930+304541706+304567167
2642+304395487+304115552+303931894+303908358+304077447+304370516+304482378
2629+304344809+304338225+304539605+304646738+304704280+304938896+305192460
2615+305207834+305182933+305465565+305933221+306336891+306745534+307268665
2602+307922536+308533609+308900925+309258085+309865586+310495116+310846847
2588+310968340+311066508+311257136+311381396+311225125+311097398+311285469
2575+311485063+311496235+311377579+311179071+311125907+311315904+311378909
2561+311092845+310811790+310765490+310708193+310593774+310734040+311089448
2548+311241481+311154555+311171996+311313943+311288061+311113964+311077926
2534+311204007+311383918+311655657+311987356+312266450+312494062+312735857
2521+313037927+313385595+313707557+313952820+314171466+314455569+314787337
2507+315099458+315363668+315570301+315757216+315975862+316225607+316465021
2494+316698376+316937160+317160289+317425479+317611729+317544836+317573940
2480+317993299+318467084+318632180+318558388+318528199+318570611+318530895
2467+318489919+318616946+318869878+319036305+318941184+318609766+318243220
2453+318009235+317992739+318267981+318762955+319284405+319613442+319640584
2440+319655644+319931411+320198598+320315994+320566720+320834923+320909766
2426+321026356+321231973+321378928+321415561+321386142+321580587+322053391
2413+322392935+322476884+322578449+322810684+323159088+323534529+323786341
2399+324048450+324490084+324906607+325184686+325509485+325766340+325597496
2386+324832814+323315253+320829109+317348535+313150734+308557564+303725541
2372+298688916+293465918+288420170+284062701+280599288+278072868+276960745
2359+278310163+282333797+288109677+295271347+302530502+306329501+304780735
2345+300243601+297119661+296486279+297192088+298759451+300777765+302608112
2332+303946463+305505491+307886077+310532450+312968372+315591700+318749961
2318+322239886+325634515+328551752+331021261+333372008+335755466+338101941
2305+340293511+342363167+344332764+346057624+347596093+349085181+350497115
2291+351930167+353417819+354778724+356026927+357157770+357981394+358591592
2278+359252047+360113391+361156362+362127432+362830964+363291861+363731008
2264+364422143+365352376+366279072+367034228+367699586+368465844+369218724
2251+369819605+370554483+371341894+371677620+371842752+372335168+372850805
2237+373092285+373290513+373742934+374502958+375158580+375350258+375478966
2224+375903999+376416134+376872617+377236361+377443730+377576500+377762645
2210+378047553+378491394+379090139+379662302+380148310+380624476+381120850
2197+381715463+382406738+383100884+383767013+384347441+384857789+385504796
2183+386426554+387526191+388518204+389187520+389707289+390405393+391388721
2170+392453301+393307780+394074774+395065351+396131192+396965113+397743454
2156+398847959+400182808+401394062+402443197+403430763+404478251+405796745
2143+407329401+408820625+410161147+411339620+412483176+413704692+414894723
2129+416081566+417469194+419006473+420640484+422492720+424266472+425707579
2116+427311015+429350447+431384731+433181247+435008792+437021432+439102716
2102+441209601+443342613+445541853+447991994+450642359+453258928+456015551
2089+459127723+462366992+465553482+468718398+472040110+475816694+479847998
2075+483740542+487693990+491810258+495856551+499936676+504422712+509645937
2062+515241592+520502712+525713119+531407572+537507446+543837803+550093143
2048+556032964+561938358+567962618+574000818+580410046+587303075+594208923
2035+600938362+607425725+613742319+620079506+626244942+632314347+638613359
2021+644727312+650151391+655259007+660754673+666534301+671836292+676713879
2008+681679934+686601020+691306297+695645729+699503670+703111481+706171960
1994+708172307+710030112+712983282+716509841+719792292+722658466+724943336
1981+726779077+728485305+730088706+731213140+731967805+732650044+732804633
1967+732957192+734123512+735609798+736848895+738008841+738450616+738141016
1954+738108305+738457410+738932315+739505214+739162974+737545843+736889942
1940+738410900+740566607+742670760+744460412+745561800+746944980+749088429
1927+750846910+751612643+752830026+755088909+757411183+761375033+767792351
1913+773466352+776645487+779267063+783779997+790045177+796272183+801656197
1900+807018286+812711969+817840388+822317668+826218688+829780759+834655686
1886+840978513+847593359+853763978+858254987+860669090+862691011+865979977
1873+868545237+866926216+864207907+867275530+873621823+877370985+878723835
1859+879317817+879166380+878581013+877461203+874984059+870912970+865305163
1846+858438015+854398867+856200566+858014172+856490132+854146494+851319756
1832+846069949+840382990+837344015+834542843+831594366+830868209+830151648
1819+827983333+825830778+823457161+819475870+815575411+814897725+815539478
1805+813660519+808988864+804311114+802960856+803763222+801930003+796148273
1792+792747866+796699458+801608846+802818594+801805953+800222024+799514289
1778+799818564+798324573+793852546+789630860+791089969+797305418+803359903
1765+805191371+802700078+801400882+803050864+804780977+806088648+804628629
1751+799787885+797823961+801527454+806283723+808937170+809035304+808887018
1738+809559451+806525029+802217748+807120622+816581538+823976125+827903972
1724+828911921+828147659+823808998+816594987+816156295+825515716+835427792
1711+841220309+841891340+839055356+838142809+838382713+834223578+832132592
1697+838667096+850578609+863274206+869946559+870866180+869045849+864353040
1684+864439826+875850377+886888007+891670264+892063707+892857388+894065104
1670+895794517+905318684+918516995+924473977+925437377+930322599+936323010
1657+935191292+924373182+917948859+928979485+935733720+937221688+947026105
1643+959044226+964420955+963561783+957290088+954201801+963747332+973735057
1630+976116309+974486991+972041718+969913329+973514695+979444430+978497141
1616+975984624+982235516+990138350+993069595+992859951+994306591+998515319
1603+1001741594+1003166451+1005370279+1007223041+1007097730+1006864480
1591+1008601457+1012476910+1016324626+1017199208+1016494905+1017606871
1580+1017248170+1010440210+1005290077+1009943731+1012886884+1010504161
1568+1011631186+1016102863+1018385772+1014725847+1000378447+990247690
1557+1003786700+1019506283+1028780459+1034619905+1039010890+1040172587
1545+1036685254+1029049782+1020627284+1025671509+1040049238+1046519651
1533+1046602374+1048784067+1050992238+1050065262+1048604612+1045986257
1522+1041117986+1039963083+1043174999+1047366285+1052016927+1054533366
1510+1049494815+1036014362+1033022808+1049989053+1062785164+1064219407
1499+1058216615+1053536555+1055589996+1057026690+1052683406+1049138005
1487+1053111171+1059519874+1063668503+1065136647+1063078303+1056437891
1476+1045915162+1037211573+1040520431+1049737871+1050728238+1044780011
1464+1041961748+1042286477+1034974333+1016415964+1005413006+1011182127
1452+1016297518+1013639869+1007389047+1003819691+1001214575+995356006+987080182
1439+975611494+961176958+953359369+951211227+946265976+940493913+937108775
1425+935412214+936692918+937554262+934821454+938548551+951566076+963541540
1412+969849097+972598366+973360736+972813544+974622808+978753085+981845715
1398+984225636+986260795+990712999+999703213+1007046457+1008284083+1004946366
1385+1002132446+1003953407+1008946920+1012620783+1013996048+1016135994
1373+1021246132+1026857932+1029178735+1026995991+1021386012+1016968480
1362+1018371412+1022517240+1025342787+1027116818+1026704813+1023537026
1350+1020808140+1020127792+1019180013+1016226353+1011841252+1007779408
1339+1005108941+1002480219+999305287+997220326+996378034+995276225+995107276
1325+998212514+1002291448+1003098997+1002819167+1006055109+1010535051
1314+1013200896+1015525061+1018134240+1019513777+1019281368+1019084961
1302+1018854863+1018610546+1020966512+1024342894+1025166904+1025741133
1290+1028951509+1033642707+1038955905+1044360512+1049374897+1056184188
1279+1063530794+1066381558+1065878284+1065754305+1065608751+1064509464
1267+1062303465+1059264840+1056927506+1054120520+1049619635+1047569976
1256+1048224687+1046544306+1042961992+1040172447+1036592654+1032353037
1244+1030550427+1030358644+1028610599+1025098960+1021708079+1019270021
1233+1016648304+1014529581+1015098207+1016976535+1017386929+1016476904
1221+1016150214+1016652437+1016717158+1015595317+1013264987+1011869410
1209+1013035240+1014989987+1016324906+1016831822+1016369525+1015141355
1198+1013377830+1011502303+1010323375+1010599843+1011124340+1010452048
1186+1009468615+1008862865+1007982399+1005687863+1002172511+999159663+998027385
1173+999733192+1002707866+1002921153+999629596+996393794+994900713+993463599
1159+992203698+992184086+991884433+989107006+984770517+982766457+983226793
1146+982280134+979055190+975958918+974942774+974849894+973566319+971341898
1132+967986039+963337148+959561719+957382477+955007740+951915390+949597950
1119+948962711+948914170+947381724+943863921+939927108+936311732+932356848
1105+928481045+926482449+926450298+925495234+922758503+920827921+920164735
1092+919225290+918428458+919005489+919289101+917590018+916396941+916568691
1078+916219166+916155005+917119316+918441276+920360371+922552571+923944576
1065+924735105+926716750+929641972+931003928+930915951+930798696+930676187
1051+930825383+932783352+936580986+938031759+935633416+933992050+934881132
1038+935263298+934550169+934920427+934353833+930877356+928976964+930854101
1024+932722553+932406370+931439678+930766895+929953392+930208706+932371488
1011+932602426+928485458+924573231+923336795+922641668+922806274+924741899
997+926842130+927979172+929878374+933633209+936125693+936082895+937046995
984+940223889+943356795+946613680+951338920+954896928+955302489+954907785
970+954631107+953092918+950627962+949174387+949524472+950411733+950427493
957+949503669+948519536+947979068+947233578+945942158+945634870+947624990
943+949312936+947116323+942630847+939780784+938881546+937921788+937467126
930+937901475+935919760+931334681+927472046+925193410+923769744+922221048
916+920860843+921535867+924283384+926078569+923753073+919492652+918033824
903+918354210+917879655+918137280+918972007+919534189+921608293+923491105
889+922280306+919904377+919403485+921762322+925966707+929795931+931492002
876+930878127+929088405+929001339+934038490+941532191+944732830+945102247
862+949004808+955676530+960483652+963556319+967980225+974282389+981005594
849+988952837+999813184+1011231229+1018095085+1019244314+1020768284+1026323348
835+1031194912+1033790432+1036439256+1036579486+1034798660+1037046126
824+1042443658+1046296557+1048904405+1050079201+1048238907+1045023278
812+1043532649+1044900279+1045432761+1042388533+1038443105+1034988342
800+1032233260+1030023338+1026846515+1025099381+1026807079+1026606470
789+1021388323+1016721851+1015354782+1012241069+1005633998+1000106672+996874093
775+994280184+992264427+990260788+986370276+979021568+971003790+966763753
762+965438290+964967097+967780106+976401323+984274738+980975965+970185734
748+961651093+956941754+955151962+955586312+955355373+953193433+952008971
735+953728367+954962631+951974999+946455868+941516851+937395399+933912059
721+931648272+930125493+927654513+923932178+922598941+926190851+931287820
708+936315165+942176115+944550643+941775737+940272851+944236911+950748300
694+955887015+960173773+963565845+963093601+960310571+959920980+960854471
681+959494196+957422683+957760861+960283043+961596668+959030428+954500193
667+954067735+959137036+963673505+965700819+966814185+966735594+964933195
654+964498845+967568991+971960185+972726408+973350300+985736578+1004401065
640+1001786353+977597832+962246056+966595364+969047572+956752492+954252444
627+976071901+993790639+975289777+950621868+958733787+981168309+980754133
613+967891828+967165251+981608472+990555188+992214485+1016599693+1061217416
600+1073741823
##END=
