##TITLE=Sample description
##JCAMP-DX=4.24
##DATA TYPE=INFRARED SPECTRUM
##DATE=13/9/2023
##SAMPLING PROCEDURE=Instrument type and / or accessory
##ORIGIN=Default
##XUNITS=1/CM
##YUNITS=ABSORBANCE
##RESOLUTION=4
##FIRSTX=4397.6552
##LASTX=599.8556
##DELTAX=-1.9287962
##MAXY=1.689894
##MINY=0.28913778
##XFACTOR=1
##YFACTOR=1.5738364e-009
##NPOINTS=1970
##FIRSTY=0.3174015
##XYDATA=(X++(Y..Y))
4398+201673757+201294524+200209674+199863769+200319826+201173276+202433814
4384+203236458+202659608+201702331+201745752+202349643+202931190+203286279
4371+202892995+202320387+202255834+202261931+202100652+201756583+201256386
4357+200968879+200798455+200595990+200827465+201606609+202683600+203303568
4344+202556482+201371025+201053240+201116903+201025726+201384186+201893984
4330+201256651+200242869+199907625+199255049+198299742+198078871+198633926
4317+199373362+199442554+198669961+197877902+197566877+197437846+197313739
4303+197675418+199080231+201059394+201613502+200142338+199147530+199908212
4290+200839205+200372411+198981706+198791436+199810748+199859375+198516995
4276+196810020+195798112+196172100+197387817+198160978+197955805+197647336
4263+198018749+198502074+198469977+198305669+198466966+198591414+198293871
4249+197978547+197777825+197300389+197172627+197704410+197402776+196156686
4236+195862438+196804983+197539400+197520313+197435858+197761180+198176884
4222+197969420+196831266+195760960+195801956+196014874+195600420+195853425
4209+196838916+196989875+196807350+197129775+197043748+196640598+196654365
4195+196662034+196492575+196510810+196648268+196544157+196283729+196313553
4182+196364245+196114875+196373050+197146950+197155660+196674267+196573887
4168+196261403+195761963+196037181+196684928+196433021+195553875+195345956
4155+195683170+195511666+195154304+195821385+197167230+198085934+198205402
4141+197294916+196222887+196051496+196063956+195516608+194927923+195008344
4128+195217967+194739868+194426078+194779047+194795900+194328122+194373493
4114+195234195+195959259+195834697+195358189+195328137+195844354+195946022
4101+195310110+195376216+196282498+196490265+196356424+196830736+196778283
4087+195844885+195521967+195569402+194771511+193975153+194237664+194837200
4074+195014707+195251863+195986072+196683091+196628877+195951836+195378185
4060+195358284+195984614+196629578+196281153+195249325+194555355+194120525
4047+193647994+193651403+194354367+195259494+195686124+195281195+194587471
4033+194547004+195334727+196063597+196003285+195451279+195119121+195315753
4020+195615190+195609717+195507992+195695801+196114383+196340461+196501039
4006+196826797+196912237+196558870+196001467+195411191+195026921+195147657
3993+195787660+196683205+197246705+197062570+196652301+196705246+197142916
3979+197348373+197140682+197208132+197642318+197721244+197571043+197641504
3966+197727777+197819882+198134562+198095838+197342995+196717384+196702671
3952+196804907+196754442+197219229+198043214+198096803+198257779+199288831
3939+199719551+198873657+197308134+196442849+197651957+199206724+198627450
3925+197308759+197551368+197687954+196519881+196357901+198473670+200675843
3912+201184599+200461771+198242365+193911603+190567280+191117468+193818703
3898+196965258+198755969+197527774+195829319+197277533+198520877+197573883
3885+197478540+197412718+197443470+199626783+199749735+196797257+194074435
3871+192338468+193222481+194914573+194645529+196067365+199650984+200610949
3858+196850183+188576528+183715271+191410334+200128420+203488725+201846965
3844+197301677+192974172+190582183+191262083+194444352+196941891+198581852
3831+200733485+202218965+202216787+200124916+194680712+191788658+194948147
3817+197851713+201083840+205095567+206055835+202968020+199591562+198823022
3804+196980407+195962288+199229542+201844674+204142816+207709411+210009409
3790+210793155+210640549+209651763+209494726+209398568+208101900+208712551
3777+211673456+213311562+211925231+209567724+209973127+212788471+216151692
3763+217890860+216421021+216027131+219426785+221824910+221347474+226205114
3750+245079557+266953744+288220612+312030769+325481667+324406324+313729602
3736+301914745+299213927+304864440+311021834+313918130+315972980+321143482
3723+329539597+339688210+350466411+360113975+366283015+369941167+379188459
3709+398297445+422123982+446236453+468155178+485370099+496245215+500149762
3696+497233035+487986045+473651305+460228451+454928009+454817687+453197288
3682+447576106+438324951+426431868+415115958+411072685+408980776+404217173
3669+403851176+405859274+404096133+399569383+394159377+387509095+379744613
3655+373340689+365783860+353348713+343564998+344614550+348624421+349231853
3642+346760427+343125378+338708002+333353404+327519987+320333548+311214452
3628+307697526+310353617+310265280+305331461+298228946+294047742+293016084
3615+290775982+287638630+285373304+283829918+283725920+283448488+280461545
3601+276526851+274023271+271955885+270051462+268998956+266544232+261182930
3588+257439661+258519738+260282821+260286855+258697302+256368995+254515207
3574+253135731+250734198+245874248+240082074+238472714+240714370+241768788
3561+241319795+241107351+240576458+238821536+236669751+235115988+233475724
3547+231826390+231610045+232313672+232280951+231357153+230480165+230019109
3534+229330801+227746228+225488117+223724901+222937690+222614659+222740679
3520+222937747+222438477+221712354+221181613+220375484+219644740+219601907
3507+219065182+217405755+216768195+217873969+218567371+217927596+216982230
3493+216483491+215817054+214694976+214046566+214173722+214359315+214127253
3480+213717949+213490262+213259525+212794152+212585703+212913544+213008717
3466+212435464+211704625+211334519+211413274+211636020+211703811+211580253
3453+211180625+210197406+209039047+208896288+209566853+210026527+210523997
3439+211122833+211024270+210209014+209582627+209725102+210265917+210570410
3426+210487602+210229825+210061862+210087350+210257510+210490613+210709344
3412+210952900+211065854+210953033+211226962+211980543+212506815+212697312
3399+212773947+212804453+212776087+212732193+212797143+212845449+212957778
3385+213391358+213974287+214418888+214740252+214991989+214972447+214891817
3372+215379687+216263756+216766718+216770751+216853104+217278826+217670652
3358+217890197+218305068+218765556+218822629+218670137+218426032+218027181
3345+217779042+217678018+217643270+217705532+217721760+217894344+217885103
3331+217183028+216538330+216386462+216084431+215274402+214396240+213772031
3318+212924299+211444954+209767500+208677235+208125608+207528723+206737838
3304+205726044+204590427+203641407+203171470+202951243+202594657+202471232
3291+202666766+202768377+202742226+202847322+203409307+204119979+204429035
3277+204489157+204566454+204961348+205872950+206597692+206473111+205948146
3264+205710763+205804818+206105997+206648838+207381684+208176035+208770477
3250+209016949+208824217+208227730+208001936+208496945+208967526+208967564
3237+208984019+209520725+210209052+210728697+211342946+212014874+212669552
3223+213519139+214309778+214557273+214489046+214764188+215610802+216544711
3210+217110219+217636150+218613347+219866823+220889088+221686108+222605077
3196+223819033+225355034+226899576+227956230+228391930+228678528+229289918
3183+229950068+230625689+231937147+233580062+234578619+234915076+235163176
3169+235659851+236581093+237722466+238523974+238995085+239785743+241094247
3156+242456945+243235939+243153567+242858182+243051255+243599436+244411226
3142+245395392+245932628+245997144+245947645+245565628+245109097+245299879
3129+246029998+246558940+246500427+246269824+246313206+246367269+245874324
3115+244683565+243581958+243388090+243427742+242539677+240811891+239278862
3102+238618503+238497199+238448893+238426756+238309731+238118458+238176326
3088+238631361+239196054+239654081+240061926+240273499+240366419+240648037
3075+241064100+241446061+241589502+241451098+241412922+241771761+242282336
3061+242466432+242310778+242157831+242089433+242072334+241979964+241515783
3047+240909999+240646332+240518817+240050224+239247068+238425450+237478683
3034+236038573+234354169+232992228+232039156+231284495+230706717+230217332
3020+229586590+228931325+228337489+227601803+226753390+225959721+225295386
3007+224712021+224085426+223543702+223294844+223366517+223776086+224695282
2993+226678081+229891082+233281799+235894962+237829531+239211355+239907124
2980+240261002+240787577+241397054+241476434+240375205+238256180+236280387
2966+235170277+234565724+233977152+233332321+232829170+232670050+232663952
2953+232417480+231994485+231875794+232306041+232845890+232961779+232719511
2939+232245218+231395309+230353881+229636638+229314289+228986145+228595929
2926+228590210+228976847+229011595+228426829+227616648+226797795+226163132
2912+225896493+226094849+226643503+227187935+227833694+228618842+228994231
2899+228923770+228926610+229264146+229938991+230777159+231498492+231921203
2885+232137623+232462283+232866171+233088613+233235273+233380399+233411436
2872+233315922+233005673+232620437+232555543+232663952+232546056+232376104
2858+232368284+232222703+231733224+231037076+230256379+229640122+229529706
2845+229801098+230105515+230389045+230725255+231155768+231610253+232046124
2831+232628958+233396684+234181756+234775270+234988680+234897938+234934258
2818+235352329+235738076+235833401+236002159+236414303+237102858+238024535
2804+238759483+239193119+239659818+240305104+240951203+241340908+241536518
2791+241809709+242051164+242009050+241795166+241576549+241390824+241306823
2777+241298795+241269216+241188662+241051035+240918614+240819749+240681156
2764+240532091+240421504+240401394+240587100+240880496+241039275+241018673
2750+240939255+240831054+240645367+240467954+240402170+240362026+240244489
2737+240132672+240110857+240098928+240018525+239948897+239995707+240033560
2723+239864631+239570970+239422019+239475835+239518366+239514730+239627759
2710+239751621+239629085+239424083+239470666+239575458+239496760+239304539
2696+238953748+238555635+238399337+238500986+238650430+238598999+238329955
2683+238018513+237699837+237342513+236984810+236621218+236075006+235290313
2669+234596249+234190562+233988097+233980314+234031650+233855241+233462279
2656+233091567+232769994+232521325+232563837+232815062+232923661+232769407
2642+232516648+232300796+232147281+232131223+232211550+232343288+232525870
2629+232561129+232473625+232530377+232728354+232970338+233342660+233846379
2615+234286643+234614957+234952967+235379692+235878923+236319604+236567175
2602+236716277+237164230+238129838+239230537+240007807+240478615+240842510
2588+241208166+241660493+242049043+242140012+242187958+242526195+242987989
2575+243372809+243664557+243761870+243800102+244069051+244322075+244282556
2561+244212076+244235007+244186057+243988970+243814683+243971322+244331998
2548+244582825+244744862+244810191+244745752+244721949+244818258+244900819
2534+244988834+245174238+245278727+245278367+245288422+245212110+245108454
2521+245135665+245334664+245660081+245834596+245754288+245788032+246210251
2507+246790472+247140278+247255978+247340490+247406141+247489952+247763749
2494+248289889+248890182+249275304+249437113+249720132+250265208+250815870
2480+251219247+251509385+251583994+251297756+250803315+250473865+250369641
2467+250273351+250212509+250336900+250531468+250589678+250535597+250480606
2453+250450611+250503292+250679776+250858135+250975198+251270923+251837283
2440+252356700+252643677+252777593+252844021+252846312+252796131+252836068
2426+252940803+252971858+253007477+253086384+253193846+253392372+253596768
2413+253671320+253704250+253829020+253979543+254080131+254178467+254326585
2399+254611857+255066702+255464076+255630998+255696081+255810683+255917141
2386+255577617+254365574+252315363+249455633+245823878+241910165+238149380
2372+234386796+230406731+226433294+222810950+219943741+218133223+217534274
2359+218598331+221599116+226242361+232332949+238602597+241943285+240712987
2345+236897193+234350988+234037028+234877563+236575355+238697486+240402094
2332+241764130+243648443+246042477+248364535+250633799+253135731+255931571
2318+258926731+261770195+264216872+266536203+268824422+270909419+272952473
2305+275019897+276872416+278465605+279907399+281310299+282822650+284376035
2291+285781339+287064260+288214780+289174669+290090268+291046484+291965415
2278+292795327+293578165+294296487+294800282+295159367+295607963+296174702
2264+296817828+297460501+297919758+298230329+298648627+299224020+299763926
2251+300130074+300354751+300568691+300906871+301347362+301708606+301867688
2237+301851593+301911052+302276462+302721441+302934359+303002358+303098611
2224+303255288+303477314+303700173+303861186+304040928+304340288+304753285
2210+305244430+305719253+306070461+306498720+307144725+307713641+308141805
2197+308730604+309520145+310277911+310945579+311648240+312370217+313079847
2183+313943807+315021385+316073721+316927265+317682929+318445164+319239041
2170+320157101+321189535+322186407+323175326+324226734+325286398+326388668
2156+327579635+328779919+329870676+330894740+332039503+333278606+334438253
2143+335549574+336717023+337889395+339050367+340312534+341742512+343264596
2129+344733810+346143224+347511774+348833475+350252622+351858176+353621771
2116+355426836+357149301+358899792+360759279+362700229+364858415+367250726
2102+369595393+371805653+374118773+376705520+379567636+382543065+385558790
2089+388866586+392587908+396553733+400714222+405109972+409546852+413870153
2075+418413604+423571646+429122802+434534663+439807344+445466057+451761780
2062+458407214+465177400+471990647+478662781+485388050+492532944+500035048
2048+507602292+514929615+522021374+529239057+536709917+544197856+551597592
2035+559022701+566483525+573835503+580717715+586915386+592842688+598863118
2021+604767470+610357255+615847739+621432525+626775232+631426695+635604264
2008+639945024+644348046+648073458+651197763+654424929+657725567+660282849
1994+661672607+662975487+665274102+667847518+669956393+671624891+672815062
1981+673654538+674353204+675047174+675769700+676303774+676337783+675816737
1967+675279179+675470434+676201140+676700750+676903669+676781039+676136076
1954+675574734+675548526+675724405+675857336+675901419+675811284+676306652
1940+678254495+681120208+684005767+686399138+688416288+690757092+693667950
1927+696837928+699929739+703615310+708394403+713301958+718823573+725795845
1913+732718883+738872433+745347140+752628600+759939525+766767959+773298035
1900+779176557+784241964+789939306+796929378+803275319+807877776+812327078
1886+817350598+821978959+826084154+829939392+833590272+836841525+838886396
1873+838700141+836128012+833810688+834510869+836194516+836293211+834877851
1859+832910163+830557694+827745607+824724921+821354977+817149496+811394967
1846+804245453+798810263+796883098+794816336+790778327+786281306+782065373
1832+777067152+771567654+767840348+764797165+761469487+759880142+758644221
1819+755691552+752215188+749252370+746348632+743813619+742434995+741587567
1805+740208034+737715362+734938193+733976921+734329663+732979671+729036569
1792+726782491+729689864+733229854+734174766+734023428+733809602+733642510
1778+733885574+732956720+729676533+727070547+729214568+733588883+736769996
1765+737827842+737229234+737829887+740086692+742135653+743720681+743106394
1751+739782729+738233681+740910942+744555914+746751744+747506840+748521664
1738+750049882+749120423+747813681+752165878+758830628+765026671+769878630
1724+772470451+773321515+771150832+765840469+765569682+774109712+783200175
1711+788722245+790587451+790509055+791761489+793196239+792323891+793739705
1697+799745706+808855182+819114912+825545232+828280514+829072725+827450583
1684+829198688+839226943+848966082+854484667+857329930+860262904+862512589
1670+864553673+871565483+880407202+884881197+887723808+893977872+900840617
1657+902784597+897503546+894111939+901980192+906804731+908566243+915906859
1643+924414016+929748845+931501419+927454775+923298907+928680546+935914060
1630+938962697+940662174+942470420+942962834+945336209+948291831+946660448
1616+946467830+953735808+959784907+960615369+959903750+960791247+962209864
1603+962859827+964116805+966511085+968810004+970875856+972855436+974353282
1589+975609654+977560830+980598407+983636061+985788489+986345741+983990469
1576+982272055+985020971+986223868+984566277+985884609+990105995+993634775
1562+993035107+984369418+979915950+993929573+1008736921+1017524861+1022650485
1549+1027476766+1030491696+1028363127+1021777000+1016050951+1023699772
1537+1038654443+1045482043+1045797973+1048653688+1053112306+1054182802
1526+1053171160+1051433356+1048459328+1047766342+1050594487+1056637753
1514+1063675771+1065973402+1061610676+1053483908+1052668444+1063478533
1503+1071946378+1073741823+1070410433+1068840024+1072604672+1073319169
1491+1067676818+1064472678+1068862142+1072857356+1072851069+1072332901
1479+1071797161+1068154462+1060589869+1050920642+1046693120+1050750823
1468+1053470804+1049771448+1045112486+1042564217+1035666629+1022946873
1456+1017468432+1022637987+1025777289+1021529089+1012199121+1004540908
1445+999428010+993319376+986151002+976554565+964069010+957605665+956474195
1431+951004617+942564418+938123600+938291904+940134008+939244087+937375776
1418+944390161+956937675+964860085+967659219+969295222+971122404+973230295
1404+977665963+982920882+985779551+987801548+991806154+999324316+1007176283
1391+1009508226+1006749842+1004136585+1005714038+1010267033+1014673767
1379+1017773076+1020080705+1022628898+1026368474+1030058363+1031660508
1368+1031109392+1028419936+1025085364+1026110413+1030733851+1032597163
1356+1031636800+1031293148+1030305441+1026826046+1023732493+1022622081
1344+1020736954+1015560809+1008502946+1003833986+1001624825+998574674+995008703
1331+992862031+992719859+994234520+996728025+999260312+1001124381+1003619629
1317+1007234455+1009671682+1011341165+1015200569+1020505706+1023512532
1306+1024015399+1025057793+1026957160+1028118094+1028312909+1028211032
1294+1028181795+1028646866+1031153324+1035650420+1039857264+1043353701
1283+1046820295+1049553986+1050359906+1049732743+1049774251+1049987320
1271+1047696203+1042739338+1036608284+1030716051+1025913553+1021107647
1260+1016139648+1012850523+1011758592+1011491593+1009733111+1006144266
1248+1003255223+1001877129+1000287936+997866009+995990729+995503390+994911902
1234+993492225+992960802+993094794+992354392+991650499+991879929+993097748
1221+994799194+994660506+992937927+993006551+995296986+997437826+998305629
1207+998442121+997842983+996834976+997000478+997545989+996517229+995180340
1194+995083008+994867591+993019882+991197927+991684887+992219037+989387333
1180+985224496+983471241+983663859+983279001+981557786+979463377+978234803
1167+977870700+977122042+974987414+971552102+968567319+966826485+964585057
1153+961793346+959827854+958000975+955420136+952682355+950680128+949385807
1140+947997185+946266274+944033027+940771246+937200200+934421138+932339303
1126+930633388+928558825+925520566+922471399+919589704+916239908+912949874
1113+909372239+904960885+901718267+900976957+900430082+898047088+895260149
1099+893526511+892242871+890585507+888462240+886684141+886449863+887390684
1086+887924910+888974878+891998368+894683809+895154334+894748798+895314912
1072+897717448+900596417+902108351+902933283+904396211+906189156+907794710
1059+909510851+911742811+914073391+914745698+913522805+913071898+914583302
1045+916324817+917527714+919079414+920946286+921865292+921032937+919581826
1032+918542007+917028104+914284566+910981429+909067822+908947388+908648198
1018+908067845+907641707+905817478+902989940+900725334+898154494+894841812
1005+891790525+888852627+886217479+885031777+885656365+888283332+892417234
991+896643847+902083658+910246708+918217064+922811643+924663669+925455425
978+925530867+924738883+923512203+920923790+916258692+912179553+910657167
964+910683450+911216388+911326596+909729298+907099680+906007218+906856161
951+907764412+908291821+907879695+906389727+905753929+904497254+901145867
937+898405965+896486147+893886978+890877351+887760090+884184348+880097256
924+876725267+874422032+871910272+868441254+864479443+861000882+857888393
910+854414149+851251972+849234671+847072017+843473174+839497956+836592856
897+834899741+833439541+831533812+829077724+826357591+825314136+826882121
883+829595437+832856385+835579168+835737929+835229305+837049140+840108305
870+843935518+850336071+858001025+864658124+871742346+881341585+892964033
856+904881959+916543188+928790830+942738555+958598371+973551679+984080226
843+991188837+998556722+1007447751+1015715782+1021285874+1023393613+1023725071
829+1028011749+1036566094+1041414796+1039761674+1036864300+1036847106
818+1037796637+1035977409+1032640944+1031104014+1031985300+1032873100
806+1030403000+1026247662+1024674981+1024013808+1021450845+1018711246
795+1015189131+1007907141+1000552208+998716694+998677383+994404793+987975912
781+981183381+971855762+962744695+957436301+952930872+946085170+937462958
768+929476998+925315071+924678288+924114825+922611375+922188797+922220003
754+919664766+916952208+918054365+920344496+920203233+918817338+917612926
741+915952382+914194430+913032132+912356417+910936361+906856616+901421046
727+896772537+893056820+890137025+887300018+886218388+888730982+891281826
714+890918707+890572555+893587334+898970867+905547828+911345835+912809671
700+912254995+912675376+913490159+915188575+916799886+917690034+919630606
687+921888243+922171603+920841077+920055380+921773793+925902090+927653755
673+924717448+920739125+918122080+920262162+924170800+924286235+924544523
660+926747246+926215672+923672630+923753222+925505795+926188858+926735127
646+928520195+930801389+930397141+925849448+924521573+927095140+918851423
633+905621528+909610909+924181632+928987387+926320578+923744587+924066728
619+928271223+929686129+926608407+922551915+918121095+913613319+914366218
606+928721372+951001738+968282520+972878690
##END=
