##TITLE=Sample description
##JCAMP-DX=4.24
##DATA TYPE=INFRARED SPECTRUM
##DATE=13/9/2023
##SAMPLING PROCEDURE=Instrument type and / or accessory
##ORIGIN=Default
##XUNITS=1/CM
##YUNITS=ABSORBANCE
##RESOLUTION=4
##FIRSTX=4397.6552
##LASTX=599.8556
##DELTAX=-1.9287962
##MAXY=1.8187606
##MINY=0.4378255
##XFACTOR=1
##YFACTOR=1.6938528e-009
##NPOINTS=1970
##FIRSTY=0.45729041
##XYDATA=(X++(Y..Y))
4398+269970567+270793035+271153263+270880338+270092743+269114600+268468991
4384+267850987+267366139+267606777+267933945+267621996+266916830+265845631
4371+264973300+266194686+268903326+269909602+269269448+268881562+268137442
4357+266153251+264492287+264757276+265665517+266119734+266795517+267297714
4344+267213929+266952899+266294499+264940240+263947353+264897627+266254014
4330+264927537+262306236+262067251+263913467+264704986+263699589+262804368
4317+262725862+262753996+262696515+262552258+262582732+263445931+264737694
4303+265312802+264881440+263956397+263138996+262573970+262088910+261958975
4290+262368520+262377018+261243393+260619830+261971837+263564904+263749768
4276+262948079+262071614+261900122+262134092+262136643+262238339+262485100
4263+262182459+261781342+262524635+263409457+262606818+260834869+260033585
4249+260499449+260722722+260369796+260707521+261350913+261301244+261428398
4236+262207707+262962085+263607113+263927155+263213086+262052261+262128708
4222+263105884+263205345+262737527+262977638+263970314+264975060+265694424
4209+265827878+264447509+262487405+261685277+261639989+261982851+263196636
4195+264183101+264075441+264378047+264785656+263324441+261057227+260161866
4182+260865325+261999249+262581940+262526482+262162965+261877460+262006462
4168+262704151+263089011+262063433+260115240+258663034+258787796+260471492
4155+262198312+262420160+261721345+261266671+260997864+260900901+260815163
4141+260479585+260231258+260273960+260856721+261894122+262376033+261553882
4128+259724909+258479067+259459233+261505145+262357682+262390003+262410940
4114+262047457+261766721+261686332+261018115+260147069+259946739+260483421
4101+260829168+260523976+260952540+262237301+262966307+263256527+263442676
4087+262991256+261826366+260869248+261127904+262248034+262940180+262841387
4074+262715974+263049986+263717940+264043806+263433403+262821804+263348704
4060+264206466+264189540+263986395+264444342+265022389+265133093+264658906
4047+264064180+263898846+264164081+264505043+264028252+262970530+262754242
4033+263423410+264554395+266019287+266867161+266772556+266485257+266300446
4020+266287707+266306533+266104409+266215131+266835949+267171773+267164172
4006+267667566+268391998+268509088+268626390+269240681+269907562+270714106
3993+271491128+271420222+270740340+270495777+271089676+271966740+272167034
3979+271755026+271490881+271217676+270918166+271356865+272392612+273152426
3966+273305550+273157493+273297316+273716168+274195246+274867299+275212501
3952+274680130+273898147+274057130+274807232+275197247+276152060+277751479
3939+278493241+277908245+276338437+275182609+276304762+278757632+279836960
3925+279501646+279361718+278942813+277910215+278337812+281359070+284015912
3912+284062625+282675430+279850631+274886829+270808060+271117581+275464031
3898+281137011+283829816+281609315+278898422+280808523+282957503+282001459
3885+281132841+280384956+280029865+282734441+284154925+281821010+278720737
3871+276766439+277750282+279449919+279464294+281694366+286311840+288115688
3858+284762706+276417577+270737648+278180272+288049340+292565769+291448349
3844+287148348+282423566+278712608+278989685+283814104+287606049+289016082
3831+290912423+292938489+293344831+291036218+285162345+282270090+285993346
3817+289008410+292149943+296906782+298570685+295360235+291850838+292031955
3804+291447979+290892858+294288454+297237839+299854829+303916883+306948434
3790+308121804+308141263+307877207+308402857+308357393+307560120+309580133
3777+313439430+314729873+312824013+311106835+313113229+316878747+320442106
3763+323158329+323262242+323643794+327383941+330283955+329052558+328999107
3750+338217551+350106403+364402098+390020001+416888196+436176689+448165125
3736+453507066+458683198+466200088+471657131+472961052+472881702+475984192
3723+483092611+492438685+502521754+511516714+517890004+523308586+533420474
3709+550206903+569110888+586794842+604204746+623778796+643329763+658661240
3696+669392205+673659058+667280314+655989074+654235545+660446298+663021062
3682+659238689+652950732+644502535+633173431+627112161+624965785+619361054
3669+616331017+616519699+613323923+607306709+600702194+593214440+585425963
3655+578707577+569239996+554265684+542170802+541866032+545581863+544805915
3642+538899862+531724867+525592620+519617246+512698741+504196142+494162866
3628+490038176+492059104+491302826+485725261+477580075+471707346+468675620
3615+465286024+462686135+460500734+456951381+454999107+454731003+452296748
3601+447869188+444089418+440708901+437799491+436990993+435663144+430803078
3588+426886002+427859465+429010385+427869529+426266961+424889636+422849882
3574+420479002+417900437+413384483+407170458+404742255+407324936+409264226
3561+408761167+407887289+407085758+404858166+401659786+399749668+398551138
3547+396922776+396092461+396191553+395888049+394900265+393646241+392486348
3534+391824975+391235492+389661180+387378835+385422971+384067428+383538682
3520+383326423+382190845+380350436+378432013+376336942+374646437+373929606
3507+373090001+371401045+370568407+370917973+370410797+369026118+368242604
3493+367977597+366721568+364654121+363256034+361993672+360410070+359504451
3480+358891955+357751662+356962025+356716830+355871173+354630873+353593683
3466+352455678+351425948+351072828+350695217+348988455+346802668+345849931
3453+345691335+345034958+343676917+342450728+342039899+342097468+341965088
3439+341361846+340445706+339279443+337939665+337047559+336748032+336252996
3426+335076529+333614997+332641921+332532519+332707619+332236828+331087104
3412+329984498+329270483+328924154+328943297+329129727+329251938+328983975
3399+328038910+326812791+325870541+325379305+325068729+324450497+323760022
3385+323592277+323578272+323004097+322224454+321832732+321602668+321338435
3372+320980565+320227173+319268771+318743789+318654163+318361181+317760156
3358+317128588+316247109+315306618+314979115+314852049+314230122+313563681
3345+313239768+312683891+311540220+310330253+309708361+309616343+309302740
3331+308670890+308114977+307262529+306075470+305031841+304210428+303378776
3318+301918723+299944350+298378519+297149374+295702199+294324593+293363499
3304+292400083+291028740+289819583+289192166+288336304+287449283+287836975
3291+289102294+289791643+289666881+289732631+290347485+290851652+290977470
3277+290736356+290496122+290933572+291689779+291835338+291484083+291419212
3264+291770555+292175613+292415337+292439670+292430627+292466677+292294411
3250+292080850+291994708+291431775+290518678+290322008+291031907+291875048
3237+292297103+292389209+292377597+292665177+293553202+294410964+294456762
3223+293934367+293730905+293984564+294108305+294111191+294290284+294501874
3210+294683624+295043113+295637382+296357274+296996936+297259269+297326937
3196+297931445+299119841+300175540+300997304+301803057+302151286+301815092
3183+301515846+301911861+302734223+303398588+303818144+304239002+304760746
3169+305311662+305929577+306609214+307105200+307417113+307763512+308043650
3156+308159315+308341101+308787048+309386489+309810514+310011372+310246257
3142+310630062+311257794+311809449+311665809+311280914+311145613+310775954
3129+310455490+310499652+310270045+310055780+310259699+310212159+309712021
3115+309064969+308699569+308865906+308727087+307734586+306590986+305700709
3102+304886546+304267188+304051832+304181468+304399603+304491446+304611546
3088+304984019+305595108+306215697+306383196+306200003+306411945+307013638
3075+307408386+307550338+307572859+307475104+307493121+307809996+308345992
3061+308830190+309015951+309072676+309234791+309433326+309484596+309305379
3047+308989173+308749185+308796514+308933434+308746511+308374530+308057162
3034+307466272+306565122+305912581+305662037+305622379+305571566+305319826
3020+305089621+305046514+305223056+305655879+305997104+306047213+305900652
3007+305809302+306264082+306991047+307305318+307667270+308940155+311232036
2993+314302294+318054229+322452160+326886829+330358942+332698505+334447247
2980+335904415+337038973+338091258+339445675+340645930+341079350+341140684
2966+341211907+340942888+340350626+340000673+339869419+339639390+339472067
2953+339344824+339103957+339138794+339518446+339452396+338601848+337528203
2939+336629164+335733292+334477369+332924100+331604168+330801336+330337125
2926+329930061+329467857+328847021+328136066+327591238+326877222+325768845
2912+324700654+323857038+323441634+323458314+323395220+323181343+322844199
2899+322278046+321827594+321814575+322174274+322623178+322973025+323274135
2885+323436215+323454513+323668672+324064546+324209665+323979002+323585979
2872+323215546+322962785+322857007+322764918+322446354+321950122+321505617
2858+320846777+319703599+318484764+317307699+315956942+314713158+313734277
2845+312960123+312567522+312626779+312877007+312990948+312925673+312824118
2831+312890766+313230021+313638000+313827456+313764504+313714923+313761477
2818+313858845+314002028+314001078+313905013+313818167+313786567+314159533
2804+314874675+315459337+315869885+316330084+316911227+317544836+318052716
2791+318275145+318188299+317887012+317649171+317573761+317466787+317342571
2777+317306995+317339967+317359391+317274410+317127427+316879979+316477138
2764+316140803+316028410+316090870+316230464+316414607+316652906+316741194
2750+316597413+316413763+316226488+316011449+315823224+315774910+315860419
2737+315809923+315622331+315638553+315851129+315953001+315886177+315709248
2723+315482984+315432699+315636653+315922034+316125707+316230218+316290637
2710+316319703+316514192+316933712+317123767+316954650+316822516+316843805
2696+316892119+316840708+316567186+316301757+316353062+316522003+316560887
2683+316586892+316540478+316188871+315791941+315687571+315599811+315237823
2669+314839733+314672727+314588449+314313308+313933234+313744094+313662527
2656+313379397+312938763+312496511+312145749+312098455+312269015+312253462
2642+311916494+311493700+311281899+311366633+311638889+311906570+311907591
2629+311607817+311447849+311686676+311947319+312036276+312327076+313024131
2615+313651900+313730722+313703697+314025816+314359018+314543900+314784029
2602+315094992+315400642+315789126+316401024+317035478+317414462+317653992
2588+317932019+318159585+318251427+318309630+318393696+318518862+318666198
2575+318770779+318888626+318902420+318778063+318874199+319151416+319335207
2561+319441442+319360156+319009500+318673200+318638223+318796502+318853472
2548+318821204+318901892+319059995+319079314+319062283+319275984+319521285
2534+319666123+319943832+320166718+320081139+320040355+320392560+320889707
2521+321140463+321278966+321603442+321981792+322133104+322178040+322507231
2507+323030594+323435758+323837367+324227893+324434908+324604729+324817868
2494+325036883+325391657+325803541+326015061+326067000+326156204+326435040
2480+326859980+327096061+327041589+327016605+327151906+327191669+327086560
2467+327110735+327255854+327254200+327060380+326854560+326835347+327013262
2453+327165242+327266621+327534267+327885029+328087013+328229422+328480072
2440+328739378+328874820+328980527+329190182+329396951+329354830+329162699
2426+329120191+329282271+329660128+330181204+330570498+330666668+330660440
2413+330915066+331352041+331566657+331658500+331970413+332260017+332189077
2399+332129291+332510597+333077312+333481315+333802166+334138290+334410405
2386+334376342+333432649+331036995+327393442+323189330+318865225+314507480
2372+310165147+305932990+301799574+297797833+294423790+292314363+291874960
2359+293265393+296498205+301573591+308228180+314874464+318347070+316854326
2345+312434473+309412494+308953984+309940889+311728832+313540633+314908104
2332+315997514+317528544+319927399+322557129+324773178+327034305+330099531
2318+333573545+336463143+338726733+341026497+343533241+345910350+347981281
2305+349910683+351933054+353985018+355768457+357225343+358590633+359993787
2291+361357528+362628442+363790095+364828305+365833508+366837973+367703511
2278+368467355+369330325+370203640+371045743+372018397+372868277+373402584
2264+373934638+374594287+375257667+375927415+376740734+377731369+378632659
2251+379232699+379722140+380322461+380965149+381573915+382188839+382726278
2237+383057369+383241371+383495153+384016299+384694985+385196285+385436660
2224+385619114+385999786+386612775+387129593+387388090+387613263+387935240
2210+388413175+389135671+389833887+390207592+390485760+390920763+391403307
2197+391880995+392476284+393158525+393763913+394341396+395012200+395669984
2183+396292720+397079472+398026191+398897219+399551414+400105145+400868988
2170+401979864+403317249+404619235+405597905+406396550+407309453+408300722
2156+409371517+410538870+411680993+412803515+413994269+415192976+416314548
2143+417438654+418594149+419768681+421153888+422803785+424415220+425876998
2129+427348840+428794079+430191286+431711090+433422814+435123805+436596597
2116+438016183+439622834+441529433+443732991+445926871+448019901+450163392
2102+452340171+454561956+456783812+458947008+461228544+463786770+466598601
2089+469560055+472629292+475801175+478995896+482401890+486253550+490259760
2075+494185070+498110345+502167156+506589966+511217891+515718046+520348047
2062+525355448+530561455+535830907+541286719+547177886+553472247+559784449
2048+565860499+571859203+577964143+584155190+590583303+597313935+604073070
2035+610716996+617231006+623578783+629892076+636246750+642472141+648591051
2021+654612769+660283162+665834195+671846553+678078349+683326687+687271915
2008+691569100+697068687+702070704+705561081+708764388+712613690+716673492
1994+719754553+721775586+724223460+727311277+730365735+733382611+736293429
1981+738530029+739459083+740069116+741824404+743853038+744445617+743982814
1967+744274107+745809324+747493671+748619220+749348050+749825070+750107706
1954+750359588+750506958+750694233+751116639+751222487+750624700+750780586
1940+752934211+755332680+756405797+756622349+757207961+759337094+762484943
1927+764614710+765158448+766059633+768369707+771167427+775031509+780241844
1913+784769094+788033840+791819170+796836670+802010127+807029246+811915914
1900+816717426+821773493+826892900+832086274+836756531+840582257+845542752
1886+851871457+857537416+862461103+867475155+872209386+876127940+878768859
1873+879395642+878229415+877724948+881026361+886794438+891155105+892825024
1859+892845293+892152918+891418246+891213729+890704195+888272720+883558617
1846+877575255+873823214+874569991+875559781+873788729+870430170+866437578
1832+860962694+855498929+853218836+851586920+848882802+847833753+847149191
1819+844674996+842114940+840322845+837199558+832645354+830059962+829981702
1805+829079110+825783045+822070275+820445397+820278110+818669489+814885286
1792+813084816+815883874+818811300+819284378+818636130+817763237+817254970
1778+817794625+817236672+812986639+807991167+809176115+814900980+819535908
1765+820615078+818592003+817562379+818975702+820433011+821409148+820383606
1751+816996191+815887674+818915881+822333558+824167176+825042814+826664102
1738+828182077+826234166+824331085+828976710+835222370+839906210+843066868
1724+844840946+845703846+843810759+838860258+837947883+845069322+853785235
1711+859339012+860350761+858387015+857364639+856619341+852675802+851026855
1697+856329385+865966611+876882387+883888759+887249430+888134006+883955195
1684+881201742+890030752+900531300+905275736+906506499+910095827+914488796
1670+916739824+922218156+930546360+935982255+939910380+944692960+947393700
1657+945284976+937794970+934993449+945123530+951661609+953578413+960232333
1643+969253474+974237967+973729348+968039531+964932008+972737446+981009559
1630+983644848+984303864+984395988+983744925+987955405+995595526+998583196
1616+998069017+1000908050+1004490762+1005386809+1004958421+1005036399
1605+1006192844+1008919765+1012072329+1013796580+1014462563+1015411816
1593+1017806555+1021663740+1024412055+1024898857+1025379395+1026670683
1582+1027044318+1024685754+1019970103+1018714074+1022873953+1023707153
1570+1020508562+1021122536+1024969094+1028215401+1027949655+1017365006
1558+1007311214+1016968921+1029153605+1037330426+1043927622+1049701399
1547+1051533962+1047486054+1040883720+1035676552+1040237020+1051374979
1535+1056741481+1057518380+1060465653+1064233106+1065535232+1063497871
1524+1058315547+1054574203+1055431121+1055354269+1056051148+1061910997
1512+1066072213+1061491476+1049447477+1044056272+1056631270+1069914478
1501+1073741823+1070451670+1068730516+1069465399+1066574709+1061164713
1489+1059905447+1064768398+1069614881+1069678502+1066437121+1063241134
1477+1058857313+1052179183+1048254577+1052119081+1057845495+1057395289
1466+1050487517+1044946548+1043605433+1037841649+1024535849+1017452133
1454+1022212403+1025367149+1021471538+1014799954+1011675822+1008454006
1443+999709801+990146471+982615646+974336003+967373055+960810978+952275442
1429+946387230+943521877+940232569+938676942+938653296+940036426+949258495
1416+961867275+968942546+971602185+973176743+973687474+975461411+981754506
1402+987800082+988746731+988654888+992112610+999085059+1008161235+1014692065
1389+1014052825+1009988097+1010637330+1015312795+1020019367+1023961568
1377+1025924681+1026343779+1028700162+1031918600+1033469511+1034086089
1366+1033124098+1030970262+1031524767+1034474925+1035624332+1034296236
1354+1031865324+1029489236+1028404576+1028308933+1027446878+1025172063
1342+1020585484+1012421965+1004673321+1002443337+1003903531+1005370834
1331+1005461762+1003974050+1001953720+1001309131+1001854558+1003081662
1319+1007035334+1011952476+1013983785+1015709021+1018894452+1020324384
1308+1020564442+1022872123+1026729589+1030695719+1033002204+1031969624
1296+1030819935+1032709151+1036130769+1038932572+1041070784+1044470725
1285+1049598930+1054262290+1058662508+1064546779+1069301067+1069882738
1273+1068228794+1067973746+1070199437+1072003426+1070246238+1065825470
1261+1060900797+1056591929+1054063332+1053208737+1052885775+1052557674
1250+1051484838+1049737151+1047953079+1045315327+1041965987+1039048132
1238+1036129221+1033278154+1032124454+1032883829+1033778398+1033214885
1227+1030775668+1027718043+1026330689+1026968310+1027149884+1025733465
1215+1025315492+1027282124+1028928678+1028023341+1025616005+1023396014
1204+1022768175+1024314793+1025301346+1024032227+1022964458+1021474354
1192+1018056817+1016435529+1018044150+1018961944+1016748287+1013624507
1180+1012437659+1012471792+1011636551+1009175869+1006794995+1006564719
1169+1006586466+1005491461+1004704780+1002735263+998378327+995638034+996655131
1155+997765127+996582994+994022939+991293344+989049143+986038249+982593266
1142+981399732+981684550+980807153+978612639+975684438+972339883+969008208
1128+966335549+965641274+966271083+965551964+962225356+956049300+948322473
1115+942423212+940471853+941053383+941390702+940964355+939409573+934712291
1101+927683751+922985976+923317032+925771803+926750685+926595432+927290622
1088+929456914+930034011+925762583+919414172+916063847+917592307+922187964
1074+925872161+926801708+926915931+927500699+928497175+930533973+932655013
1061+933472871+933638118+934010556+935318031+937027362+937109352+936022018
1047+937802079+944039856+949688995+950350685+947958621+944641444+940277329
1034+937431611+938569265+940888699+941659545+940129184+936791879+935424442
1020+936502204+935662529+931881634+929227624+930231138+932682742+933985572
1007+933057432+930559450+929160202+929704081+929832731+928132901+926898548
993+928086592+931398632+936609530+942190333+945708016+947210085+948959039
980+951845013+953692777+953587632+953629859+954514928+955222222+955513304
966+955957387+956642865+956528642+955858225+955840278+956428002+956805296
953+954119054+948457387+946156181+948991483+951654571+951981334+952209921
939+952300778+951155594+949594408+948111763+946438747+944497099+942871869
926+941646455+939211883+934821517+931095305+931303341+933639596+933581393
912+930406097+926578682+924429913+923812209+923595446+923878575+924968794
899+925993774+925765539+924640694+922295924+919899074+921539013+926362834
885+929323619+929152179+928635608+929760523+932229510+935521704+938839726
872+941984126+946123033+950056014+951275095+952186414+957068860+964716582
858+971262895+975753830+979779358+984471855+989578031+994916594+999090126
845+1001073155+1004015080+1011057484+1020931179+1029147271+1031853571
833+1030584381+1030936762+1034321291+1037297559+1038999712+1040733957
822+1042156569+1042365872+1042329206+1043077671+1042718957+1041662026
810+1041156574+1039183960+1037202972+1037396721+1036504545+1033228116
799+1032943931+1038062493+1041405007+1037376171+1031040287+1026191060
787+1019443045+1013376637+1013076617+1011734446+1004473308+998371993+995330625
773+990632358+983663920+977222399+973300115+971548910+970302734+969273532
760+969790807+971035435+966742753+957041202+953397754+958796489+963782953
746+961698721+955304283+951704891+953104983+956085052+957854274+956986166
733+953251650+948425577+942860890+936073183+930952931+928880452+927729356
719+927591345+930030140+933955591+935141031+934424376+937857114+943794238
706+947849466+951401001+954370020+954515561+952343216+949220140+947301435
692+950206904+956458686+959929428+960688028+962551275+963930465+961887966
679+956746038+951426759+950801524+954827897+954471505+944949979+940472697
665+947290316+952157560+953857812+954258824+954685101+956471706+956249524
652+954773917+955071403+956576076+960572538+966052982+969427025+971416459
638+968722897+957517728+951077967+960031546+979897100+997527462+994814687
625+974390405+954748511+942707749+937080427+933923499+934998024+946438887
611+964099582+969214344+960637075+960140490+965565899+963612499+959930624
##END=
