##TITLE=Sample description
##JCAMP-DX=4.24
##DATA TYPE=INFRARED SPECTRUM
##DATE=13/9/2023
##SAMPLING PROCEDURE=Instrument type and / or accessory
##ORIGIN=Default
##XUNITS=1/CM
##YUNITS=ABSORBANCE
##RESOLUTION=4
##FIRSTX=4397.6552
##LASTX=599.8556
##DELTAX=-1.9287962
##MAXY=1.6331896
##MINY=0.24304587
##XFACTOR=1
##YFACTOR=1.5210263e-009
##NPOINTS=1970
##FIRSTY=0.26763284
##XYDATA=(X++(Y..Y))
4398+175955433+174920893+174582061+174925321+174965174+174812286+174833623
4384+174883900+174750821+174228770+173362049+172480358+172437762+173811349
4371+175393196+175555078+174830782+174880844+175667584+176087160+175945362
4357+175218970+173449847+171433219+170919398+171889926+173006484+173255244
4344+172244902+171486945+172241434+172435332+170938423+169787830+169219127
4330+168079644+167169895+166801536+165946415+164793040+164475252+165341797
4317+166359780+166297120+165182893+163668506+162643107+162731239+163073822
4303+163070511+163162718+163191168+163023428+163012034+163204844+163199456
4290+162822035+162882520+163684289+164102131+163345164+161926031+161176901
4276+161597614+161984979+161749258+161399298+160916473+160610059+161108764
4263+161977533+162260748+162010695+162216437+162646477+162019071+160724985
4249+160230620+160373741+160289264+160438478+161100359+161590482+161509149
4236+160699945+159790705+159851681+160816673+162040056+162808819+162749980
4222+162334694+161930264+161915950+162574745+163095032+162822153+162590469
4209+163276478+163906470+163240299+161986654+161249015+161381330+162395787
4195+163249821+162810602+161795293+161520180+161884601+162068094+161916195
4182+161561532+160952320+160688296+161362795+162274473+162634535+162521117
4168+162201664+161738198+161155417+160796923+160833298+160832965+160702668
4155+160700572+160822062+161310803+162173185+162703161+162870892+163074361
4141+162925812+162281478+161639525+161120707+160821425+161088994+161541880
4128+161555086+161446685+161731389+162515141+163399810+163508897+162980959
4114+162646183+162691904+163183389+163722242+163644044+163344860+163536299
4101+163974950+164353958+165030435+165624806+165704003+165993380+166570822
4087+167130845+167777335+167750335+166680958+166069737+166958344+168232062
4074+168968898+169580374+170002889+169788967+169047272+168232768+167802944
4060+168006227+168764576+169506957+169889560+170033906+169843319+169513187
4047+169509856+169848218+170446899+171132752+171257641+170642580+170138340
4033+170264248+170497627+170372737+170536500+171814236+173476103+174155647
4020+173651191+172869427+172913141+173607576+173807547+173735678+174425293
4006+175195124+174686652+173687419+173681267+174256201+174546793+174587939
3993+174801764+175402698+176133146+176796741+177203523+177229347+177081886
3979+176753792+176330493+176195415+176478071+177112550+177544255+177191708
3966+176601139+176583269+177550172+179055526+179864152+179856981+179719180
3952+179627697+179661359+180323543+181024209+180413811+179914900+181078816
3939+182345050+182199470+180391552+178675137+179845107+182395601+182657998
3925+181627808+181868652+181842945+180759010+181277358+184540371+187746583
3912+188706276+187764747+184448399+178751493+174722919+175330731+179233396
3898+184675782+188101913+186885172+184576071+185927811+187082244+185910000
3885+186027875+186207529+186810442+190302622+191011419+187602100+184529712
3871+182892631+184003331+185752370+185714339+188141923+192874649+194394659
3858+190822302+182278667+176220710+183470132+193208955+197804056+197115793
3844+193355240+188694971+184511373+184510354+189238986+193088082+195003568
3831+197158742+198898964+199171452+196852887+190922131+188207875+191864033
3817+195282953+199736080+204828662+205988091+202502083+198699090+198037024
3804+196532042+196148126+200425538+203883939+207141799+211591575+214204867
3790+215126881+215197398+214591937+215099509+215790613+215702148+217976510
3777+222027361+223885085+222632449+220907863+222154660+225757230+230373493
3763+233673793+233212169+233393566+237333185+239655943+237801138+239625867
3750+253956656+270554068+288066656+314924021+337420682+346757054+348247418
3736+350386839+360193182+374899795+388299479+397932301+406128210+416244091
3723+428853371+443292963+458795036+472763561+481351066+487135908+500018205
3709+521829796+544445939+562080615+576091383+592683994+611639864+626885496
3696+635058990+634913213+629796982+627951856+633676703+642895826+649815488
3682+651279480+648191770+642576686+636902469+638607619+643455575+643513023
3669+645748962+651487603+653391744+652324914+651328229+648302670+642582212
3655+639074808+635158133+624195653+615602622+622948523+633101162+635999637
3642+636144865+636194672+634774726+632579307+628350311+620002317+611003700
3628+612009124+619918104+623482369+620030454+613209661+610737306+611869931
3615+611914487+612732479+614217788+613497059+612185270+611204691+609144114
3601+607485441+606481192+603891982+601844415+604189138+607054892+604669101
3588+601784263+604497697+607321051+606451880+604678663+604944156+606541972
3574+607546690+607081931+604046888+598398143+596392389+601002872+605406721
3561+606855665+608007100+609151168+609168802+608845665+608063059+605498223
3547+603671672+605635260+608965969+610887549+611836779+612225554+611854962
3534+611450903+611110641+610014617+608219063+606453174+605733776+606450430
3520+607582703+608375145+609195175+610147344+610768538+611271857+611862486
3507+611036813+607995344+605438266+604949485+604511961+604153125+605617978
3493+607698227+608200527+607618834+607559034+607278650+605017357+602878642
3480+603774107+605166268+604265082+602631371+601874746+601973106+602413765
3466+601969305+599799435+597268731+596027204+595594422+594830195+593115680
3453+590771467+588910901+588024410+587726039+587188588+586246804+585862692
3439+586341793+586689109+586166823+585341072+585693874+587008562+586899465
3426+585301101+584160050+583395079+582401920+581775083+581154124+579600668
3412+578128173+577782934+578107638+578963485+579966597+580385037+580214613
3399+579608544+579024852+579172901+579342542+578408204+577681910+578297696
3385+578945146+578661470+577799471+577442946+578052541+578590110+578529527
3372+577886506+576773826+576461858+577077605+576247112+573506247+571800745
3358+572512109+573665190+573643833+572806600+571701602+570315906+569067130
3345+568953683+569222742+568007118+566049878+564963886+564255226+563195371
3331+562367660+562592516+563577524+563610362+561317641+557442975+553649466
3318+550784221+548563291+546775809+546347024+546586888+544680513+540987244
3304+538686843+538334433+538824037+539886400+540581932+540088997+539002064
3291+537607473+536065812+535151420+534247177+532236799+530586943+530852005
3277+531853471+532015078+531985492+532517222+531637746+528743110+526487578
3264+525869048+526069451+526438868+525717551+523092602+519731679+517450792
3250+516397638+515082205+512915431+510841570+509002519+507171148+506146405
3237+506281914+507313554+508514051+508837972+508401114+507442832+505659779
3223+503470865+501565077+500022554+498496294+497465673+497141792+496034755
3210+494678450+494766072+494443876+492326870+490398080+489540900+488765348
3196+487900723+487255233+486472627+485365317+484168542+483404432+483792267
3183+484562568+484028722+482504461+481115081+479304127+476808887+475032652
3169+474764730+475295754+475516926+475136733+474881194+474924691+475033161
3156+475472175+475951864+475715409+474228689+471995336+471044265+471730392
3142+472117052+471488294+470072973+468025916+466100849+464831774+464033493
3129+463355987+462864345+462576084+462019353+461213862+460169094+458214518
3115+455712303+454093836+453643497+453271376+452277160+450741652+448684876
3102+446417078+444619996+443403353+442498797+441976002+441912597+441667442
3088+440949613+440727853+441109849+441048560+440729734+441048756+441717837
3075+441864005+441179759+439915935+438658694+437799987+437374454+437038346
3061+435732200+433275011+431301821+430695048+430366072+429425503+428289977
3047+427646290+427834231+428446765+428672836+428826606+429507913+429825642
3034+429082459+428000620+427045512+426186765+425702099+425913514+426670961
3020+427386753+428014688+428916815+429875802+430898703+432660870+435314426
3007+438465619+442202778+446887951+452705945+459942867+468779680+478990316
2993+489941158+501070183+512615611+524324214+534102537+540129203+543102173
2980+544753440+545632251+545998298+546701942+548059423+550117727+553195170
2966+557348691+562680687+569289674+576257614+582444203+588503434+595382733
2953+601846845+606655536+610601758+614047285+615977408+615754394+612908586
2939+607546965+600923322+594090342+587951365+582515915+576986730+572003774
2926+568064292+563851755+558934633+554387947+549758263+543747389+537370273
2912+531976401+526926121+521716624+517020126+513268351+510041252+507284399
2899+506207027+507444400+509889754+512472499+515645755+520526590+526966993
2885+533941400+541376686+549619541+558121736+565766516+571687220+575353372
2872+577008440+577555139+577087950+575024435+571277597+566118691+559439951
2858+551020951+541148068+529908300+516974042+502926164+488927152+475169611
2845+461683363+449088229+437660206+427302697+418021932+409820028+402514647
2831+395998573+390293320+385347709+381206336+377850468+374972292+372263678
2818+369763108+367864414+366883638+366538282+366270517+366114630+366389136
2804+366969615+367351493+367112922+366261151+365045997+363681854+362133336
2791+360196042+357543779+353932333+350005627+346612100+343814571+341478078
2777+339371966+337030614+334485489+332136652+329963334+327992163+326613383
2764+325783067+324916542+323760659+322591413+321495036+320500427+319887364
2750+319518065+318930238+318173065+317500144+316686795+315680411+314896277
2737+314355808+313711199+312856763+311934063+310952759+309803185+308571730
2723+307428544+306565369+306069965+305572073+304689011+303747971+303240910
2710+302956901+302525235+301903571+300978520+299955520+299295766+298696046
2696+297767252+296833090+295954456+294740282+293302507+292186105+291363058
2683+290353264+289125022+287851049+286539632+285297636+284248420+283287865
2669+282208907+280899194+279407537+278138070+277410737+276844895+276115015
2656+275437724+274866964+274210815+273492358+272812599+272080270+271381759
2642+271014262+270803769+270395596+269979017+269802361+269698966+269471955
2629+269117939+268757045+268646106+268902801+269305469+269684193+270012208
2615+270255012+270528185+270932655+271417145+271963179+272421805+272622894
2602+272806956+273192302+273618031+273994188+274330923+274522352+274567359
2588+274649554+274769662+274728163+274540163+274372305+274251315+273999008
2575+273525530+273046409+272611725+272093299+271593350+271160646+270622881
2561+269996063+269507909+269097659+268580546+268103717+267788986+267542009
2548+267275341+266938802+266693020+266724154+266868402+266953967+266931709
2534+266709028+266449256+266464539+266719021+266971719+267181781+267428210
2521+267704087+268021111+268378164+268677201+268950375+269272336+269587165
2507+269908343+270264652+270612751+270939807+271242292+271536470+271786347
2494+271937217+272116851+272435089+272717198+272839579+273056676+273504917
2480+273814123+273696758+273390707+273205116+273122921+273004635+272825765
2467+272608022+272366492+272240565+272288549+272250538+272029620+271830981
2453+271646194+271439364+271344923+271231790+270966826+270721828+270553285
2440+270396889+270216217+270009896+269839334+269606700+269230406+268923414
2426+268827817+268845510+268897472+268964658+269070052+269177699+269080182
2413+268869100+268955488+269299375+269522585+269558088+269595571+269779809
2399+270102378+270444834+270693790+270772811+270692654+270518820+270193331
2386+269483084+267968012+265235024+261295190+256561170+251512536+246380904
2372+241096011+235704607+230384230+225419242+221505682+219133980+218347670
2359+219317297+222554291+228229389+235790545+243382815+247402218+245760219
2345+240748793+237213096+236423162+236995490+238307240+239830424+241117936
2332+242463014+244637077+247588964+250480602+252996023+255664059+258934832
2318+262440453+265417812+267638115+269589164+271686635+273961643+276313576
2305+278510877+280378868+281971374+283391672+284707203+286025007+287337188
2291+288528320+289682988+290795315+291625827+292178757+292677707+293173307
2278+293541783+293825988+294133156+294355092+294461544+294638788+295002170
2264+295490461+295984317+296335668+296500372+296578707+296563718+296511814
2251+296584722+296716410+296797626+296881721+297000733+297144001+297373108
2237+297648378+297723872+297537831+297398619+297471350+297564400+297556053
2224+297465257+297392917+297510988+297765959+297962914+298060862+298206873
2210+298536378+298894490+299117170+299348668+299710150+300121850+300560295
2197+301083110+301593953+302004282+302471862+303092234+303735353+304292555
2183+304820092+305411563+305973153+306441244+307010574+307761183+308530838
2170+309252587+309965988+310655368+311416264+312366670+313336531+314192339
2156+315033373+315866648+316680016+317606497+318743708+319963760+320999671
2143+321875092+322925189+324231668+325566832+326829579+328048141+329209099
2129+330351482+331504054+332675239+333973078+335383540+336801134+338237577
2116+339689107+341159761+342696680+344300099+345963279+347717373+349608074
2102+351638358+353814850+356112705+358512759+361080966+363751999+366481657
2089+369475514+372871509+376507369+380175871+383932506+387891972+392116109
2075+396762291+401898077+407258170+412400971+417392744+422815615+428774252
2062+434902804+441223413+447800932+454295101+460771596+467647133+474737063
2048+481540340+488046813+494706704+501817756+509131601+516190926+523024377
2035+529829730+536410580+542811875+549273009+555562973+561552764+567453757
2021+573023815+577896812+582653933+587962612+593267726+597897958+602078323
2008+606092260+609853910+613355633+616720788+620029160+623167500+625563479
1994+626879069+628194072+630479073+632859573+634704542+636254785+637416526
1981+638395420+639284968+639444029+639049297+639051922+639182415+638632385
1967+638197055+638858299+639680288+639652151+639012461+638145485+637362644
1954+637061922+637155618+637069994+636564363+635646522+634363379+633980325
1940+635331379+637112238+638637479+640369628+642669090+645473124+648331629
1927+650875343+653201138+656244881+660267987+664945127+671250962+678724730
1913+685379801+691142659+697566291+705627004+714132961+721469652+727972598
1900+734576726+741023713+747212457+753423616+758865375+763999672+770654037
1886+777808430+783551538+788083450+792026380+795366612+797691584+798784435
1873+798296555+795149045+790953280+790388280+792721090+793578504+791931312
1859+788934046+785336120+781407846+777091854+772177162+766522147+760176498
1846+752944828+746531463+743499320+741152874+737118481+732697938+728331161
1832+722297206+715007304+710129682+707527893+705326125+704115086+702739853
1819+700064313+697277795+694840278+691564783+688055576+686424843+686126081
1805+685206280+682713823+679641944+678520957+679196857+678472914+675181744
1792+673675313+677045797+680537840+681298541+680829157+680328503+680244720
1778+680692316+679900501+676451720+673214237+675237547+680542229+684809080
1765+686192464+685126574+684831495+686353523+688641189+691139211+690927130
1751+687405619+685775513+688802091+692966898+695458494+696105003+697167366
1738+698939094+697476631+695798952+701832436+710447412+717073719+721495045
1724+724007959+724735193+722264524+717538400+718554836+727835208+737046142
1711+742269550+743687105+743588040+745378891+746912283+745235937+746687428
1697+754929420+767127745+779372153+786531719+789580947+790132232+787779750
1684+790279967+803369485+816096522+823111017+826783556+832032984+837088280
1670+840793893+850031081+862064349+869064659+874374827+883547436+892149244
1657+894398585+889669718+890011352+903505516+912715587+918628218+930716192
1643+943690813+950863389+951248128+945887800+944834136+957167343+969754403
1630+974379738+974886192+975905841+977442917+980848591+984155123+983197076
1616+983838647+991820751+998324951+998786967+997850317+999841806+1003476490
1603+1007883161+1013362696+1017761529+1020240898+1022451444+1024684169
1591+1025594878+1024761681+1023576506+1022814316+1021785890+1019251502
1580+1013591470+1005904603+1003775018+1008295644+1009114185+1006612557
1568+1009162698+1015278554+1019643843+1019402450+1012638126+1013276406
1557+1030499460+1043861563+1048160626+1046657173+1043510447+1038800155
1545+1030092462+1019225560+1012008546+1017860045+1030488958+1038044392
1533+1043287002+1050614524+1055008732+1053777238+1050746506+1046644946
1522+1042145403+1042718240+1046677864+1051526800+1055078015+1053175402
1510+1046444857+1039375422+1044098959+1060098199+1068990306+1069463059
1499+1066341962+1064183613+1065074807+1065764422+1063386939+1060569855
1487+1062755086+1068369425+1072315020+1073741823+1073548709+1070084410
1476+1063112159+1056611956+1056685941+1061695074+1062747562+1056648243
1464+1049994427+1046689385+1039906015+1027002401+1020257435+1024684639
1452+1027934114+1024653760+1018129418+1013860921+1011426852+1007483687
1441+1000528051+988459671+972115036+962251010+959183442+953708687+947499880
1427+944697844+943114135+943072205+944614689+946920380+955071616+967935180
1414+978857259+985186371+986818985+985889309+985569464+988754202+993543025
1400+996052882+998785243+1003947441+1009147886+1014538074+1020124669+1023897370
1387+1026096395+1027899708+1027912796+1026985551+1028188282+1030289966
1375+1032331144+1037445377+1043771903+1047212219+1049630770+1050800349
1364+1047782078+1044692957+1044360651+1043310749+1042343376+1043918698
1352+1045445664+1043171557+1038883466+1036215059+1033912188+1029094602
1341+1022210992+1016746661+1014221129+1012578483+1011110925+1010201549
1329+1009694703+1011011312+1015348151+1019748551+1021259998+1021626085
1317+1022639150+1024012972+1026015513+1029150404+1033012922+1035828987
1306+1036889155+1038091103+1039634292+1038868027+1035967161+1034970397
1294+1037674936+1042151516+1045879387+1047945254+1050385984+1055485013
1283+1062213990+1067406754+1069403182+1069287971+1067674402+1063996377
1271+1059429040+1055424743+1051717641+1047549385+1041985284+1035799989
1260+1031445045+1028083417+1023675179+1020096925+1018526461+1016710452
1248+1014539172+1013071300+1011045169+1008291098+1005980782+1004694269
1236+1004415492+1004194555+1003834739+1003938271+1004259449+1004348796
1225+1004226845+1004372229+1005022030+1005671674+1005744954+1004952747
1213+1003872202+1003654321+1003882861+1003536995+1003371704+1003909665
1202+1004329751+1004132483+1003073098+1001452946+1000378591+999833028+998925925
1188+997717315+996363636+994787843+993635898+993077168+991943642+989508083
1175+986739278+984799986+983913808+983922429+984213668+983430161+980371292
1161+976176389+973590666+973091579+972749083+970710804+967477632+965212773
1148+963500609+960346986+955763347+950941763+947017173+944732720+943901248
1134+942628528+939518873+936332647+933610553+929819825+926788074+925957307
1121+924570945+921313163+917216541+912841534+908010389+902537045+898105373
1107+895206075+892369397+889944733+887862722+885673650+884530092+884743897
1094+885537436+885725926+884889673+885050418+887235884+889685942+891563867
1080+892648096+892119462+891098794+892542448+897530106+902176445+903055256
1067+902860496+904105941+905986296+908213221+911020900+913228625+913774580
1053+913640795+913919258+914487942+914825970+914573370+914248744+915093932
1040+916927340+917468515+916382953+915440111+913791352+910417497+908264008
1026+909741284+912020172+910911803+907322733+905641527+906612584+906494709
1013+903305348+898622330+895247848+895463064+897289419+896933443+895076914
999+893176495+891147700+890915007+893291079+896150563+899256064+904127337
986+909807667+914261440+918052795+922063597+925679001+929506564+933250501
972+934428153+933378486+932025825+930904447+930546198+930313035+928977381
959+927121478+925779476+925534087+926665419+928030698+928323818+928655498
945+929738395+930060669+929335473+928050997+926357878+925153109+924200862
932+922100981+918639112+915238375+913204485+911963194+910557944+908825481
918+906983530+906073761+906622224+907285349+906187012+903174384+900674873
905+900593207+901274593+900642348+899706246+899646681+900027658+900736005
891+901856522+903415072+904964139+905269720+905017198+906424016+909325979
878+911050996+910211843+908833632+909124244+910492345+912233272+915393635
864+919584149+922602890+924131031+925739662+929035299+935712080+945777292
851+956926734+967454590+976061101+982585757+989626742+997403113+1004414160
837+1012395558+1021312588+1027291837+1029439683+1030702841+1032652244
826+1033714215+1032155351+1030479788+1031903926+1033936954+1033610996
814+1032932196+1034488474+1037873144+1040876994+1040841960+1036325488
802+1029632014+1024014148+1020801979+1019431762+1016554722+1011181933
791+1005531541+1000873368+997722802+993243635+986420138+981689704+978489683
777+972242002+963384772+955892115+951605279+948080554+942581504+936935893
764+933140229+929053952+924480815+921674155+920160200+919028632+918165418
750+917989390+918705417+918677045+916881256+913587892+910509665+909907751
737+911150218+911732617+909327860+904020748+899757894+898757917+897590533
723+892423789+885488217+883284882+887158999+891912005+894722427+895834009
710+896069367+897443973+901076384+905918032+909862686+912749366+915719280
696+917975753+917846357+916001741+914307211+912421605+911473982+913591968
683+916732815+918758633+920209575+921299918+921061112+918179839+911047940
669+902903523+906583978+918570613+924299379+923485227+921540527+922408522
656+923000482+920184182+915786368+912369408+914364032+921620704+926080982
642+927992765+931604485+931318890+925073481+916898420+913093742+920858357
629+932420518+934446336+928227417+921995411+925121054+935917890+935840143
615+923873493+919686271+927733503+935892497+935813026+931605034+929979003
602+934649560+940088027
##END=
