##TITLE=Sample description
##JCAMP-DX=4.24
##DATA TYPE=INFRARED SPECTRUM
##DATE=13/9/2023
##SAMPLING PROCEDURE=Instrument type and / or accessory
##ORIGIN=Default
##XUNITS=1/CM
##YUNITS=ABSORBANCE
##RESOLUTION=4
##FIRSTX=4397.6552
##LASTX=599.8556
##DELTAX=-1.9287962
##MAXY=1.6770685
##MINY=0.28011042
##XFACTOR=1
##YFACTOR=1.5618917e-009
##NPOINTS=1970
##FIRSTY=0.31401968
##XYDATA=(X++(Y..Y))
4398+201050863+199427249+199390518+199553069+199980844+201006633+200972078
4384+200001947+199413492+198820743+198301093+198638310+199376570+199903947
4371+200235669+200182052+199965808+200365667+200928211+200573554+199676446
4357+199150175+199140749+199604358+200376257+200754956+200237043+199479416
4344+199652022+200406348+200481813+199923067+199018040+198142760+198123870
4330+198462613+198539185+198947364+199657613+199308699+197861030+197649938
4317+198692042+198189127+196150560+195072965+195819372+197129640+197746030
4303+197908313+197976222+197664630+197440754+197913980+198522795+198562483
4290+198046955+197306062+197329341+198795423+200127499+199845350+198815019
4276+197973550+197263149+196694423+196766415+197317167+197202624+196575511
4263+196481862+196815072+197255154+197798292+198101507+197811725+197155609
4249+197075832+197896254+198463224+198435461+198484461+198050408+196819422
4236+195801226+195590421+196086620+197173698+198582232+199335260+198699064
4222+197418124+196730639+196936694+197745648+198801338+199029202+198288099
4209+197697049+196960888+196041436+195765049+195739347+196000908+197035456
4195+197956759+198038292+197947352+198132781+197946665+197151373+196532388
4182+196234649+195583876+194936346+195207123+196026458+196197709+195482881
4168+195027820+195549168+196319159+196396894+195770506+195208592+194994409
4155+195079395+195846067+196647560+196195648+194950103+194401699+194842678
4141+195372898+195561246+195261924+194316789+193691736+194027675+194579170
4128+194708672+194564936+194543851+194581059+194806863+195429492+195755928
4114+195371715+194767365+194300665+193897428+193550747+193392337+193453492
4101+193670785+193993615+194450718+194754715+194689744+194680509+194981549
4087+195348131+195398600+194997596+194524732+194271834+193980258+193827630
4074+194618153+195761996+195744556+194851856+194334591+194359282+194495462
4060+194513112+194456537+194631814+195190694+195862762+196073320+195280451
4047+194054502+193665519+194183489+194701441+194514429+193751020+193562157
4033+194205509+194494718+194432190+194626491+194584360+194295437+194201082
4020+194432190+194991432+195436342+195572408+195384175+195013185+195280069
4006+196150579+196371498+195819620+195595801+195585498+195130838+194722182
3993+195111967+196305821+197258398+197277192+197020115+196929157+196555896
3979+195712786+194991871+194831897+195307412+196105281+196350738+196203319
3966+196437651+196843254+197429363+197801670+196931961+195729082+195312946
3952+195117080+195051194+195453210+195166595+193764625+193875790+196249914
3939+197820712+196973386+194423451+192373397+193359366+195996501+196574385
3925+195332866+195028220+194768090+193493161+193814789+196965906+200019120
3912+200610800+198998863+195208363+189594701+185769035+186020025+189241189
3898+194375501+197622194+195727231+192498759+193733848+195422470+194298471
3885+193778134+193184947+192835442+195841239+197216515+194665931+191239152
3871+188418153+189642651+192553044+191990768+192213423+196021592+198391842
3858+195553613+186472148+179340484+186792077+197247121+201766436+200232368
3844+195484483+190039382+185334544+184815657+189199001+193355912+195875947
3831+198273025+199738172+199637769+197036239+190724444+188431510+192943783
3817+195387018+198315938+203780407+205790887+202375536+198182238+197061464
3804+194808656+193230188+196566238+199335393+201781738+205941015+208786437
3790+209426488+208925404+208366009+208671628+207976472+206223432+207710083
3777+211615374+213134196+211036440+208301134+208784625+211245567+214010315
3763+215925543+214987410+214832779+218793118+222028134+221443419+225761105
3750+246549265+272003186+296891739+325873931+345251172+349247860+342797099
3736+333166160+331244941+338915202+347666129+351644690+352259554+353549500
3723+357281040+363610866+370683360+376045516+380087884+386571579+401913932
3709+426672372+455880367+486125258+515246702+539733201+553207914+553156777
3696+544863945+532006156+513651118+495931092+488585704+486699822+481673986
3682+472496066+461062706+447565058+433070890+425781370+422110736+415007637
3669+412643435+415156392+414722301+411026824+405535871+397572528+388450591
3655+382415222+375727170+362768863+351999328+354024309+360467095+363620750
3642+363530001+362642395+361663010+359428826+355193130+348835789+341409650
3628+339472403+341843740+339964690+331411823+319836005+312834759+309779886
3615+305227866+301230110+300338592+301700969+305051330+308065466+307883357
3601+305268566+302291485+299237852+296856745+295546668+291976648+283992030
3588+277325845+277352883+278892770+277624900+274726147+272331072+270358774
3574+268082268+265164224+260030866+253014070+250053933+252516459+254671724
3561+254328306+252900710+251270189+249209965+247135622+245532920+243276431
3547+240543891+239653442+240640822+241037705+239921662+238590711+237853921
3534+237153613+235941307+234298841+232528361+230702451+229310842+229134897
3520+229761820+230022846+229555116+228422339+226956410+226315501+226634133
3507+226183900+224709327+224174852+224697936+224647085+224201488+224185041
3493+224018254+222976093+221630240+220952161+220893125+220857215+220816534
3480+220871640+220618970+219952627+219280750+218964636+218925100+218617268
3466+217819209+216983713+216690897+216873559+217104781+217342491+217502561
3453+217379317+216654319+215310870+214465719+214666584+215083864+215472485
3439+215998661+216300311+216096374+215552873+215160970+215135020+215130326
3426+214997752+214866113+214853825+215073751+215340922+215499408+215718572
3412+215909648+215755627+215346685+215100751+215246128+215598095+215703078
3399+215659478+216047832+216623122+217039410+217471173+217713119+217715237
3385+217721457+217982045+218636425+219193817+219363885+219567917+220152938
3372+220796671+220891961+220517651+220307875+220691440+221453627+222081561
3358+222225755+221900616+222004073+222952814+223551841+223129694+222339878
3345+221700667+221513655+221894014+222201675+221988274+221535560+220975116
3331+220557415+220571173+220587678+220282326+219806543+219206048+218431878
3318+217320090+215877077+214649602+214083051+213801322+213096778+211827573
3304+210157382+208393829+207375175+207447606+207682645+207231572+206466084
3291+205943629+205349946+204668585+204773053+205942866+207166029+207469721
3277+207191693+207032100+207114549+207312857+207326461+207346916+207987081
3264+208878617+209033325+208443515+208158466+208910349+210138912+210722063
3250+210489772+209967050+209613614+210041466+211041229+211593412+211559066
3237+211454064+211583318+211953411+212458712+213143202+214014894+214973233
3223+215847082+216415350+216559162+216576431+217145614+218268240+219381096
3210+220283757+220901406+221495948+222490827+223576379+224314829+225130920
3196+226440176+227604016+228328461+229349405+230751718+231729176+231999591
3183+232198777+232834877+233688977+234505697+235385118+236282245+237140085
3169+238300700+239676053+240638093+241104660+241399021+241637266+242205915
3156+243633759+245310017+246163335+246217582+246125116+246482826+247400198
3142+248238575+248490958+248198868+247499590+246860723+246823439+247088893
3129+247220246+247342020+247520083+247539164+247244955+246754080+246096761
3115+245146914+244289627+244106336+244266844+243947754+242889069+241231911
3102+239522871+238552034+238384466+238569627+238858989+239038731+238922929
3088+238902703+239378314+239850662+240002813+240385596+241230995+241876941
3075+241783712+241474429+241490514+241690692+242109022+242690608+243024105
3061+242970583+242767867+242749530+242841080+242799484+242588640+242063094
3047+241401063+240997311+240581022+239787848+238766542+237704918+236613032
3034+235319193+233841434+232651662+231796971+231008414+230462490+230148246
3020+229855373+229684771+229474461+228678367+227165785+225466133+224258502
3007+223756999+223548520+223392229+223510320+223791306+224104653+224945968
2993+226881498+229864189+233087642+235671961+237439312+238505210+238995856
2980+239505202+240358024+240885268+240480676+239249423+237733272+236499806
2966+235505595+234536322+233862499+233621202+233478896+233121224+232592206
2953+232151704+232001843+232276989+232866933+233315602+233298410+232898474
2939+232275692+231350706+230171029+229149990+228456055+228038908+228083004
2926+228390436+228228783+227517961+226824065+226313688+225981986+225891256
2912+225884406+225965290+226241868+226637587+227191964+227835697+228204264
2899+228361032+228704069+229164415+229663591+230288663+230685164+230836209
2885+231246963+231852496+232369513+232733157+232746342+232418284+232103868
2872+232068492+232282084+232461044+232360907+232072366+231790159+231589428
2858+231494996+231296936+230821574+230255538+229663915+229045789+228702543
2845+228832407+229224367+229634073+230054673+230564592+231171231+231744746
2831+232271532+232914693+233539478+233862308+233918082+233952694+234156879
2818+234515982+234868655+235095126+235233577+235435797+235818770+236468265
2804+237320170+238081804+238705826+239425005+240157140+240598291+240723862
2791+240742256+240793050+240821480+240722431+240576920+240504870+240439175
2777+240265367+239958431+239646172+239443533+239215630+238955825+238884424
2764+238957237+239063708+239290389+239478184+239310959+238992231+239025222
2750+239384744+239626442+239532679+239206071+238894250+238701381+238419784
2737+237977298+237714077+237841671+238118440+238297571+238375383+238370689
2723+238252273+238053107+237828066+237597626+237471024+237504855+237598294
2710+237703220+237767465+237728597+237634185+237540937+237432901+237207402
2696+236881977+236668424+236583743+236447009+236258127+236104964+235899787
2683+235540627+235055915+234456717+233870551+233549038+233337163+232921524
2669+232498328+232269491+231985948+231547850+231245914+231147037+230939742
2656+230607810+230433468+230403873+230377904+230366246+230341288+230241418
2642+230106993+229968752+229859953+229901053+230033818+230082322+230080681
2629+230167079+230397519+230629352+230713805+230831820+231192049+231647167
2615+231959349+232217972+232650861+233194629+233706741+234173117+234536036
2602+234920364+235495386+236070638+236595477+237253521+237969399+238597905
2588+239095478+239383390+239466850+239559869+239845091+240236803+240574668
2575+240874201+241153335+241312547+241449204+241709410+241910313+241811818
2561+241464698+241229754+241308234+241446819+241525051+241699431+241916934
2548+242034187+242032508+241910237+241763562+241766520+241940576+242124172
2534+242282945+242592227+242923624+242974952+242880425+242874567+242951807
2521+243091231+243243192+243407574+243648547+243810353+243848171+243995132
2507+244214715+244369710+244572731+244885352+245195265+245390214+245583389
2494+245975941+246461684+246886005+247317577+247796947+248350580+248932815
2480+249279954+249230077+248875210+248493210+248364509+248396317+248310987
2467+248090488+247960929+248109531+248352698+248340982+248102643+247896053
2453+247817784+247916794+248251836+248649654+248895664+249106604+249442447
2440+249772757+249942634+250000602+250056127+250165976+250304408+250324443
2426+250154928+250025941+250202096+250587874+250905400+251034559+250971134
2413+250836461+250865807+251106665+251403068+251675658+251981220+252346429
2399+252720892+253182860+254117519+256568882+262634095+275017284+295983621
2386+326278866+364453479+407656715+453656143+501957341+553145901+607494871
2372+663822646+719406113+769799800+810052821+837057352+852375892+860407202
2359+856963478+831150435+787724946+737501460+690231929+665016043+674181064
2345+710709567+740285900+741064935+729254918+718002674+710538296+708853910
2332+711320690+711386557+705433770+695519861+683851958+669452585+651324266
2318+629720511+607430378+592584472+588214714+583263445+565550060+536323633
2305+506409033+484465943+469395303+455763325+441618872+426275298+408876367
2291+390983048+374890014+360798072+348535150+339131503+332996378+329180157
2278+326419645+323937142+321689143+319912996+318524516+317217397+315957637
2264+314777654+313578228+312500099+311644225+310691744+309469229+308217292
2251+307110790+306161476+305274252+304411623+303723718+303188403+302737158
2237+302385726+301997506+301577020+301374781+301404738+301391954+301246004
2224+301097421+301112667+301369553+301685914+301910001+302040762+302129737
2210+302386642+302845977+303300389+303747760+304258174+304721516+305135591
2197+305728531+306586389+307493191+308265567+308978926+309780038+310633032
2183+311430728+312243442+313158143+314123580+315072683+315996982+316933034
2170+317867427+318780754+319675725+320576802+321583168+322638304+323618300
2156+324621040+325785319+327079883+328320028+329424164+330491207+331574583
2143+332685054+333874482+335180876+336591795+338101172+339667639+341151485
2129+342492988+343848496+345418893+347206126+349043924+350772273+352438952
2116+354279536+356304860+358324079+360359364+362603890+365128600+367867131
2102+370816048+373981229+377294515+380894740+385029231+389533433+394216004
2089+399338504+404870863+410493474+416460839+423059172+430022828+437153786
2075+444488069+451981144+459466244+466685508+473596806+480499594+487481224
2062+494377639+501425785+508832882+516233987+523431308+530585696+537852510
2048+545264606+552477726+559039690+565132799+571466136+578139037+584734393
2035+591265294+597728458+603716010+609146248+614661548+620487638+625973248
2021+630872617+635365714+639775580+644641137+649632247+653926063+657680576
2008+661383724+664769365+667588913+670186284+672721603+675066037+677165014
1994+678668590+679691022+681323508+683727093+686096942+688016559+689363748
1981+690326113+691079961+691533553+691789466+692046066+692095753+691578126
1967+691096218+691563090+692468365+693154591+693849289+694663662+695564740
1954+696201203+696173726+696083740+696637163+697348194+697566175+698592423
1940+701422809+704407675+706915365+709836958+713338764+717065572+720610500
1927+723662684+726229677+729238203+733338921+738159141+744387839+751892133
1913+758435437+763358084+768636628+775673364+783237725+790167990+796771665
1900+803175220+808982763+814288479+819500316+824059815+828328750+834030814
1886+840112130+844726964+848223427+851333845+854544705+857328153+858694728
1873+858273421+855553856+852580745+853480219+856890971+858328450+856400591
1859+852931681+849946968+847866538+845846327+842559525+837450953+830940393
1846+823451821+817322344+815045304+813787109+810804456+806426150+801315747
1832+794708331+787123057+782108517+779683867+777815387+776633744+774991259
1819+772114544+769396124+767027343+763249704+758648838+755923930+754870817
1805+753298778+749873983+745848444+744284191+744561933+743032178+739163331
1792+737687461+741186366+744690767+745278230+744179475+742535692+741535929
1778+742148044+741787263+737856976+733391584+734261292+739027399+743378382
1765+744815098+743387999+742964555+744484693+745986132+747580610+746795316
1751+742413040+740729417+745038956+749891156+751686823+751065701+751198962
1738+752821450+751345198+748969166+753848766+761432972+767762340+772536767
1724+774983627+775172528+771908623+765690916+765148331+774571326+785454011
1711+792094017+793593548+792178355+792042499+792486626+790386809+790925044
1697+797221898+807010331+818124429+825232757+828238001+828036583+823084322
1684+822396112+834494557+846903257+853015866+855026536+858266705+861924211
1670+864609048+872802469+883675155+888568647+890087869+895308484+901467345
1657+901963830+894684232+890798137+900198311+905539746+905991201+913457792
1643+925068452+931898961+932322786+926957844+922069695+927609724+935806045
1630+938375405+937693224+938120637+940377146+945431069+949424094+947016846
1616+943976264+948888684+955142644+957730321+959493550+962009026+962644573
1603+961470486+962331798+966361840+969865020+970356773+970500032+972700825
1589+976276054+979764656+981801887+982437739+982709452+982501164+980850589
1576+980868601+985585785+988590113+987982272+989916313+994230050+995995034
1562+991839135+978903267+972313635+987335047+1003096874+1013258072+1019977912
1549+1025030767+1027604172+1025467796+1018870685+1012480487+1020545913
1537+1037811545+1046939397+1049257346+1052860434+1055545423+1052698551
1526+1046230808+1039139501+1034683573+1037423058+1043250216+1049864348
1514+1056994504+1059440525+1054431327+1044660449+1045525119+1062056213
1503+1072727558+1073572156+1070200024+1068557691+1071029128+1072833495
1491+1069855422+1065363317+1065792867+1069958765+1073421951+1073741823
1479+1070468454+1064440869+1056859488+1049732385+1048820012+1054475518
1468+1057012898+1052155661+1047956410+1047822767+1041295262+1025520002
1456+1018629273+1024876212+1026191192+1019238870+1011146883+1005374296
1445+999223525+992253801+985003741+975654169+965333837+959564379+955540596
1431+948590105+942374307+939906152+938458674+936958151+935424122+935557688
1418+943016341+954327431+962187699+966847869+970357155+971027963+969154675
1404+971624814+979302364+985268966+988984478+993399496+998925481+1004760425
1391+1007215452+1006024574+1005761944+1007881605+1010611396+1012894771
1379+1014328511+1015008784+1017028613+1023597485+1030545151+1032527887
1368+1032105207+1030787250+1028665300+1029737952+1032976594+1032772734
1356+1029813666+1028678885+1029873122+1030178569+1028338177+1025229896
1344+1020794881+1014288289+1007222473+1003297148+1002389965+1001010567
1333+998382667+996295979+996488849+998332828+1000051179+1001488888+1003147935
1319+1005457870+1008794970+1013184343+1017485105+1019086833+1018473496
1308+1020245121+1025346060+1029191857+1030303053+1031356014+1032568568
1296+1032449198+1030774809+1028591113+1028177744+1031625437+1037272777
1285+1041522783+1045076565+1049106454+1051316788+1051650704+1051922187
1273+1051023628+1047776286+1043485141+1039003339+1034134042+1029262532
1261+1025071066+1021445387+1017687210+1014441394+1012160156+1009729782
1250+1007640040+1006542277+1005040609+1003013224+1001092921+998990051+997331080
1236+996661340+996392604+996136539+995843303+995971069+996760103+996979075
1223+995909628+994719971+994851324+996555326+998528980+999676277+999895021
1209+999351367+999365335+1000746411+1002097340+1002371113+1001794640+1000309611
1196+997891754+995870245+995058925+994203795+992639999+991155275+990450350
1182+990358685+989877464+988174531+985272858+982877898+982236474+981346159
1169+979109036+977500515+976719571+974970004+972671135+970506825+967158201
1155+963720355+962381561+962114658+961571309+959924703+956674536+953713789
1142+952303099+950669162+947827785+945345281+943329650+939894398+935628364
1128+933132580+932232266+930271741+926689490+923158299+920569477+918308084
1115+914774375+909460722+904706521+902411011+901070157+899172064+897157195
1101+895365955+893537241+891087785+889212818+889877063+891335532+891323702
1088+890885528+891019781+892346973+895493263+897618877+896730622+896443187
1074+898564833+901261271+904264836+906562025+906493334+906572482+909257624
1061+912408112+914571277+916446855+916871214+915622407+915488611+917985616
1047+920795166+920514295+917825184+916597823+918375019+920532155+920550702
1034+919869742+918931266+916324126+913405586+911424682+910616033+910815161
1020+909572765+905947696+903205464+903221797+902738439+898972782+893501750
1007+889656641+889712586+892103272+893451682+892657916+890926895+890748069
993+893814830+899232359+905025096+911293939+918785259+925479836+929131084
980+930108713+929884322+928713975+926134388+922930855+920012849+917858843
966+917380064+917935701+916991730+914263159+912323927+911892928+911177164
953+909932249+909293344+908711986+907187498+905336649+904070592+902880248
939+900957732+898784110+896742376+894376724+891120834+886948372+882937793
926+879399046+875534779+872046788+869975212+867935233+864697736+861362545
912+858404545+855262376+851727904+847907981+844787489+842848028+840707226
899+837167411+833276278+830804613+829506729+828312111+827777617+828474146
885+829713108+831288887+833146146+835140026+838501396+843163627+846164596
872+847059873+849051310+853146608+858774104+866884790+876649944+885289019
858+893441302+904196832+916415257+927371823+939651613+954984501+969346248
845+979811671+988445938+998258718+1008263681+1016582654+1024217615+1030525078
831+1034474904+1037699426+1040309542+1041633529+1041922872+1040395101
820+1037656074+1035574117+1033932472+1030727641+1025548165+1022803643
808+1025713864+1029885486+1028939149+1022317232+1016513200+1015741033
797+1015914517+1013987879+1010944473+1006948472+1001889968+995241720+988097826
783+983177163+979503095+973665785+965715837+957587596+949431955+942284092
770+937418383+933113499+928362199+925394430+925121726+924892068+923390476
756+922145332+920452320+917034394+915085394+917145598+919572996+918769689
743+916483719+914625391+912779656+910837371+909205037+907726953+905372140
729+902039238+899528495+898263354+897507903+897380518+896386403+892714395
716+888195348+887381127+893082733+901736081+908101321+912397427+916552029
702+920054980+922319502+925035403+929147264+931846145+933114339+936567298
689+940837606+942675938+942336450+941207623+940805779+941320582+941754330
675+942170828+944069837+946757422+946636754+943536105+940999565+939711527
662+940446142+940383786+936919302+933576708+932243181+933178222+936017996
648+936124315+932775233+932086946+934221032+932222879+927379837+925209421
635+920148629+911303022+909413706+914178974+919593298+923265534+917682993
621+907289390+906582480+913233171+917541718+915970366+909820206+909657026
608+919259992+928466762+937971958+949812429+950602455
##END=
