##TITLE=Sample description
##JCAMP-DX=4.24
##DATA TYPE=INFRARED SPECTRUM
##DATE=13/9/2023
##SAMPLING PROCEDURE=Instrument type and / or accessory
##ORIGIN=Default
##XUNITS=1/CM
##YUNITS=ABSORBANCE
##RESOLUTION=4
##FIRSTX=4397.6552
##LASTX=599.8556
##DELTAX=-1.9287962
##MAXY=1.7175859
##MINY=0.32993001
##XFACTOR=1
##YFACTOR=1.5996265e-009
##NPOINTS=1970
##FIRSTY=0.37207538
##XYDATA=(X++(Y..Y))
4398+232601403+231068629+228398127+226159953+225634602+226412475+227364863
4384+228655120+229375275+228940563+229892373+232497145+233146578+231417025
4371+230283154+230452601+230653684+230684369+231209776+231833777+231853582
4357+231673627+231693077+231866903+232376287+232946632+232238550+230205669
4344+228432967+227124563+226081536+225984116+226643329+227171736+227107721
4330+226426225+226066762+227156664+228432762+228121031+227303605+227876036
4317+229559832+230079240+228356226+226127796+225221501+225875573+227157036
4303+227379656+226123735+225373659+225789666+226010590+226347528+226937454
4290+226286550+224916962+224686015+225269997+225460274+225530828+225832554
4276+226060986+226298846+226658309+226623786+225965858+225523190+225294068
4263+224594780+224269318+224787832+225386347+225842279+225918014+225444195
4249+225379714+226166213+226705892+226687186+226932051+227266716+227155453
4236+226798505+226365973+226034847+226054261+226370034+226840890+226740470
4222+225545994+224747124+225389644+226305777+226697862+226379405+225545267
4209+225172614+225141016+225249000+225781133+225535952+224145014+222956126
4195+222449574+222685011+223568595+224457173+225088328+225303290+224971383
4182+224419762+224127724+224646480+225618430+225841832+225266588+224742168
4168+224629936+224362826+223418561+222752827+222985377+223242892+223330736
4155+223799170+224568585+224937270+224409217+223625270+223348882+223315198
4141+223353838+223423350+222939005+222269637+222503994+223173883+222959610
4128+221689809+220430200+220465002+221652306+222252776+221622273+221128594
4114+221369397+221552799+221627508+221838055+221954814+222181495+222180545
4101+221503203+221177369+221331688+221120247+221739200+223934187+225394321
4087+224655702+223245873+222781351+223196221+223492079+223316763+223151004
4074+223334760+223669518+223736645+223776142+223732267+222914449+222017954
4060+221816368+221570926+221353766+221672706+221747882+221572845+221655976
4047+221731747+222231630+223279930+223962879+223712909+222937440+222794802
4033+223377257+223747749+223757772+223654800+223321774+222824705+222432880
4020+222068816+221659628+221438536+221772269+222596198+223291835+223828625
4006+224449050+224678264+224441504+224384009+224333278+223647646+222574120
3993+221820821+221844333+222902973+224624403+225495095+224833366+223959879
3979+223724665+223782291+223843567+224088600+224556996+224530969+224072167
3966+224210818+225018798+225866928+226054913+225263383+224379818+224070006
3952+223731577+223482800+224542763+225862811+225437935+224819206+225523730
3939+225839392+224955565+223509796+222660251+223931710+225761105+225335130
3925+224112112+224583471+224996367+223740110+223265137+225824208+228746337
3912+229487675+228787008+225909462+219666579+214164382+213984185+218014418
3898+223632667+226952582+225176079+221966700+222881435+224027397+222350290
3885+221666800+221157211+221185697+225147183+226730838+223197581+219030393
3871+216089801+217206214+220126350+220328289+221938885+226281519+227568069
3858+222778892+212455826+206254397+215410745+226470007+230853648+228766160
3844+223253865+217852498+214219883+214243321+217821627+220841475+222901799
3831+225512868+227249836+227260139+224718842+218255166+215179686+219005297
3817+221986170+226317700+232589666+234574368+230564479+225106754+222722552
3804+219769868+218443821+223599299+228486661+231904257+235802715+237856649
3790+237740989+236703607+235997537+236966954+237149592+235548703+237117714
3777+241544131+243120223+240328360+236735820+237002352+240120906+243499769
3763+245253617+243660590+242977902+246808506+249740677+248262920+250369486
3750+265923465+284837267+305816535+336973977+362709708+373081884+371009357
3736+361794712+357441104+363470180+372201914+376260746+376618382+377319385
3723+379740048+384825362+392257039+398818807+402520486+407677268+423100179
3709+448481403+477948994+509489709+542060707+571715613+591616176+598116760
3696+593359796+581562810+563659953+543902287+532457759+527913260+521070279
3682+509925483+496814952+480919675+463409145+456097562+454846392+449474164
3669+446867193+447561339+444461137+439054628+433799438+426268570+416581449
3655+409473463+401762212+388165007+377095368+379588430+387325019+391022078
3642+389996005+387329453+384397487+381156808+377383661+371060740+361687510
3628+358326514+361644957+361418780+354476347+343686506+336550201+334080093
3615+331118131+328614263+327812542+327517878+329429547+332508175+332718703
3601+330289246+328112647+326450407+324865150+323607608+320777478+314484366
3588+309124508+309222954+310080846+308559697+305944659+303219029+301159357
3574+300557321+299742205+295356701+288254398+285288021+287506986+289466611
3561+289692323+289223404+287920739+285427062+283114421+282044566+280460408
3547+277887494+276927151+277952609+278443586+277546569+276369792+275422695
3534+274297190+272725999+270887847+269402767+268691685+268475586+268560319
3520+268886116+268841570+268262525+267525621+266306924+264902180+264488577
3507+264286060+263081858+262170719+262408429+262563717+262069777+261451421
3493+261002940+260489159+259870225+259406392+259098258+258873831+258813747
3480+258855890+258809760+258605212+258384884+258370911+258242154+257446004
3466+256223544+255307765+255204476+255698360+256012662+255893686+255861696
3453+256150660+255771412+254179317+252949535+253110523+253813314+254555193
3439+255132599+255253438+254993408+254420548+253773761+253498361+253694301
3426+253820245+253340931+252809003+253023741+253587584+253758391+253785946
3412+254025612+254025072+253574039+253231680+253646345+254550759+254904055
3399+254775521+254927175+254918959+254412667+254270365+254816546+255430990
3385+255840327+256131191+256183488+256154722+256383731+256587925+256552322
3372+256618610+256707218+256511352+256526928+257266887+257976367+257865085
3358+257596895+257781526+258060448+258394013+258757370+258538011+257804088
3345+257343274+257361588+257492040+257197935+256365604+255573459+254863719
3331+254060228+253413218+252952832+252960676+253344638+253187711+252224014
3318+250805819+249325453+248074972+246834496+245552492+244747828+244090440
3304+242668985+240777642+239342996+238796890+238963319+239238719+239237247
3291+239266777+239601237+239618023+239107409+239120376+239879563+240187083
3277+239809362+239701788+240316678+241358569+241908941+241588976+241282350
3264+241492841+241981583+242630866+243197615+243292707+243130432+243180083
3250+243392214+243631098+244000211+244516284+244804000+244506000+243972582
3237+243863368+244124777+244220986+244268625+244597161+245177026+245985901
3223+246736275+247261589+247757615+248082387+248370270+249197981+250368070
3210+251365786+252540999+254151221+255291464+255365577+255329918+256209832
3196+257673001+258846965+259717806+260775104+261973121+262926868+263461013
3183+263753163+264357397+265611585+266876933+267669041+268396853+269082951
3169+269685508+270415146+270938876+271372993+272460845+273842673+274588576
3156+274870180+275352084+276164667+276653017+276338939+276111327+276891920
3142+278085595+278463503+277847177+276848063+276086827+276039971+276281538
3129+276252343+276351757+276822986+276966164+276518764+276129082+276111140
3115+276145384+275333323+273787917+273066756+273485576+273640417+272189078
3102+269838988+268556835+268703534+268935879+268231057+267307771+267580526
3088+269320437+270673872+269965566+268778747+269024170+270087821+270407768
3075+269699854+269089061+269388123+270299057+270651925+270083629+269617729
3061+269948314+270730696+270896733+270260622+269782314+269861699+269993382
3047+269457858+268398939+267630661+267329643+266881349+265917522+264776888
3034+263468261+261849058+260483625+259566338+258801748+258371470+258828651
3020+261262188+265267735+267088412+264751886+260937639+258007741+256026318
3007+254585133+253489958+252676500+252280857+252290675+252453676+253100519
2993+255078364+258500358+262043135+264195645+265032633+265618311+266738749
2980+268269157+269125596+268892488+268250247+267582221+266712051+265442436
2966+263938707+262492473+261632121+261918588+262332900+261697869+260745351
2953+260163343+260165896+260892944+261359552+260960537+260416536+260329716
2939+260454803+259771742+258196769+257066010+256866884+257166188+257540052
2926+257445333+256771345+255972643+255685691+256074758+256322902+255782404
2912+254870240+254537251+255280192+256312338+256582969+256291584+256153865
2899+256385073+256799366+257082163+257223645+257507094+258133741+258921302
2885+259305488+259339564+259708789+260357979+260682118+260587809+260372120
2872+260206120+260010254+259707317+259539882+259586627+259434581+258960613
2858+258464438+258127779+257922598+257687291+257379343+257083858+256949754
2845+257123561+257381895+257575767+257982888+258708837+259531256+260079076
2831+260180987+260275780+260730539+261325104+261830166+262141059+262248297
2818+262287422+262233821+262158143+262343445+262768078+263213559+263698184
2804+264334817+265001538+265545576+266095632+266723900+267261436+267709115
2791+268081005+268054270+267633623+267404800+267445434+267257300+267001070
2777+267110601+267236713+267066614+266883287+266700053+266314768+265946586
2764+265859189+266090453+266551304+266817967+266683453+266615897+266845000
2750+267067284+267174356+267227360+267147117+266954996+266721962+266469403
2737+266371797+266429794+266392160+266295802+266343664+266513111+266698208
2723+266808987+266742456+266537927+266304782+266103848+266109754+266386571
2710+266694650+266818582+266616680+266065040+265502744+265325323+265458347
2696+265563332+265568735+265463415+265133985+264696534+264345623+264119351
2683+263978503+263871916+263699376+263282363+262650630+262011463+261406241
2669+260885883+260624716+260646328+260688657+260499760+260177559+259854258
2656+259477655+259105300+258915452+258954894+258986324+258874297+258810225
2642+258796923+258752880+258782074+258828335+258780081+258756252+258849946
2629+258971829+259119124+259352326+259620833+259836988+259915945+259983444
2615+260294467+260789562+261294009+261757245+262031342+262138338+262420241
2602+262944866+263504740+264056454+264638629+265252197+265849258+266343794
2588+266656438+266732377+266745903+267025011+267500972+267772348+267794743
2575+267959010+268391077+268695728+268671433+268530417+268478567+268693958
2561+269053514+269093309+268748658+268404156+268382637+268753595+269197120
2548+269376479+269466447+269620580+269643104+269586765+269696239+269899036
2534+270062390+270343455+270730584+270897833+270832699+270800021+270932821
2521+271215674+271440604+271469966+271461135+271538043+271690368+271890910
2507+272129031+272413057+272690060+272938576+273246916+273644926+274015324
2494+274346412+274784441+275246280+275572300+275893067+276341063+276775273
2480+276998078+276943900+276707419+276533091+276418698+276179925+275944022
2467+275879765+275968373+276082579+276095323+276047032+276019794+276102552
2453+276312428+276476379+276503934+276529775+276651732+276877407+277286520
2440+277787857+278125838+278310786+278473079+278512520+278365542+278287125
2426+278419757+278557756+278551086+278511440+278615623+278864847+279135981
2413+279360687+279566017+279773192+280003748+280325502+280585439+280664489
2399+280920831+281663603+283203122+286840451+294642154+308555561+329978485
2386+358740975+392549319+428474420+465070789+502829086+542528266+583977772
2372+626371524+668566709+708872135+745186322+773616550+790366683+795601192
2359+789558479+769141208+735563290+696411558+660650408+641049241+647044260
2345+673076704+690899002+686136970+674442491+664741359+658847170+659665509
2332+665083048+666681719+661458761+654830369+649994708+643583253+632122405
2318+615442771+597870871+589008796+591316630+592630772+580744247+556516159
2305+530039034+510645825+498390633+487788329+476290629+462982388+446808841
2291+429496021+413940496+400752087+389323657+379711170+372220321+366662306
2278+362282094+358441950+355065602+352156887+349620863+347483910+345732391
2264+344206901+342769721+341319984+339936498+338797150+337811544+336842966
2251+335959120+335138247+334237448+333529292+333363179+333309448+332892379
2237+332316240+331840670+331602941+331671913+331767116+331659691+331562140
2224+331719347+332046913+332298913+332445016+332565744+332709499+333101305
2210+333824478+334564344+335154754+335777880+336450974+337039670+337616666
2197+338329703+339229348+340157646+340937009+341740407+342693708+343539509
2183+344194120+344920125+345804455+346730182+347671075+348624376+349514481
2170+350344520+351248077+352289054+353363679+354328381+355167401+355941287
2156+356718378+357607738+358548183+359293080+359909126+360758802+361840320
2143+363091304+364754140+366627989+368251365+369683887+371237062+373005311
2129+374850021+376578811+378151735+379790574+381694642+383715227+385646011
2116+387556451+389476951+391396333+393531199+395880580+398313912+400907319
2102+403590862+406238597+408935890+411927251+415355058+419045670+422900047
2089+427098945+431604134+436238806+441179992+446624545+452500178+458579967
2075+464818602+471511829+478647388+485905352+493224871+500871026+509041601
2062+517484223+525846918+534067610+542410780+550914585+559223326+567314161
2048+575412038+583331208+590498626+597012774+603493833+610064693+616704374
2035+623156928+629236792+635281592+641184873+646599058+651700097+656727357
2021+661604305+666047825+670056577+674245377+678619367+682450083+685935310
2008+689569806+693113310+696417818+699492719+702233385+704830667+707154673
1994+708571359+709599258+711374177+713402251+714877662+716242777+717821551
1981+719382738+720693527+721685505+722617641+723311750+723398719+723111357
1967+722921770+723410642+724424456+725184742+725485965+725651853+726062551
1954+726673492+727397112+728211651+728810817+729094676+729143191+729962722
1940+732440842+735141190+737068137+738951115+741222284+743833427+746732678
1927+749506432+751714927+754290523+758043809+762047196+766748864+772806781
1913+778533591+783474852+788846558+794955225+801296330+807204976+812456179
1900+817821551+823550448+829253634+834836465+839080412+842116338+846879340
1886+852878606+857673131+862009859+866429905+869874516+872118708+873671921
1873+874092231+871927556+869065791+870458033+874452924+876226352+875727569
1859+874710029+873281270+871320937+869286305+867023035+863518656+858044107
1846+850836223+845530321+845154798+845057918+842251970+838711746+834905697
1832+828675185+820936099+816528052+814821843+812772754+811288699+809825212
1819+807362444+804930454+802440484+798390521+793610230+791040521+790619167
1805+789695676+786374922+781621758+779097955+778998019+777227572+772348016
1792+769377074+772359120+776275985+777346883+776837219+775935041+775374254
1778+775614368+774099311+769062139+764453103+765946920+770863365+774834334
1765+776181713+774811530+774172493+775382079+776826935+778859704+778458322
1751+773817241+771280546+774488919+778749559+781083104+781881546+783028607
1738+784279106+781751577+778458024+783116917+791287640+798105395+802479236
1724+804245511+804310644+801280829+795188781+794014593+802056839+812098319
1711+818979716+820870221+818992832+817951818+817440142+813945451+813509713
1697+820335741+831589638+843539210+850221780+852604808+852212145+846816666
1684+845076921+856436120+868536154+874429374+876410872+879724471+883032631
1670+884726394+892003212+902799686+908153433+910063090+915083569+920525998
1657+919859761+910710249+905989503+917253684+923898695+924516566+932238064
1643+943405291+948923809+948263459+943106081+941832032+952135461+961284972
1630+961994806+960211242+961041356+962848991+966478121+969692009+967060967
1616+963612108+967534264+972546397+974422518+976235817+979461330+982050787
1603+983700209+986028463+988523798+989556168+989921332+991384073+994042688
1589+996887984+999816522+1003289303+1006238857+1007301334+1005523434+1000072733
1576+996485782+999744011+1000960081+998067984+999617620+1004465652+1006555953
1562+1002733733+988963336+981555134+998216062+1015010461+1024420133+1030345995
1549+1035490182+1038284877+1036074444+1028799713+1021034991+1026919567
1537+1040767021+1045941167+1045485234+1049271534+1053993697+1054283890
1526+1051757628+1046469462+1040155185+1039819160+1043567007+1049263709
1514+1056220226+1058244574+1052496525+1041812656+1040994168+1057821059
1503+1071113837+1073741823+1070067457+1067200251+1069033671+1069960069
1491+1065169568+1061633815+1066489896+1071899088+1072324988+1071392554
1479+1071213922+1068492334+1060647575+1051071418+1050286987+1057250137
1468+1059485013+1055123692+1051469223+1048535543+1039129895+1024723294
1456+1019783151+1024200215+1025152473+1020479123+1012867323+1006231554
1445+1001572661+996751159+989923344+979297081+966460236+958428796+952200818
1431+942829525+936122586+935611506+937941921+940082302+939275737+938184121
1418+944578808+956217320+965819038+971678276+975223717+977676499+979519756
1404+982117337+986169759+990209513+993129779+995367636+1000030329+1008675170
1391+1015399025+1015806295+1014024743+1015101529+1016948959+1017154121
1379+1017491786+1019273337+1021530571+1023881852+1026660599+1030174219
1368+1033207015+1033063558+1030762505+1030144260+1031711334+1033888008
1356+1035454485+1035729103+1034175593+1030170418+1027043573+1027418947
1344+1026402152+1019287050+1009110907+1002303212+1000809916+1001359972
1333+1000655877+998936552+998646508+999923910+1002011230+1005433559+1009196459
1319+1011563987+1013149543+1014978193+1016639613+1018421463+1021272050
1308+1024605547+1027620532+1030801778+1033624568+1034969414+1035458584
1296+1035933446+1036169461+1035922268+1036151799+1038250223+1042750530
1285+1048978434+1054456933+1057315121+1058834053+1060463577+1060999548
1273+1059492391+1058193228+1058435577+1057767104+1054684974+1049839699
1261+1043846096+1039546778+1038662858+1037906597+1034763357+1030000654
1250+1025197857+1021943653+1020246685+1018225839+1015430251+1013381533
1238+1011733900+1009937667+1009088624+1008697899+1008476416+1009303028
1227+1010378993+1011008416+1011605198+1011899565+1011708264+1011365383
1215+1010499721+1008963723+1007723061+1007267203+1006766854+1006041296
1204+1006560723+1008750289+1011021980+1011777421+1011147551+1010820692
1192+1010941122+1009691890+1007048477+1005188154+1004314072+1002356496
1180+999660471+998279183+998001361+997786510+997459279+996434585+994407479
1167+992175882+990381363+988790442+986872811+985537728+984814480+982589218
1153+980049392+979056222+977288010+973377554+969335639+967216497+966688277
1140+966201864+965356026+963488474+960158852+956314126+952201116+948545082
1126+946011666+943206762+940104435+938496746+938766073+938121373+934112695
1113+929846913+927085903+923189979+919689624+919302402+918293879+913485046
1099+909499545+909276721+908863192+906826398+905862515+906597836+907343068
1086+907208926+907849602+910094911+911840990+912166433+912064932+912376215
1072+913749603+915712097+917331785+918597189+920093167+922602140+925995852
1059+927860422+926596285+925704913+928005743+930970052+931507737+929820457
1045+929489947+932171739+934782137+934914118+933957687+934105020+935437494
1032+936968350+936763784+934425246+932551658+931007314+929081709+928072366
1018+926428608+922551390+918766952+916891353+915842588+914983931+914515031
1005+913469247+911954712+911547145+911395788+910927708+911823328+913052961
991+914016322+917036226+922124595+927650565+932473483+936286612+939542158
978+941243373+940260189+938682160+939730701+942421809+942712300+939857167
964+935918318+932011588+929753312+930197694+931060225+930986298+931276640
951+931975370+932236052+931879384+930993378+929616934+927660253+925191374
937+922852985+921362148+920035114+917855459+915453875+913283684+909844811
924+904482345+899265051+895656190+893456787+892285878+890719475+887816200
910+884789217+882737146+881737865+881340731+880355385+878891824+878851879
897+878927520+876101526+871893201+869181674+868950801+870681081+872386246
883+873191097+873624747+874990087+878487833+881978947+883787700+886619805
870+891223252+895553125+899577750+903387227+907391284+913362232+921647647
856+931317777+940752564+949369756+958803051+969204031+978939146+988340620
843+999426542+1011589250+1020853527+1026428161+1032014942+1036626288+1036199792
829+1033639696+1035076355+1040865988+1045060004+1044085763+1042140856
818+1044643643+1050257699+1052108632+1048205852+1041834566+1036047914
806+1034544110+1036501387+1035155573+1029572146+1025437002+1022645810
795+1018004505+1013795659+1013383471+1016251645+1017861495+1013847527
783+1004878063+994290105+983726218+973719839+966178016+961515845+957201697
770+952554654+949624252+948576456+947311872+945610656+944191660+943711880
756+945326276+946677307+944902686+942047702+939827805+937159502+934824765
743+934927085+935559191+933825483+931193249+928928563+925895916+922360536
729+919681725+916780686+912702925+911797841+916028076+917971566+913013761
716+907179638+905334965+906286478+908770038+913412088+921329060+931526889
702+939157842+942725863+945591728+947514277+947073845+947972595+951443513
689+953248465+952900143+951731619+950551396+952630220+957475421+959572503
675+956340805+953906654+956023783+954293876+945796368+942388869+943799519
662+948480843+954190960+954915102+951898999+949342406+945792419+941383179
648+941150517+939182434+927400242+920262782+928463390+939621972+943625209
635+945025947+948326580+952511952+952074799+943408570+935416777+937079389
621+943130971+948999748+955997551+960572232+957355066+951562973+953809773
608+955241811+945079530+939917084+950052612+957614705
##END=
