##TITLE=Sample description
##JCAMP-DX=4.24
##DATA TYPE=INFRARED SPECTRUM
##DATE=13/9/2023
##SAMPLING PROCEDURE=Instrument type and / or accessory
##ORIGIN=Default
##XUNITS=1/CM
##YUNITS=ABSORBANCE
##RESOLUTION=4
##FIRSTX=4397.6552
##LASTX=599.8556
##DELTAX=-1.9287962
##MAXY=1.8649077
##MINY=0.48375463
##XFACTOR=1
##YFACTOR=1.7368307e-009
##NPOINTS=1970
##FIRSTY=0.50204569
##XYDATA=(X++(Y..Y))
4398+289058511+287703394+288031372+288991728+288066788+286644785+286149370
4384+286003175+286191530+286820374+287070278+286176756+285661934+286738971
4371+287762782+288053816+288111470+287228467+286220872+286499723+287059588
4357+287674361+289157107+290749774+291254009+290312493+289101992+288270020
4344+287008934+286280860+287162079+288232682+288158692+287286602+286525736
4330+286197055+285981143+285586348+284949988+284101269+283508939+283814044
4317+284840668+286016988+286389116+285206533+284336142+285146374+285023789
4303+282699325+281243811+282941507+285707559+286107279+284725720+284565764
4290+285830126+286993114+287710344+288032882+287377647+285794316+284580366
4276+284059418+283680152+284135844+285299415+285281226+283927637+283164317
4263+283712377+284773045+285720017+285855882+285216468+284796981+284438461
4249+284051302+284447658+285086231+284960764+284486026+284052468+283277910
4236+282780041+283374121+284061546+284109677+284292008+284663587+284758099
4222+284620141+284017601+283195736+283407392+284636116+284685499+282982638
4209+281941170+282395782+283224168+283813615+283620988+283180378+283393064
4195+283262570+282624512+282993105+283880672+283816532+283309671+282901029
4182+281958467+280990543+281431633+282525967+282363574+281512040+281056503
4168+280822780+281138385+281558233+281275246+281036770+280799786+280147126
4155+280057109+280429546+280273262+280169982+280847162+281405225+281090254
4141+281092640+282424969+283556658+283256152+282718526+282576380+282081171
4128+280707299+279303434+279628752+281281097+282284866+281975729+281220955
4114+281424770+282357071+282814599+282848162+282613633+282130383+281705303
4101+281211311+280899515+281321592+281839778+281613862+281240979+281245870
4087+281052247+280794982+281097616+281678071+281986762+281806832+281591675
4074+281931716+282241419+281614720+280837588+281017157+281409807+281649398
4060+282323885+282959919+283171250+283073512+282689081+282639388+282998492
4047+282558449+281627864+281917954+282963368+283417173+283573594+284103963
4033+284426158+283772639+283167509+283374258+283396788+283003074+282959250
4020+282929222+282281726+282147679+283292375+283971649+282985623+282108574
4006+282943378+284105215+284256335+284156641+284363527+284380721+283759547
3993+283126344+283359261+284209233+285229869+286228336+286510911+285643368
3979+284448138+283900337+284034778+284364643+284452600+284502653+284897859
3966+285210085+285222680+285556080+286148358+286211846+285723535+285050558
3952+284221382+283908333+284957127+286307902+286728470+286844928+287236034
3939+287603392+287561575+286744857+285616617+285528368+286514909+287133698
3925+287124191+287181383+287155970+286906632+286769171+287457591+289061325
3912+290543145+291040036+289776067+286204039+282260071+281388598+284159095
3898+288392570+290767241+289556501+287204770+287525644+288404066+287379329
3885+286530644+286627644+287564166+289847895+290468194+288681081+286995464
3871+285930764+286033718+286854606+287177093+288774461+291403738+291963363
3858+289116715+282903431+278527228+283271939+289582720+292567463+292554251
3844+290660375+288401492+287029251+287226511+288782628+290034276+290772012
3831+291921907+292817299+292564409+290804785+287546612+286749370+289533988
3817+291425084+293565810+296528830+297207470+294796524+291999774+291347628
3804+290572727+290319631+292888097+294869175+295990312+298005776+299777068
3790+300409584+300126666+299566527+299502970+299195103+298565916+299861182
3777+302520110+303857382+303398412+302711982+303472642+305165552+307319147
3763+308717230+307754231+307212898+309531803+311435322+310479084+310130653
3750+315994750+323895349+333502516+350715352+369042839+382266442+390517360
3736+393901634+394707113+396092911+398007858+399026418+400341760+403284430
3723+407049154+412515231+420898307+429997327+436621912+441321700+448703341
3709+460563832+473441749+485333194+498325665+513211052+525748671+534342357
3696+540451966+542382665+537706213+531120991+529761378+530767686+529233772
3682+524919273+518484809+509164301+499233652+495771579+494036973+488337637
3669+484873641+484544222+482970122+479543602+474058685+466162479+456540074
3655+448717789+442089052+432545236+422971529+419550191+419430318+418104406
3642+414499192+409812272+404981011+399940239+394825373+389237640+382293176
3628+378740262+379687303+379197276+375583448+370122210+366270901+364719588
3615+362401301+359519545+357408024+355892093+355360541+354882147+352867540
3601+349889797+347223250+345077617+343798377+343430076+342278431+339193238
3588+336401156+336119061+336406578+335592348+333931285+332064761+330276653
3574+328940686+327675619+325255545+321891552+320206398+320961945+321545111
3561+320596526+319242542+318612085+318144913+317306935+316552521+315545698
3547+313808965+312210292+311587488+311784508+312121169+311836775+311013382
3534+310259414+309468589+308517533+307857734+307649801+307459061+307133692
3520+306808219+306276495+305873842+305488553+304270880+303104203+302849804
3507+302510638+301702757+301214102+301275051+301361910+301293446+301141211
3493+300738797+299985276+299342293+299185974+298996642+298577652+298576177
3480+298922103+298804323+298265701+297950524+297986215+298185431+298342093
3466+298131449+297409912+296832442+296983613+297298756+297273910+296988143
3453+296537273+296020031+295746207+296133727+296755261+297041165+297158498
3439+297007705+296582126+296443893+296788790+297215775+297397214+297425115
3426+297354420+297176755+297231081+297581331+297656968+297241616+296936941
3412+297283450+297884668+298196688+298386741+298709125+299267754+299803287
3399+299838154+299521536+299247232+299335086+299759944+300143379+300528016
3385+300862686+300969621+301042100+301223368+301471007+301624787+301669572
3372+301650559+301674719+301996829+302188049+301682063+301070653+301167224
3358+301541668+301508174+301582335+301860552+301391252+300337482+299687773
3345+299755002+300234219+300545964+300504611+300530727+300674108+300227905
3331+298925226+297599485+296810685+296210462+295783236+295609072+294896767
3318+293606305+292835110+292382661+291115226+289288751+288060131+287443658
3304+286497407+285343925+284945201+285236647+285403416+285251936+285226541
3291+285619688+286264850+287009552+288014625+289186483+289819754+289590647
3277+289293967+289673628+290663635+291894795+292832502+293289618+293681153
3264+294128935+294425065+294682382+294854865+294706713+294859566+295853177
3250+297007155+297567775+297231012+296269455+295612916+295602621+295953214
3237+296711574+297772002+298406886+298487121+298751988+299246305+299666873
3223+300288922+301313213+302525395+302932613+302054586+301559033+302696299
3210+304295692+304952402+304956623+305199423+305647274+306277628+307628627
3196+309137351+309983120+310648409+311242764+311673524+312617716+313642522
3183+313704329+313596193+314528202+315812727+316389305+316377293+316173513
3169+316085864+316413362+317367712+318614247+319190653+319104686+319572578
3156+321049730+322303403+322214451+321899994+322827543+324316466+325196209
3142+325305992+325023143+324968509+324994110+324545470+324109185+324225111
3129+324605561+324801517+324601683+324362932+324336713+323973697+323213518
3115+322509998+321873466+321456502+321217786+320776593+320095002+319117212
3102+318098927+317697303+317717928+317432162+317069420+317297875+318015465
3088+318713735+319191648+319754533+320555241+321195616+321449227+321325750
3075+320874983+320571405+320795983+321156151+321281411+321322833+321435980
3061+321693537+322033389+322127180+321697724+321050348+320773161+320826629
3047+320801679+320571131+320080897+319402944+318916932+318556970+317829187
3034+316866531+316067264+315351286+314551504+313744824+313001976+312461878
3020+312311119+312125973+311478254+310733861+310201314+309676488+308998947
3007+308487402+308396219+308438498+308522818+308928869+309681841+310706681
2993+312314551+314662180+317242486+319662869+321797692+323257925+323921019
2980+324175384+324361834+324587544+324568086+323820295+322470669+321101070
2966+319969329+319142299+318619669+318121474+317597849+317548809+318085371
2953+318332633+317807395+317365310+317773008+318548390+318737174+318351439
2939+318023290+317525918+316655647+315942552+315215833+314159626+313450238
2926+313465235+313756527+313877086+313545024+312870572+312343309+312101847
2912+311998962+312243856+312822149+313069033+313026307+313352603+313872625
2899+314157259+314230802+314322431+314682565+315154061+315421707+315581320
2885+315793955+316049590+316447199+317030229+317541705+317739205+317644796
2872+317491635+317397843+317096462+316591575+316409072+316593154+316601733
2858+316173822+315713239+315713651+315741071+315173244+314534105+314435852
2845+314446045+314260762+314429950+315159998+315917191+316298327+316336764
2831+316448366+316964338+317547745+317925930+318269899+318392792+318300305
2818+318550861+319128125+319623095+319974992+320399266+321100349+321914923
2804+322535290+322965570+323460024+324088251+324613008+324867305+325055779
2791+325507542+326026912+326219058+326140401+326030412+326019945+326016822
2777+325968022+325908480+325668597+325322499+325087661+324942152+324956017
2764+325074792+325116660+325191404+325366049+325622920+326028284+326333990
2750+326313639+326348918+326604999+326675214+326608362+326712724+326763892
2737+326545869+326336357+326459868+326814614+327093517+327166099+327159991
2723+327312466+327466005+327384980+327361506+327516109+327628844+327707398
2710+327696073+327586290+327687905+327982663+328164961+328130471+327894912
2696+327746589+328040146+328511298+328574855+328197837+327883758+327902771
2683+327996493+327951022+327852460+327580593+327049040+326630086+326473870
2669+326329460+326091224+325806487+325480774+325159248+325018064+325081278
2656+325014907+324547186+323968789+323753032+323883543+324124319+324330364
2642+324406070+324433868+324462420+324351745+324056815+323804475+323803205
2629+323952866+324116735+324232043+324205721+324161760+324286197+324442447
2615+324573233+324825299+325140511+325446147+325678172+325781915+326032986
2602+326554311+326951062+327095850+327500323+328283804+328904377+329266879
2588+329636965+329944180+330166080+330463000+330810676+331163294+331497895
2575+331676658+331769077+331958547+332149012+332215692+332252687+332285220
2561+332214010+332156630+332265865+332422183+332549229+332723771+332880707
2548+332906343+332855518+332846217+332946186+333168773+333501829+333815496
2534+333923186+333925451+334095223+334460333+334730827+334778049+334916797
2521+335244912+335505420+335696023+335931513+336169955+336394704+336599274
2507+336758304+336955804+337253650+337592061+337925769+338170938+338293865
2494+338576749+339184693+339850669+340428585+340929045+341224112+341360354
2480+341577828+341919327+342149258+342067890+341870938+341830786+341854500
2467+341816716+341830718+342074410+342507675+342828137+342903877+342810189
2453+342593951+342462410+342640692+342919904+342973509+342950996+343108722
2440+343411716+343803388+344142244+344211944+344184799+344393967+344696824
2426+344811172+344781933+344783237+345005309+345344852+345510471+345609375
2413+345772077+345897956+346011926+346212721+346511219+346779243+346976400
2399+347244493+347553767+347802608+347997122+348090742+348097606+348056767
2386+347829238+347180559+345806464+343522323+340479684+336896983+333123644
2372+329660747+326449298+323186269+320060547+317429759+315718043+315313845
2359+316300249+318827671+322999099+328568266+334082422+336833014+335618224
2345+332274170+329833436+328959492+329420486+331120157+333006345+334302092
2332+335363309+337084531+339565005+341935799+343852566+345891573+348444046
2318+351239629+353724222+355673418+357520107+359580906+361592287+363320441
2305+364832838+366309029+367794348+369155334+370410654+371724520+373035127
2291+374164499+375198880+376335665+377521731+378639985+379745953+380726179
2278+381403583+382053670+382946695+383887421+384656008+385325965+386039849
2264+386787605+387619990+388670465+389740708+390431668+390841459+391403726
2251+392076497+392618963+393080369+393541947+394036745+394611194+395328853
2237+396099706+396657408+397030583+397529155+398200760+398794942+399162660
2224+399351753+399593626+400106201+400704364+401227474+401780270+402310724
2210+402801815+403262741+403592846+403954593+404451347+404901668+405420591
2197+406184408+406925301+407445837+407955700+408644601+409456326+410279135
2183+411039795+411739265+412516535+413414981+414331376+415173610+415836600
2170+416486722+417385065+418345971+419244452+420225982+421197011+422125898
2156+423301085+424777894+426234043+427444269+428396904+429303381+430537253
2143+432076829+433582774+434843070+435899036+437154219+438733742+440297032
2129+441781974+443236270+444490457+445566363+446790796+448328863+450074279
2116+451918222+453800396+455785283+457845979+459780007+461607100+463512267
2102+465644413+467996950+470374539+472665235+474925319+477332730+480014102
2089+482898603+486027174+489352387+492498186+495496451+498705806+502176734
2075+505932433+510165462+514834673+519250377+523045301+527122286+532075616
2062+537194496+541960622+546781347+552029058+557532712+563008603+568500384
2048+574348969+580599247+586861056+592924781+598898593+604906929+611103740
2035+617547572+624083170+630774160+637420743+643329214+648791687+654566591
2021+660479042+666290049+672045324+677687280+683153047+688262937+692855790
2008+697089677+701512381+706481772+711578621+716062823+719464566+721928190
1994+724401629+727940644+732032660+735206050+737794935+740455271+742349353
1981+743604913+745120879+746495042+747846830+750138727+752698579+754242136
1967+754970091+755486646+755863801+756445424+757409692+758411093+759452715
1954+760171884+760265366+760688851+761718186+762194109+761668974+761583454
1940+762775251+764056687+765132970+766521753+768162911+769821502+771282078
1927+772914725+775114993+777786104+780403061+782400303+784797213+788673780
1913+792868339+796209819+799323839+803324431+808394855+814340732+820352362
1900+825173705+829025494+833457877+838814856+843699207+847987179+852781685
1886+857849912+862766660+867428355+871689765+875595777+878634297+880765928
1873+882115863+881991014+881926428+884928983+889415038+892149226+893348848
1859+894586426+895444171+895238537+894154361+892550267+891350782+890118627
1846+887434406+884926786+884589577+884059981+881698899+878797376+876324898
1832+873284456+869216806+865708334+863140795+860807991+858817407+857114888
1819+855783005+854193324+851667103+848637094+845575993+843370509+842275214
1805+841179026+839161056+836589742+834921198+834195234+832560185+829247601
1792+827061061+828460963+830429926+830603782+829734162+828890213+828552798
1778+828791377+828191634+825171715+821730438+822321463+825639950+828875456
1765+831220683+831953717+832090028+832921348+834272107+835745724+835572898
1751+832683318+830519222+832731844+836504565+838052172+837861706+838813140
1738+840656706+839887570+837815652+840373445+845698851+850865571+854404037
1724+855233573+854861771+853719666+850630149+849823881+855813960+863699356
1711+869043225+870983911+870169818+868610475+867754033+867531996+869830275
1697+874148928+879960552+887962287+894915879+898674255+898571232+895519053
1684+896573853+905023094+912220070+915495522+917181705+920310070+923486480
1670+925517148+929959071+935820594+940319347+944994564+949809249+952606308
1657+952324008+947693404+945864733+955418055+962812977+964505886+967627868
1643+972895758+975704759+975531384+973869841+974923131+981254949+986222281
1630+987127316+987007958+987563979+988317398+991913312+996790525+997282714
1616+996158729+1000029737+1004496369+1006516192+1008575000+1011970085
1605+1015279375+1016455249+1016071161+1017333859+1019657878+1019807230
1593+1019605646+1022142848+1025155836+1026363762+1027135301+1028412825
1582+1029770996+1030271971+1028054407+1025364009+1027551991+1030062356
1570+1029168302+1029527544+1032528451+1034497141+1033077815+1025250965
1558+1019555885+1030367100+1042808767+1048463078+1049364201+1049444299
1547+1049516230+1047590507+1042988731+1039364401+1044642998+1054329199
1535+1058187166+1057089469+1057271698+1057778026+1056938813+1057849133
1524+1059741019+1060495810+1060981548+1061645739+1063957747+1065426628
1512+1062356123+1057853526+1055019267+1057219946+1065224906+1069765871
1501+1068375372+1064801216+1065147759+1070425532+1073188616+1069523036
1489+1066175173+1069205388+1071925094+1069636217+1065650519+1063577228
1477+1061701884+1057091528+1052296061+1054382804+1060067040+1059020752
1466+1050610770+1045030106+1045275823+1041421974+1029968805+1022156026
1454+1021384145+1019718827+1016779829+1013728474+1010913295+1007739836
1443+1002467485+995223357+986549950+976058509+968149159+964592231+960827334
1429+955925138+951255344+947055363+944966629+944401754+944461742+949968005
1416+959384054+966106480+970160472+974427029+978450546+981697995+986031541
1402+990076267+991186593+991131684+992859735+998482336+1007141810+1012575456
1389+1012239070+1010464209+1010608414+1012011747+1015417471+1020610478
1377+1023218788+1021370555+1020607527+1025642466+1032067423+1034402835
1366+1033491210+1031400142+1029973747+1030114039+1029950411+1029495902
1354+1028994516+1027825437+1027630922+1028402941+1026264309+1020312117
1342+1014041248+1010114302+1008037442+1005236403+1002007692+1000147860
1331+999370213+999121064+999350651+1001379260+1005597635+1009051884+1010207098
1317+1011232934+1014243793+1017686649+1018641652+1018879682+1021481539
1306+1024956379+1027937245+1031133628+1033510359+1034874639+1036240292
1294+1037489881+1039328299+1042221791+1044425284+1045560800+1048642081
1283+1054817202+1061632012+1067344870+1071461114+1073463710+1073741823
1271+1072842072+1069652759+1064482607+1061345319+1061699481+1062313157
1260+1060658066+1057075879+1054241963+1053648878+1053155591+1051406880
1248+1049850007+1048982996+1047301274+1044421578+1041469814+1038082416
1236+1035028590+1034193426+1033302804+1030855995+1028907691+1027364408
1225+1026101229+1025496614+1023872546+1021541870+1021121268+1023878792
1213+1027448831+1028103413+1026766725+1025216030+1023876527+1024372835
1202+1025233189+1024921306+1025199763+1025319464+1023300602+1021467537
1190+1022904160+1024287520+1021497188+1017292129+1014813061+1013940628
1178+1013794227+1013060438+1011348997+1010348420+1010673549+1010178340
1167+1008587973+1006957110+1004021956+1000703194+999947099+1000702851
1155+1000900660+1000435376+998099552+994302397+991765950+990562485+989239524
1142+986700468+983059941+980363434+979160655+979775978+981851053+980508737
1128+975616356+972962747+972526290+970407836+965598093+961259261+959824836
1115+958969012+957423945+955997892+953277775+949090355+946211414+944627636
1101+941425281+937367789+936050113+936354789+933737831+929408197+927574172
1088+928928706+932592432+935009041+932935819+929870393+929935460+931756788
1074+932978373+933977303+934929697+935213851+936404687+940846129+946667432
1061+948984449+946883361+944890924+946786996+950192102+951710126+951832573
1047+950705157+948619786+946907727+945883196+945347216+945569186+948230276
1034+952536162+953494528+950215232+947767806+948521911+949385559+946907041
1020+942404169+938951910+936762762+936512652+939400035+942727582+942985517
1007+940643378+937876383+936616773+938285454+941424869+943463018+943194033
993+940659851+938390741+939272715+942588526+945091478+946687885+949917351
980+954304297+958944715+964430661+968254310+968012779+966504364+964857303
966+961080602+958193630+959732520+961957840+960487517+956644788+952710360
953+951889816+958027599+966162213+966916592+961021849+954731899+950747848
939+949630452+950691704+951968129+952961774+953729195+953122177+951616164
926+950251609+947633485+943376262+940924031+940478240+937523593+933795348
912+933939347+935668359+935475972+933919168+932538484+931572431+930655659
899+929770871+927991548+923782302+918204246+915483099+917452269+920425585
885+921775931+923273708+925228671+925671305+924694888+924794959+929034474
872+936979515+942511447+943278318+943835506+945361287+947539179+952950381
858+960348529+966021234+972116395+981847072+991815025+998168189+1002135287
845+1006158117+1011306168+1017245799+1024405163+1032961133+1039731330
833+1041556982+1039456785+1037331331+1037459132+1039047028+1041860834
822+1048599595+1059017320+1065257989+1063207966+1057118022+1051341401
810+1047993195+1044981580+1042033247+1044526866+1050312066+1052051442
799+1049071125+1043643450+1039906421+1037585216+1029961187+1022053209
787+1023189137+1028976670+1029825905+1021935842+1010514245+1003895734
775+1001985248+998994979+992554716+985173521+980039472+976465178+973102009
762+972027374+973955568+975912177+974399506+970627266+970214351+971705470
748+969088513+963885828+959990592+958397616+958635990+959334842+957583867
735+951412863+946545534+947152620+947715505+945937006+944483362+941001865
721+935806798+935597046+939454876+940068620+938314693+939549250+944030227
708+948663850+950576327+949444037+948614707+951802373+957690184+959644872
694+958148193+960835365+964852705+963828311+961584253+961571075+962882368
681+964256120+963746153+961305797+959451730+959164762+957993762+955705022
667+958166450+964269092+969614128+975263360+975060197+965232743+956352192
654+955483327+962272605+975593843+991423044+1003515696+1007039268+1001774604
640+990570858+978014776+968544366+965504679+970799954+980506472+988103390
627+986453104+977132184+973446631+977596576+987062524+999797266+1004640848
613+998352339+992952531+1005547874+1030268264+1040057420+1030109303+1011936522
600+997916912
##END=
