##TITLE=Sample description
##JCAMP-DX=4.24
##DATA TYPE=INFRARED SPECTRUM
##DATE=13/9/2023
##SAMPLING PROCEDURE=Instrument type and / or accessory
##ORIGIN=Default
##XUNITS=1/CM
##YUNITS=ABSORBANCE
##RESOLUTION=4
##FIRSTX=4397.6552
##LASTX=599.8556
##DELTAX=-1.9287962
##MAXY=1.6659424
##MINY=0.2492971
##XFACTOR=1
##YFACTOR=1.5515298e-009
##NPOINTS=1970
##FIRSTY=0.29899433
##XYDATA=(X++(Y..Y))
4398+192709372+190826877+190061271+190571253+190640172+190303584+190131612
4384+189754514+189039906+188514077+189588995+191554509+192052619+192025613
4371+192700152+192727716+192142841+192132834+192434654+192257515+191557217
4357+190751561+190159195+190155584+190507942+190427517+190440098+191313866
4344+191906963+191082291+189578757+188447597+187961107+187941515+187777379
4330+187153300+186969668+187865469+188846228+188859923+188091359+187750334
4317+188425162+189067796+188890714+187810514+186473075+186436118+187565972
4303+188084655+187623559+187283321+187102648+186531161+186432296+187086570
4290+187581147+188210259+189077074+188859213+187742593+186939108+186391920
4276+186412588+187078330+187408425+187477230+187420527+187004032+186662796
4263+186250681+185711963+186014322+186687479+186229820+185484076+185440607
4249+185050447+184661190+185290916+186282010+187153723+187423446+186781331
4236+186595797+187488351+187851504+186982288+186606131+187486488+188017042
4222+187482992+186959507+186898213+186809355+186535444+186170082+186361859
4209+187555177+188572221+188644655+188081294+187263153+187005223+187376136
4195+187453507+187186876+187357235+187500145+186357614+184854887+184916988
4182+186041463+186522421+186056215+185263333+184931144+185583325+186781292
4168+187538716+187166227+186054621+185313794+185248716+185385441+185856602
4155+186719941+186682696+185608142+185287651+185900916+186245130+186209498
4141+186139772+185825139+184975611+184213732+184492656+185136712+184907710
4128+184404759+184500973+184627921+184705177+185364965+185875887+185487744
4114+184864088+184602624+184550262+184204569+183883214+184368186+185185501
4101+185497118+185212719+184964547+185314447+185674526+185439685+184903715
4087+184274430+183518044+183080939+183640708+184689177+184650126+183791686
4074+183673055+183832023+183739670+184271491+185115102+185091073+184214231
4060+183485063+183152778+182939354+183140369+183625284+183541497+182427586
4047+181264290+181401764+182518480+183661837+184475983+184787466+184550646
4033+184028774+183886978+184533627+185169635+184987156+184688581+184841710
4020+185034370+184977494+184950449+185455052+185997495+185940869+185784725
4006+186025021+186345666+186383737+186534772+186637710+186144631+185773449
3993+186111228+186775261+187427230+187902291+187886464+187344942+186605805
3979+185885453+185358952+185023575+185475048+187086148+188138016+187765509
3966+187216707+187131825+187452758+187829376+187965410+187929490+187429017
3952+186320657+185331869+185374838+185220844+183898215+184348363+187254951
3939+189010305+188110375+185565173+183608016+184335090+186000204+185552419
3925+184215076+184206893+183870863+182996383+184557561+188682592+191620605
3912+191610194+190009601+186047783+178444236+171960708+171749781+176879447
3898+184321318+188525564+186004430+181907136+183087316+184285417+181649244
3885+180153125+179478279+180012367+184626346+185863287+181614727+177481264
3871+175168387+176664506+178825733+177817986+179577202+185141149+187137972
3858+181761709+168936123+160678253+171907885+185876444+191799607+189937723
3844+183941146+177968157+173514606+172878291+177207967+181563883+183984768
3831+186315855+187778167+187349341+184072377+176728738+173832619+178534861
3817+181765186+186763313+193944296+195704606+190843070+185366617+183243211
3804+179726758+178179468+183527456+188193893+192186233+197347938+199832864
3790+199376916+197966850+196809663+197178309+196981520+195389551+197178386
3777+201773023+203373961+200374847+196602750+196982038+200032804+203217375
3763+204692307+202540338+201909133+206182375+208143375+204082884+205405878
3750+226106656+251625175+274072606+298812092+313401350+311254741+297795241
3736+283330972+280222254+288322798+297327710+301127006+302487571+307041544
3723+315722545+327252297+340045940+350697160+355682994+357818501+368598955
3709+391139797+418008816+444655749+468469182+487050837+498116151+500568673
3696+495399975+483026573+464783023+450370002+448738944+451347822+449119231
3682+441591249+430644413+416659046+403203407+400091078+399953547+395157299
3669+394858340+398172587+397331108+393298815+388296961+380647813+370848137
3655+363332219+354191812+338703584+327997005+332862210+341345692+343891182
3642+341719794+338571738+334561726+328556851+320946754+310723611+298633762
3628+296680734+303730274+305681381+299509087+290389405+286254943+285565421
3615+282389340+278487798+275683437+273949327+275257281+276757510+274159293
3601+269567634+266340651+263551388+261292621+260944700+258887524+252010168
3588+246984438+249551961+253093749+253022333+250773746+248423124+246425322
3574+244697070+242149659+236015013+227750583+225767379+230469294+234059296
3561+234706982+234256085+233032878+230795836+228641101+227424291+225482192
3547+222785974+222124055+223561857+224703063+224321720+223014880+222075823
3534+221340047+219455266+216772955+215069809+214326887+213810509+213927373
3520+214494557+214785756+214593288+213682966+212092169+210903902+210849063
3507+210465971+208696671+207622387+208461792+209244148+209101775+209041231
3493+209053044+208351862+207431206+207044004+206482352+205421494+204976706
3480+205378256+205589894+205177433+204648166+204565590+204504699+203885000
3466+203276057+203099647+202954662+202549847+202172114+202307898+202639915
3453+202493777+201602068+200141773+199271481+199621496+200325578+200997582
3439+201581208+201827939+202062089+202386672+202292647+201747725+201493157
3426+201575369+200982484+199927081+199880194+200884214+201667818+201936101
3412+202234791+202348140+201937331+201585242+201977111+202818245+203125502
3399+202929653+203133838+203744683+204403683+204805175+204462844+203920036
3385+203936439+204260369+204853062+205751859+206395454+206594030+206632408
3372+206844122+207370373+207723019+207756000+208032408+208426333+208476159
3358+208492467+208924021+209484137+209749097+209910716+209992831+209862349
3345+209907412+210080344+209819111+209282910+208973540+208614402+207839941
3331+207192638+207093581+207192216+207128771+206779640+206301486+205748881
3318+204704063+203169354+201708828+200580242+199737341+199076728+198375354
3304+197387181+196007657+194726921+194331498+194611325+194840020+195000102
3291+195134944+194778015+193881869+193371580+193904150+194734662+194922923
3277+194760535+194965296+195812346+196991239+197397265+196729199+196285179
3264+196733847+197372755+197595976+197607462+197716566+197817179+198219901
3250+199263452+200014691+199757030+199360666+199519499+199808527+199751152
3237+199793391+200704366+201844036+202155153+202180067+202807699+203645164
3223+203902959+203823917+204123394+204964393+206210785+207309982+207770790
3210+208220823+209307862+210541940+211373047+212060763+212911789+213858108
3196+215064987+216759644+218505317+219627911+220138450+220556730+221165616
3183+221959804+222864959+223675302+224344943+225037634+225543525+225936489
3169+226944063+228338358+229174094+229634672+230160635+230316856+230463359
3156+231593386+233193153+234397804+235126012+235268307+235299905+235915782
3142+236744373+237162077+237160061+236983132+236904225+236986916+236936168
3129+236686863+236497065+236569173+236873011+236914367+236392111+235624065
3115+234852600+234312692+234305719+234492924+234126486+232962460+231473122
3102+230366203+229779253+229190959+228463001+228063909+228227411+228775233
3088+229492972+230185395+230641266+230937709+231300016+231643039+231756560
3075+231613458+231548208+231833279+232296123+232771645+233014093+232896230
3061+232746732+232875735+233394667+233923915+234049403+233833790+233279264
3047+232674105+232342665+231957979+231216902+230167281+229108421+228099330
3034+226758510+225300827+224252666+223466622+222702860+221925056+221041127
3020+220112730+219334542+218776904+218171592+217186203+215982666+214992437
3007+214478403+214308121+214138108+214058432+214289066+214813819+215959270
2993+218193067+221260255+224339084+226869458+228686759+229839683+230636003
2980+231301668+231781416+231924537+231572084+230692591+229453230+228095930
2966+226752268+225659197+225058610+224596880+223926508+223339117+223156138
2953+223189849+223086988+223141175+223639536+223938975+223647546+223218316
2939+222829404+222216735+221383400+220560995+219947307+219574819+219297297
2926+219187848+219163703+218795171+218158953+217560689+217049901+216775452
2912+216844986+217190372+217744091+218346887+218823811+219250083+219591953
2899+219622840+219662736+220152299+220797353+221253821+221627769+222003868
2885+222412660+222936779+223439058+223794816+224332650+225090016+225337611
2872+224785909+223975874+223376132+223116320+223062075+222964343+222805701
2858+222751150+222716459+222390724+221793594+221208911+220782563+220654885
2845+220826915+221032540+221345521+222083237+222970106+223451563+223642686
2831+224059180+224746417+225372033+225755124+225914284+225995766+226209632
2818+226599945+226917344+227024066+227206391+227653427+228166040+228578271
2804+229020005+229729792+230682852+231560059+232136674+232409548+232513120
2791+232652784+232750170+232617844+232390801+232181257+232070617+232172729
2777+232340667+232416540+232336096+232054943+231684260+231435282+231434590
2764+231585760+231706696+231739561+231739081+231703738+231555007+231404491
2750+231449016+231611749+231667184+231490967+231095294+230684888+230463531
2737+230430186+230574997+230804211+230875224+230696990+230375557+230131419
2723+230089603+230109810+230059964+229914461+229685228+229582867+229772396
2710+230030460+230094789+229932478+229656416+229500732+229502096+229406458
2696+229204693+229055732+228915992+228865896+228945995+228882396+228591928
2683+228201499+227827647+227546245+227205123+226719421+226244649+225760848
2669+225150618+224526750+224078274+223870727+223782561+223611818+223343823
2656+223093961+222862789+222640221+222597348+222724892+222682653+222440935
2642+222285559+222274206+222294068+222270979+222291225+222443951+222543776
2629+222564406+222769321+223132954+223423058+223561800+223634945+223823590
2615+224175564+224607905+225147103+225794347+226378511+226824702+227212960
2602+227595322+228075876+228690159+229293359+229895694+230538156+231067768
2588+231472949+231816164+232112895+232491184+232894021+233154294+233389731
2575+233725743+234056203+234244022+234296461+234374697+234538832+234573983
2561+234399014+234212597+234108488+234073644+234085419+234113021+234192505
2548+234356314+234455564+234309868+234164404+234349514+234692614+234875208
2534+234978703+235263179+235573451+235708793+235780344+235716457+235523663
2521+235518688+235776483+236088561+236288117+236334812+236300410+236350698
2507+236532793+236705476+236822935+237009083+237390234+237863662+238189032
2494+238428176+238774733+239177532+239548522+239962117+240520618+241097483
2480+241388797+241354549+241214136+241063850+240915446+240804998+240668407
2467+240475306+240407039+240525459+240607901+240606249+240676398+240788536
2453+240858935+240942261+241072417+241204416+241337838+241586336+241991709
2440+242344028+242499885+242550307+242549999+242563503+242684746+242844156
2426+242902703+242877233+242914171+243053546+243202277+243282625+243309958
2413+243321464+243436311+243818077+244238932+244413420+244463900+244599665
2399+244937002+245294699+245429043+245516498+245705355+245890446+245925924
2386+245412658+243860124+241108836+237290235+232776428+228025281+223134126
2372+217844935+212386268+207559902+203452600+199840624+197302895+196672707
2359+198372242+202112069+207615856+215127203+222969683+227112194+225406300
2345+220213573+216677105+216278763+217283763+218932780+220942376+222761887
2332+224311424+226432564+229381737+232295124+234919042+237935213+241655793
2318+245526928+248704584+251102785+253457786+256129552+258904620+261591983
2305+264022319+266123136+268024916+269858487+271649454+273302294+274767506
2291+276144803+277469449+278721967+279952473+281074721+281849432+282357377
2278+282972870+283769441+284494633+284995356+285467478+286169485+286966017
2264+287564011+287946737+288306356+288715648+289088520+289392358+289672588
2251+290030344+290478186+290822246+290994603+291180002+291462422+291727900
2237+291899047+291993821+292045126+292115025+292283310+292540087+292810022
2224+293071044+293316661+293560185+293807377+294022184+294248650+294530782
2210+294890055+295336688+295854583+296485328+297036127+297311632+297668408
2197+298420626+299321363+300032591+300523921+301074624+301935773+302933954
2183+303856665+304807594+305851030+306892506+307760493+308448517+309230681
2170+310249818+311355047+312336728+313258805+314298976+315342738+316262722
2156+317163478+318196926+319411373+320701924+321923460+323034721+324106662
2143+325219247+326351695+327521368+328864185+330317258+331687735+332952067
2129+334180056+335519723+337092234+338844650+340533409+341970309+343441591
2116+345189320+346945386+348641483+350581910+352795557+355010049+357139870
2102+359358895+361758287+364223025+366736130+369517498+372660099+376017526
2089+379547329+383375744+387488328+391641288+395726711+399994191+404704501
2075+409869202+415336321+420913771+426516001+432096909+437900865+444394247
2062+451236644+457954955+464962237+472421069+479888928+487275306+494789150
2048+502294504+509708081+517256423+524899578+532474851+539905216+547287790
2035+554790493+562169764+569173934+575927320+582516705+588773516+594727144
2021+600528794+605973784+611132647+616550092+622279519+627581138+631936823
2008+635733775+639465419+643161374+646588451+649636277+652533741+655075543
1994+656551897+657457071+659061967+661305579+663617649+665644514+667134467
1981+668330532+669160102+669372162+669307392+669369243+669155031+668011059
1967+666966509+667388094+668415279+669029255+669286416+669074587+668733523
1954+668820883+669005974+668927527+668665602+668009753+667062090+667835725
1940+671174904+674373862+676260813+678271620+681062823+684343532+687972142
1927+691243016+693557008+696457698+700541239+704736342+710774678+719294118
1913+727125899+733154630+739481322+747434653+756009567+764252099+771863598
1900+778498545+784399196+790227469+795848216+800129142+803924250+809988094
1886+816946971+821701882+825043136+828182702+830548555+831926255+832851252
1873+832873764+830072342+826242966+826996394+830859116+832216839+830299461
1859+827256782+823824865+820099906+816540369+812730432+807790813+800944190
1846+792109119+785697911+784791353+783978072+780826827+777347889+773193430
1832+765813123+756408562+751114511+749632011+748014054+747086752+746461097
1819+744283793+741137235+737924140+733982741+730361814+729638658+730424817
1805+729211003+725097805+720783610+719698876+720364791+718477994+713774407
1792+712283379+717102138+721592204+722072567+720969623+720311238+720619186
1778+721655515+720465135+714967707+709510615+711476090+718517640+725047095
1765+727953625+726710461+726038399+727959848+730194855+732133745+730711790
1751+725112633+722623078+726927669+732305852+734722492+734983649+736184939
1738+737759025+734778350+731320617+737201675+746641425+754383157+759392925
1724+761812254+762490155+758348836+749679264+748916769+760422339+772542344
1711+779763377+781287520+779024086+778142115+777153807+772079884+771312933
1697+779508597+793054170+807798881+815947753+818083414+816447861+809659709
1684+808920034+824053214+838881597+844636187+844607452+846757327+850049637
1670+852291712+861207920+872915100+877827442+880394676+887826847+895056945
1657+893578978+880716378+874267905+888305058+895844795+896214363+905751615
1643+919321543+925735748+923243657+913758345+909686483+920804582+931514695
1630+934570666+935300737+935688822+933381055+933011179+934962286+932411340
1616+931717074+940512422+948363027+951302212+953424427+955973528+957717338
1603+959151357+961323360+963167822+963627824+964245180+966470813+969254794
1589+971321074+972592820+973992571+975883517+976945969+975550752+971219116
1576+970391543+976334683+978303769+975716174+977671123+982833865+986681605
1562+985344857+972531737+964573873+980967352+998197777+1008597022+1014768971
1549+1019029152+1019930485+1014630979+1004763036+996483393+1006688250
1537+1027865299+1037844419+1040127139+1045915613+1050140297+1047639831
1526+1042482083+1036514971+1032706187+1036166685+1041817627+1049075693
1514+1058447599+1062492416+1057013735+1044259008+1040470969+1055479679
1503+1067872905+1069768077+1065145166+1063585218+1069449218+1072298969
1491+1065913884+1060220530+1064818701+1071792637+1073741823+1072685979
1479+1071111970+1066557440+1057894015+1049845641+1050872365+1057242929
1468+1057174317+1050418510+1045344203+1042796254+1033786618+1015362586
1456+1006813028+1016696106+1024227161+1019723495+1008735245+1002090310
1445+1000803812+998913864+993160503+980430978+962258806+951497292+948241554
1431+943147654+938816095+939047133+939328497+937491103+934901126+934662251
1418+943089645+956026620+965320924+970733222+973733489+974129334+974793175
1404+979915119+985469942+986924398+987564036+989336044+993906632+1003722021
1391+1012621939+1014643272+1012370848+1010784084+1010504718+1011432481
1379+1013895914+1016743974+1020049576+1025216084+1030457811+1033420968
1368+1034029334+1031956600+1027921464+1026226443+1029472192+1034223108
1356+1036307214+1035119600+1032019142+1028470823+1026535620+1025287155
1344+1021211604+1014380809+1007422547+1001849591+998360894+997715186+999189926
1331+999904631+998966111+998711101+1000443233+1003004704+1005236407+1007386435
1317+1009530932+1011054922+1011952567+1013312057+1016623191+1021119481
1306+1024280945+1026275155+1028108630+1028701938+1028838317+1029973761
1294+1030309523+1029220102+1029379916+1032294360+1037213233+1043444498
1283+1049639727+1053137337+1053348475+1050990689+1046651216+1042859719
1271+1040173777+1035771839+1030148787+1026217069+1022923452+1017788370
1260+1012050222+1007732032+1004676445+1002513355+1000710536+998349676+996420851
1246+995814328+995242304+994363560+993406524+992167585+991460411+991365061
1233+991694676+992730543+992765964+990913280+989586521+990097386+990864491
1219+990868947+991196795+992516025+994378773+996615470+998115565+997679151
1205+996395112+995221175+993741210+992438807+992364202+992841107+992172195
1192+990518126+989269199+988322843+987068230+985971357+985132336+984212564
1178+983101860+981618515+980548072+979912430+977743577+974077395+971117849
1165+969574420+968676930+967526887+965462605+962710356+959984077+957781494
1151+956293155+954291338+950753314+947097965+944652589+943508924+943427865
1138+942983845+940661018+937013353+933299381+929541383+926084034+924181486
1124+922970284+920846302+919127770+918081529+915418484+911265179+906720637
1111+901453555+896399148+893114751+890562883+887199195+884760272+884588857
1097+884352748+882927489+882248896+882187276+881534730+882426689+885765023
1084+889005855+890975556+892489327+894133024+895111343+895349450+895656246
1070+895686211+896102955+897270976+898572380+901017679+904824389+908188232
1057+909009197+907997762+908615887+910820851+911679157+911185502+911168676
1043+912145766+913421508+913878282+913829493+915318755+917245505+915848444
1030+911604629+908282583+907774638+908415352+907837180+906541462+904926271
1016+902250625+899550546+898122213+896960262+893941862+889269778+884897190
1003+882338407+882164841+882476246+882297225+883728170+887085635+892028941
989+899526420+907953352+914438705+918782327+921825313+923320721+923328789
976+922789418+921318981+918769649+916585430+914236403+911055039+908722685
962+907315482+905377436+903575309+903715223+904701533+903487335+900739158
949+899076637+897874656+896401145+896038107+895650867+893202418+890791309
935+889713414+887125665+882375825+878231048+875489556+872399317+867834722
922+862833791+858582446+854556991+850658081+847553397+845392766+843707886
908+840581152+835869190+832496051+830431384+827430964+824357628+822223274
895+819861492+817529752+816335992+815954130+816034652+816439410+816829493
881+817839007+819922959+821597312+822475979+824519823+828295186+832766889
868+837072939+841435155+847945632+857814727+869421870+880989674+892664891
854+906141928+922265799+938924353+954071902+967755697+979488156+989434545
841+998758276+1006300856+1010530534+1012681792+1015209918+1019959758+1025767363
827+1027297884+1024200654+1024459505+1029470425+1032515102+1033374560
816+1035004273+1034078277+1030546016+1029707226+1029951249+1026470466
804+1021379485+1018124823+1015967188+1013322813+1009953977+1004548440+996390425
791+990188818+988702015+987595384+984994804+981226972+972995120+961653667
777+953660766+949598739+945110747+938384291+931121692+926789979+926273044
764+925301025+920984909+916181824+914224878+914959251+916334569+915772686
750+913053706+910877785+908928061+906091679+905429837+907603760+908371787
737+906605311+904578138+901908101+898691625+896207218+892575611+887678635
723+883842267+880134057+877289839+878827198+882664872+884828731+886265054
710+888981345+893640445+899233915+902664065+902927834+902340366+903617260
696+907151673+910186976+911390724+911088385+909135127+909208426+913818275
683+918612679+920191374+919013979+915475110+911238133+908983227+906302049
669+900707196+902521539+912915252+920047312+924088210+924964418+921166467
656+917946917+920068057+924293048+925512547+924055095+920678037+915786363
642+912792550+912545991+914258607+917822370+918725470+914767475+913566569
629+918744371+921357859+914571780+908210821+912791781+917959518+909925358
615+898765155+898299545+908454306+922462108+930911783+928673319+922139792
602+919436947+919704097
##END=
