##TITLE=Sample description
##JCAMP-DX=4.24
##DATA TYPE=INFRARED SPECTRUM
##DATE=13/9/2023
##SAMPLING PROCEDURE=Instrument type and / or accessory
##ORIGIN=Default
##XUNITS=1/CM
##YUNITS=ABSORBANCE
##RESOLUTION=4
##FIRSTX=4397.6552
##LASTX=599.8556
##DELTAX=-1.9287962
##MAXY=1.6652091
##MINY=0.26010999
##XFACTOR=1
##YFACTOR=1.5508468e-009
##NPOINTS=1970
##FIRSTY=0.29052317
##XYDATA=(X++(Y..Y))
4398+187331962+186934155+186600609+185698130+185246708+186652187+188485566
4384+188873592+188222988+187281441+186449065+186334591+186939209+188138511
4371+189852496+190975411+190605891+189312504+188093736+187457025+187154591
4357+186809688+186398275+185721229+185139459+185829573+187258727+187069979
4344+185096836+184006129+185095011+186581469+187007813+187039406+186913881
4330+186032214+184730180+184183442+184758332+185224820+184753855+184084245
4317+183657574+183213282+183165855+183674985+184023385+184371325+185066589
4303+185387663+184994641+184598506+184696166+184986993+185110768+184634518
4290+183759193+183837251+184702488+184808200+184407568+184346209+184204043
4276+183689282+183160397+183029492+183250409+183418575+183507971+183258499
4263+182677767+182810209+183893326+184973061+185043183+183867153+182569903
4249+182065616+181982292+182271793+183284807+184296956+184189918+183118351
4236+182803349+184170452+185415509+185078427+183934258+182898299+182672386
4222+183502226+184331565+184206003+183847167+184255659+184903573+185274169
4209+185527139+185166901+184182251+183463331+183301410+183510816+183857006
4195+183905798+183942694+184691419+185149413+184094699+182633280+182140830
4182+182413036+182543999+182514789+183048325+183569273+183020556+181948528
4168+181813645+182977126+183841460+183221660+182244812+182169425+182630071
4155+182644118+181978813+181434382+181722288+182110160+181939611+182249328
4141+183052072+182983372+182320969+181931886+181815855+182033216+182488193
4128+182586756+181888629+180945487+181137098+182586506+183650560+183527361
4114+182766741+181864473+181276285+180931382+180556577+180937724+182094671
4101+182308074+181583408+181562308+181712891+181162791+180954192+181412840
4087+181703878+181368776+180567685+180134442+180527964+180984901+180877921
4074+180456439+180191746+180508747+181188714+181422160+181224285+181360397
4060+182107066+183046461+183506050+183040619+182014384+181193519+180484015
4047+179692148+179573945+180446273+181467935+181594362+181103200+181466705
4033+182463442+182401064+181495857+181192000+181387512+181365855+181156545
4020+180890623+180961514+181400291+181548972+181511403+181852175+182627381
4006+183323240+183349836+182774466+181990670+181266600+180998045+181535924
3993+182328521+182583143+182762129+183374107+183851895+183794302+183452147
3979+183113316+182895974+182752597+182494054+182292163+182513175+182999898
3966+183502360+184098389+184737713+184846557+184525040+184695416+184766442
3952+183708556+182567117+182652036+182707534+181512364+181284356+183172888
3939+184756045+184645549+183370494+182485311+183516081+184956419+184165532
3925+182378523+182345297+182772698+182272773+182845587+185591938+188197429
3912+188760328+187607973+184536897+179349820+175329164+175350360+178462291
3898+182886923+185248630+183412752+180853208+182180186+183685458+182736474
3885+182371874+181526315+180997930+184026768+184873326+181357784+177970380
3871+176428884+178270181+180969950+180915202+181830094+185182966+186258031
3858+182221041+173178592+167721269+175542279+185063284+189684926+188961855
3844+184470541+179657711+176369178+176156870+179362330+182381732+184254141
3831+186327327+187558336+187041462+184391118+178795645+176285930+179878820
3817+183141276+186948376+191242544+191954834+188551538+184772802+183485065
3804+181542880+181224285+185481537+188488583+190754418+194194879+196225270
3790+196639219+196185721+195109657+194780416+194433552+193433932+194868698
3777+198463970+199996030+198119451+195889494+196938617+199795310+202608247
3763+204147744+202963969+203016258+207007013+209950374+209891244+216684654
3750+241076911+269384689+295277414+321382331+335689820+336000363+328490474
3736+320317643+319696056+328088958+338274134+343651919+345533821+348446051
3723+352650496+356588058+360553023+365153027+369738157+376937580+393886227
3709+419844404+449639063+481041631+510138720+530807932+540269327+539852245
3696+532810631+520866809+502656349+483668645+475783029+475489434+471232066
3682+461161383+450586375+440475606+427401567+418068195+413728963+408248138
3669+406529463+407674747+405687921+401337236+396134170+389304018+381740744
3655+376006833+368184978+355092376+346343540+350048541+356923622+360035745
3642+359427226+357392935+355231044+353238415+351223764+347153567+339901106
3628+336861699+338871777+336947560+328399002+316522439+308192338+303687169
3615+298723026+295211385+294730177+295907033+299081823+302443073+302637374
3601+299671164+295749225+292167577+289813000+288543960+285287192+277778609
3588+270908370+269951816+270324083+268386664+265284188+262363598+259812048
3574+257533896+254756933+249865564+243634111+241148475+242998919+244282659
3561+243708134+242619771+241103411+238721008+236494376+235251836+233588756
3547+231306933+230259713+230385699+230065528+228912385+227633160+226584614
3534+225679849+224680229+223349600+221901094+220552324+219606243+219474165
3520+219645310+219352696+218761376+218032578+216813214+215403854+214374044
3507+213172936+211663725+211425763+212548236+213074777+212527809+211740515
3493+211097002+210456468+209912824+209625245+209147111+208525986+208348576
3480+208377690+208065513+207476306+207121833+207100406+206866249+206454452
3466+206288458+205962233+205262453+204858112+204920144+204894067+204587175
3453+204234123+203638710+202619431+201968827+202098694+202371496+202709481
3439+203293845+203789312+203924425+203513993+202702064+202254197+202603962
3426+203031363+202747819+202299952+202345457+202492543+202506398+202618586
3412+202786637+202905723+203106712+203461031+203997180+204560521+204476505
3399+203621376+202997868+203321729+204344562+205331768+205680534+205460886
3385+205287358+205628322+206137452+206341438+206477590+206709536+206940830
3372+207378320+207987319+208243268+208188366+208369196+208536305+208354091
3358+208376229+208809338+209240371+209769294+210412384+210396550+209807036
3345+209636006+209765258+209631240+209313337+209074568+208917105+208295711
3331+207392675+207212056+207711059+208021564+207436393+206214896+205439382
3318+204887668+203596395+202292496+201981683+201984796+201434062+200394548
3304+199008574+197422534+196256382+195794659+195560560+195384284+195383400
3291+195346831+195008730+194444371+194238309+194655487+194883245+194266078
3277+193530920+193561686+194374307+195537154+196110065+195590077+195042667
3264+195688659+196968998+197455510+197154133+197049382+197343130+197503533
3250+197556495+197999442+198457090+198610940+198986167+199489955+199611847
3237+199709968+200271022+200768334+200737164+200800407+201450281+202199640
3223+202671009+203283487+204286739+205338744+206180478+206683671+206856852
3210+207162419+207917928+209041035+210520748+211881221+212554424+213127200
3196+214142136+215148924+216048827+217081923+217975255+218590980+219424432
3183+220608072+221289058+221340809+221908512+223282994+224540215+225074692
3169+225531226+226612767+227785377+228600015+229265590+230041603+231192459
3156+232469127+233222311+233356348+233482333+233820722+233970709+234089162
3142+234616874+235386507+235925443+236003694+235881955+235943737+236099816
3129+236030636+235706928+235331259+235220724+235486838+235658733+235280661
3115+234585244+234074922+233811882+233378370+232375445+230950788+229633534
3102+228735840+228260820+227945933+227439455+226869849+226769077+227141575
3088+227612156+228233589+228822508+229024399+229176212+229494904+229766668
3075+230011548+230396787+230901017+231343618+231586000+231584385+231343676
3061+231005979+231047141+231585635+231919719+231689271+231153756+230530786
3047+229942944+229365363+228739798+228079067+227373099+226645474+225678407
3034+224104186+222386434+221383490+220954667+220387387+219376025+218258760
3020+217594973+217369829+217077484+216306621+215144004+214078086+213317331
3007+212768000+212414257+212168589+212003728+212157097+212691690+213661082
2993+215626327+218865838+222552314+225425803+226976426+227704704+228315376
2980+228962886+229450705+229745356+229658631+228742008+227143900+225548675
2966+224214356+223126877+222396696+221877362+221411854+221098408+220869940
2953+220593833+220376471+220484739+220924419+221346075+221471810+221164726
2939+220491638+219683648+218879136+218141922+217491837+217049177+216885412
2926+216854185+216793805+216463526+215824663+215232709+214821796+214413650
2912+214073378+214172383+214756651+215339112+215799489+216405953+216908395
2899+217168226+217481536+217825633+218171881+218563423+218924738+219299735
2885+219644926+219979260+220400761+220772914+221069295+221340905+221477364
2872+221437297+221230620+220949286+220746453+220612012+220493905+220242569
2858+219726444+219246946+219035330+218736067+217979309+217106520+216855318
2845+217263791+217780127+218202532+218602587+219097132+219820683+220653270
2831+221403821+222059345+222572587+222823001+222858725+222834512+222903674
2818+223272713+223765105+223987713+224183551+224668142+225168970+225519830
2804+225926516+226563514+227353460+228022839+228516864+228934196+229199580
2791+229344302+229496998+229618468+229601730+229472113+229368668+229258249
2777+229041176+228779904+228543979+228289049+227980331+227799193+227914341
2764+228124361+228069459+227760625+227519397+227450274+227500699+227638291
2750+227802403+227892645+227784531+227564729+227425638+227363183+227179202
2737+226774784+226498196+226602544+226725416+226607021+226453959+226330357
2723+226134730+225929821+225768823+225679657+225618451+225458817+225382834
2710+225557534+225707329+225679426+225589472+225433566+225265727+225133419
2696+224922976+224721122+224585375+224276176+223863419+223773445+223915035
2683+223768103+223346736+222950505+222561365+222142015+221672395+221129597
2669+220699794+220466464+220252216+219931698+219533622+219136411+218736086
2656+218328863+218051007+217986842+218070993+218179952+218250286+218321541
2642+218344236+218237026+218061250+217947794+218027409+218186582+218133678
2629+217969739+217993530+218193980+218531331+219041922+219583432+220032394
2615+220389693+220631767+220897516+221374535+221920273+222340525+222650704
2602+222962842+223461268+224282287+225303180+226194110+226756778+227015993
2588+227149492+227424773+227888648+228376466+228794739+229151980+229454472
2575+229671448+229826355+229958567+230069563+230236749+230483051+230566164
2561+230373458+230121506+229898130+229747585+229850568+230207905+230562397
2548+230658577+230575772+230581845+230720513+230889410+231012666+231039301
2534+231053271+231155428+231248091+231269326+231239079+231163441+231173895
2521+231328052+231502541+231629334+231767598+231970759+232207625+232433134
2507+232499528+232379904+232446893+232860189+233298582+233549861+233682688
2494+233825238+234124328+234679252+235389448+236012898+236390662+236606832
2480+236853884+237062078+236992571+236709873+236498546+236387703+236244192
2467+236148223+236193786+236263851+236262179+236222611+236187752+236224802
2453+236385820+236602662+236901080+237273233+237456888+237435865+237482331
2440+237701364+237976376+238132839+238210571+238328216+238422571+238459044
2426+238483257+238508412+238517963+238525457+238675137+239012815+239333659
2413+239547907+239739940+239888890+239967717+240073429+240300245+240640075
2399+241003907+241440186+242327503+244445694+249430630+260116193+279498744
2386+308977287+347643788+393043570+442888468+496201539+552596101+611511178
2372+672060760+732285078+788898635+837588719+871441275+887500299+891131891
2359+881643939+851074535+804999629+751845097+700455821+672748337+682391408
2345+722338075+757968570+764044463+753382595+741241493+733556769+731409484
2332+732268859+731806810+726586757+714534207+696771190+676233497+654086435
2318+629034869+603694896+586318060+578545131+569678381+549606350+519659379
2305+489314658+466698937+450676963+435829097+420599509+404832120+387845039
2291+370688313+355045679+341250280+329469032+320750271+315434441+312489888
2278+310700880+309354416+308095216+306850255+305741926+304801782+303937429
2264+302989118+301891243+300711888+299507994+298366304+297320526+296343044
2251+295366522+294260403+293089907+292152166+291497833+290880686+290248972
2237+289731943+289419747+289270913+289094387+288829022+288652209+288661625
2224+288704305+288776138+288982046+289150962+289199061+289257999+289380410
2210+289597637+290000152+290587802+291210081+291747940+292195365+292671750
2197+293298890+293998151+294730792+295556365+296342160+297043208+297847585
2183+298779100+299778778+300814083+301728880+302517942+303376183+304315347
2170+305237927+306141059+307082932+308173851+309325034+310323040+311264625
2156+312316476+313393828+314426212+315530717+316703999+317830450+319006557
2143+320317950+321603497+322734118+323905613+325321622+326843363+328307568
2129+329694906+331054803+332529693+334214276+335957433+337591592+339293202
2116+341178908+343057044+344910120+346918046+349140854+351623358+354472480
2102+357632953+360975217+364562764+368606864+373261789+378512167+384195998
2089+390134068+396322341+402769388+409358600+416132640+423297088+430758359
2075+438043181+445075417+452089244+458854175+465255601+471702148+478381141
2062+485012361+491441344+497678427+503682026+509672097+515925131+522399157
2048+528931680+535658984+542627191+549446774+556145945+562811947+569203880
2035+575432124+581667977+587976740+594122351+599715941+605163098+610910884
2021+616339631+620918381+625221332+629899663+634768895+639111508+642622957
2008+645773476+648933487+652027470+654838043+657368973+659817425+661931043
1994+663518659+664957844+666403102+668007935+669970894+671630918+672635881
1981+673472042+674145322+674505061+674539190+674338182+674130871+673563591
1967+672913371+673394253+674501525+674958270+675015613+675080489+675151514
1954+675617637+676608686+677639783+678145570+678052330+677929342+678991724
1940+681885237+685504146+688832343+691801493+694618293+697871468+701940204
1927+705844059+708916365+712747659+718010527+723455417+729490493+736480107
1913+743183544+749492268+756071641+762937883+769978536+777195370+784505289
1900+791335711+797074541+802453863+808078161+812937938+816916201+821858994
1886+828159724+833886947+838049000+840796849+842344263+843502191+844608157
1873+844501696+841900663+838890311+839657139+842549653+843625640+842535586
1859+840203204+837122903+833812386+830560748+827001104+822224421+816252529
1846+809721736+804134180+801506936+799820699+796829796+792701026+787431317
1832+780296885+772124516+766622436+764122560+762232011+760695128+758743930
1819+755835121+752459420+748504140+743970511+740263742+738669977+737783929
1805+735751559+732239342+728506747+726952184+727330678+726442016+723178849
1792+721577089+724339313+727060182+727049344+725840069+725003984+724981154
1778+725620228+724857168+720873831+716667426+717979626+722974997+727001148
1765+728143933+726971324+726993846+728985629+730751423+732010355+731406332
1751+728467467+727371110+730353251+734199226+736047344+735713510+736400934
1738+738877519+738457055+736535989+740403564+747125142+752884880+756901653
1724+759533818+761045489+758994978+753433942+753171364+762023624+771643173
1711+777892171+780223016+779395386+778924113+779158866+778065276+780378595
1697+787402261+796273277+805920114+812392411+815462257+815842443+812287564
1684+812875983+824998405+836949568+842826913+844874502+847665243+850827868
1670+853707468+861387580+871230582+876480229+879270740+885245322+891633988
1657+891959982+884362502+880034032+888729406+894370154+896788166+905371237
1643+915140831+919998071+920287092+916332581+913969990+920695026+928197344
1630+930399667+930902840+932612982+933398104+935238997+937496203+935927420
1616+936225204+943074458+948180824+948676003+948028012+948918365+951476507
1603+954409991+956745217+959309815+962221392+963899865+964229932+964493356
1589+964996452+965620537+966512889+967835082+970231495+972427668+971356985
1576+970533122+974187082+975242700+973354226+976798954+983292697+986467006
1562+984385364+974350886+968726588+983646209+1000594356+1010550507+1014936551
1549+1018510723+1021486714+1020036614+1013368997+1007304096+1016119614
1537+1032796036+1041332679+1043501872+1046656811+1049356388+1048093536
1526+1044819914+1041066488+1038593823+1041144892+1046194992+1053138178
1514+1060576620+1061780822+1054864539+1044198289+1044219812+1060694226
1503+1073238420+1073741823+1065954097+1060322420+1061090938+1061041436
1491+1057288931+1056576987+1062534812+1068920326+1071698769+1070623935
1479+1066835303+1061201089+1053305364+1045058433+1044354099+1050588262
1468+1052634467+1047889915+1043781285+1041992815+1035474705+1022091352
1456+1013998463+1018248759+1022331562+1018960781+1009543316+1001067397
1445+998218544+996089168+988360169+975747487+961659492+953433854+951171882
1431+945868351+937542477+933292565+934020114+937319178+939596984+939433718
1418+943569098+954183463+963803012+967348128+967379029+968968489+972541893
1404+977303894+982481440+986104346+988411823+991248685+996063571+1003095693
1391+1008455414+1008624368+1007079798+1008326431+1010237273+1012359269
1379+1016331076+1020239083+1022182978+1024070606+1027954707+1032666822
1368+1035953280+1035134413+1030581107+1028376554+1031343937+1034930254
1356+1034643770+1030614390+1026422282+1023841311+1021954990+1019289311
1344+1015348175+1010700475+1006241638+1002184662+997952891+994240973+992074854
1331+991729105+992570340+993202804+994426146+997281225+1000146144+1003355735
1317+1008479473+1013037392+1015232182+1016636469+1017639049+1018468984
1306+1020785685+1024419507+1026526514+1026262552+1026158858+1026825451
1294+1026707460+1026008736+1026551573+1029911439+1035198444+1039501855
1283+1041615627+1042089437+1041950845+1042612595+1043535079+1042404131
1271+1039206916+1035671024+1031061065+1023805952+1016297408+1011467840
1260+1007754615+1003501398+999661880+996777591+994822166+993424873+992008979
1246+990437121+988781862+987302629+985760442+984231476+983827078+984117559
1233+983379864+982244766+983002677+985055877+986229947+986803300+987206545
1219+986873249+986260464+986293593+987009996+987535153+987652836+988176840
1205+989664836+991731027+993250000+993491978+992228896+989836019+987868526
1192+986662172+984761630+982358837+980642392+979510522+978728167+978271499
1178+978179566+978168958+976992813+974525529+972119815+970075531+968049849
1165+966305886+964876847+963590935+962177424+960171497+957911216+955977698
1151+954185308+952306288+950186675+947388400+944301489+941926369+940090165
1138+938099303+936022966+934086219+931323919+927107213+923433575+921056917
1124+917954402+914203512+911698871+910390821+908452383+904697189+900450351
1111+898156249+896739586+891964671+884462122+879856699+879737017+881235082
1097+882431674+882901103+882923932+882560273+881846715+882077470+883195273
1084+883433485+882767507+883438481+886619324+889858586+891605393+893856450
1070+896192906+896484771+896782094+898538663+899500887+899827804+900971511
1057+902099691+902925476+904561902+907595314+911493020+914442262+914414897
1043+913527004+914698383+915518249+914331573+912938585+912063913+911289476
1030+910241468+909281473+908401881+906423703+902438676+897280347+893466964
1016+892472533+892868706+891883807+888631477+884811561+882286395+880724453
1003+878666564+876855342+875997350+874590679+873264412+875148274+881999834
989+892688683+903148237+910465459+915809345+920004221+921559475+919616041
976+916237112+914200130+912458857+909141037+905947357+904434303+903621201
962+902511469+900724614+898309445+897002395+897891441+898191454+895703032
949+893028513+892141158+891572802+890503117+889340654+888409715+887383384
935+884965603+881145071+877054197+872718424+868071032+863888609+860216585
922+856637801+853164478+849163386+844914780+841445762+838162071+835006902
908+832571595+830386951+827447856+822793623+817750825+814603804+812901426
895+811307276+809763782+808536059+807587441+807035226+807835261+810329064
881+812844236+814632399+817022354+820075290+822684702+824766189+827533025
868+832158203+837668891+843967545+853387778+865154766+877165578+890992531
854+907533820+924871914+940936934+953398418+962828950+973054290+984349391
841+994890193+1004251084+1011477602+1016621788+1020248922+1021630610+1021258880
827+1021997651+1025469513+1029313258+1030773121+1029515573+1026528359
816+1023242669+1021779271+1023237904+1024557330+1024111730+1023647606
804+1021155878+1015924986+1011983773+1010925619+1011029543+1011633259
793+1014025751+1013314345+1002838264+990070311+982889989+976499863+967801414
779+960386417+954551657+947557508+939704137+932498373+926378051+922765983
766+921318112+918306223+913362738+911030741+912403282+913264579+911687417
752+908863392+905961885+904781896+905729285+906848779+905911691+903235558
739+901943651+902024054+900763355+898435969+895639078+891608699+886717099
725+882631529+882021511+884703639+886545147+886915032+888462754+890540014
712+891356113+892074130+895284489+901620117+908039606+910592905+910008253
698+910548783+914406211+919977240+925152557+930138088+935011009+938910406
685+940963684+939495827+935162207+931472042+930318188+930985319+932777478
671+935445001+935481283+927851134+918974046+915112467+916936296+921469002
658+923515823+925275390+930045079+932136636+927469796+921411198+918747441
644+920316609+924228151+926703507+927274630+926762618+925117044+925622446
631+929674348+929471419+921848650+915669908+915117387+915140216+912901458
617+912794228+915688818+915077800+915911809+927425828+941637118+942471281
604+932613059+931968527+942363052
##END=
