##TITLE=Sample description
##JCAMP-DX=4.24
##DATA TYPE=INFRARED SPECTRUM
##DATE=13/9/2023
##SAMPLING PROCEDURE=Instrument type and / or accessory
##ORIGIN=Default
##XUNITS=1/CM
##YUNITS=ABSORBANCE
##RESOLUTION=4
##FIRSTX=4397.6552
##LASTX=599.8556
##DELTAX=-1.9287962
##MAXY=1.8319105
##MINY=0.44679555
##XFACTOR=1
##YFACTOR=1.7060996e-009
##NPOINTS=1970
##FIRSTY=0.46843866
##XYDATA=(X++(Y..Y))
4398+274567004+273804556+272821452+272934959+274823156+276853666+277039894
4384+276201145+276417540+277669077+277929928+276592011+275020738+273922449
4371+273130183+272220601+271357799+271549005+272763597+274189361+275538964
4357+276653429+277023037+276284363+275006624+274374349+275058714+275777701
4344+275070767+274365440+275129005+275955299+275499556+274420272+273267465
4330+271954877+271040911+271033784+271160148+270954915+271881249+274154635
4317+275246915+273996409+271917932+270717855+270926425+271883362+272928322
4303+274137935+274626536+273243097+271067270+269710994+269865831+271226457
4290+272227431+271833613+270942390+271142680+272073310+272078673+271351144
4276+271312644+272007578+272290020+272020993+271809088+271758867+271964764
4263+272480894+273069429+273400380+273155162+272133191+270862177+270353418
4249+270823695+271655526+271814014+271308155+270932678+270284751+270016738
4236+271565373+273561593+273928196+272999626+272361482+272582086+272722827
4222+272168022+271699510+271984293+272392889+271888900+270368860+269185763
4209+269426945+270029141+269906305+269484607+269232875+269426509+269978483
4195+270456463+270757194+270883802+271098678+271175904+270489600+269784343
4182+269813934+270018904+270047639+270095659+270360860+270678046+270418225
4168+270053404+270484447+270606217+269663935+268819003+268474217+268425359
4155+268771926+268733042+267831758+267204077+267230104+267270910+267639364
4141+268234049+268299012+268051751+267739893+267373849+267480387+267764174
4128+267152598+266236728+266306810+266870488+266881528+266487046+266170786
4114+265914581+266166803+267083669+267301619+266564203+266645587+267955083
4101+269054455+269281331+268736256+267679436+267072752+267343001+267775511
4087+267757187+267455093+267245581+267011439+266683789+266646320+267428385
4074+268836034+269772726+270033141+270088777+269379467+267725255+266564744
4060+266577671+266763217+266818154+267036645+267041012+267186644+268187094
4047+269065722+268749253+268157329+268303641+268473169+267795564+267388348
4033+268566729+269851717+269571546+268599341+268103981+268498987+269371554
4020+269477236+268929698+268926991+269265313+269215669+269199231+269746978
4006+270325644+269985383+269128904+269077007+269507333+269557205+269788552
3993+270599684+271261113+271215627+270944941+270899611+270822839+270461843
3979+269921048+269612264+269829533+270515522+271110800+270844953+270260383
3966+270541707+271454887+272165262+272426935+272255590+271656888+270818315
3952+270432881+270627074+270694151+270606269+270817301+271698043+272935658
3939+273631186+273119475+271097909+269322713+270209429+271950387+271939033
3925+271411095+271914927+272221632+271534856+271401015+272768104+273814374
3912+273612460+273145153+271729224+268165609+265058872+265700056+268757830
3898+271981149+273878883+273153188+271266773+271618389+272627923+272009796
3885+271310740+270812201+271278145+273796591+273883303+270276506+267300344
3871+267001587+268791438+270329959+270616313+271797996+273860280+274464676
3858+272388976+266693973+261881284+266796459+273934886+276824774+275372528
3844+272093032+269491298+267810552+267862153+270583596+273337267+274466755
3831+274864399+274989662+274959617+274225503+271368542+269728602+271508060
3817+272994334+275323303+278383645+279173972+277286928+274905257+273877102
3804+272042619+271135500+274288039+277474360+279912401+282312605+283223934
3790+283013670+282760243+282731735+283124890+282892948+281904655+282751631
3777+285265675+286432894+285515417+284468064+285017331+286363284+288443193
3763+290549497+290514997+290019323+291590474+292606628+290817702+290661782
3750+297790514+306301323+316918471+337135738+357285019+369394851+374212624
3736+372717878+370169177+370956569+373140047+373808412+373785319+376054006
3723+381555900+389210038+397657507+405608778+411158778+415015106+422747606
3709+435588583+449142678+461499019+474548950+490803543+506501428+516157096
3696+519006423+516320318+509472787+502175662+499147461+498583451+496552959
3682+492332875+486116013+477536764+468152375+464273303+462760740+457725245
3669+454329726+453634006+450908878+446362280+441091559+433780215+425115582
3655+419155675+413284367+402202847+391075945+389425874+392264231+392616178
3642+389700298+385361710+380639069+375454361+370028140+364341679+357485379
3628+353831995+354835118+354491870+350551835+344642131+340804529+339547210
3615+338041669+336161262+334056181+331741937+331022112+331008277+329087485
3601+326296117+324641294+322940739+320744335+319523943+317597980+312622471
3588+308902883+310832235+313475962+313131771+311113226+309170983+307883724
3574+307029918+305498350+302483145+299151664+298538149+300275631+300954128
3561+299994500+299053179+298521694+297360939+295838419+294864817+293737356
3547+292350318+291895274+292240095+292153645+291496565+291007458+290653345
3534+289993417+289074420+288113710+287193909+286370096+285947036+285982758
3520+285865548+285263474+284598446+284017719+283497082+283387505+283484139
3507+282983625+281957287+281632764+282129435+282270420+282003979+281842207
3493+281744979+281579347+281252484+280858980+280606059+280490927+280525514
3480+280526597+280096899+279575616+279614238+279913589+280002781+280113651
3466+280005436+279306153+278765795+278793971+278977648+278980128+278717932
3453+278704778+278952301+278941244+279120310+279649750+279816326+279573659
3439+279248211+279080273+279329717+279860852+280451728+280773054+280441946
3426+279697246+278880577+278296828+278529783+279569904+280535278+280985938
3412+281395443+281765994+281652626+281348157+281355528+281624030+281808843
3399+281915538+282395946+283259464+283899792+284057127+284138599+284471838
3385+284830196+284999339+285158858+285415010+285628575+285766870+286105088
3372+286624152+286742446+286446030+286288817+286260903+286192987+286310547
3358+286649324+286985934+287181385+287005097+286458607+286078623+286252501
3345+286742237+286946613+286826433+286750517+286414710+285704946+285034677
3331+284316389+283641194+283449290+283241332+282414602+281745940+281674356
3318+281203713+279763887+277863654+276313273+275357645+274739362+274500608
3304+273870132+271789558+269513150+268813797+269233241+269744411+270524938
3291+271595191+272058952+271936221+272267940+273239865+274196488+274695325
3277+274921118+275469109+276641673+277838116+278324707+278425271+278513014
3264+278497100+278463981+278208614+277939082+278421184+279288545+279745021
3250+279849551+279663865+279405931+279703552+280363707+280865722+281189057
3237+281359930+281737695+282667819+283518236+283595009+283412869+283670471
3223+284399554+285519225+286670076+287509645+288035750+288283919+288686506
3210+289433984+290222232+291236482+292267380+292588880+292809328+293719259
3196+294822369+295945079+297247152+298266870+298758073+299092692+299615547
3183+300159643+300645187+301372314+302338195+303303867+303980686+304164660
3169+304156066+304403484+304963267+305759777+306761154+307768190+308716463
3156+309498196+309953449+310469212+310993046+311142328+311576620+312599448
3142+313100433+312684412+312579709+313032622+312855635+312249177+312200825
3129+312419910+312421622+312342422+312249107+311999279+311716819+311497036
3115+311129681+310741785+310398956+309775869+308861553+307845853+306916620
3102+306212585+305491816+304499838+303686907+303701511+304338817+304902722
3088+305173373+305546911+306220201+306717868+306760595+306745782+306976885
3075+307126866+307019996+307216687+308051383+308891738+309039833+308802825
3061+308631463+308525572+308634747+308738089+308484871+308143754+307970680
3047+308082650+308351170+308102320+306974020+305449544+304248577+303713983
3034+303385513+302464979+301325080+300810505+300294218+298986730+297626314
3020+297077397+297067021+296927415+296531344+296069208+295465231+294719902
3007+294245118+294217379+294224366+294105513+294280090+294874424+295868569
2993+297606820+300010466+302607763+305116252+307034425+308113918+308803140
2980+309354258+309788585+310050118+309693524+308517536+306954106+305536570
2966+304475487+303734735+303241436+302840578+302460122+302180912+302020590
2953+301829419+301430378+301242002+301840249+302720956+302987205+302568634
2939+301807270+300915139+300197479+299748409+299286063+299029702+299182268
2926+299207247+298860296+298225540+297432872+296886540+296674792+296449907
2912+296012157+295711077+295875836+296306879+296982615+297879916+298561277
2899+298921120+299204767+299436010+299560103+299737824+300123904+300679808
2885+301231696+301460039+301328294+301299402+301647611+302085222+302176580
2872+301975453+301868163+301855796+301784806+301693762+301622527+301562716
2858+301415076+301137612+300844707+300569305+300148638+299585257+299259966
2845+299276666+299417389+299691219+300072827+300416040+300839187+301481385
2831+302087039+302588338+303152209+303407767+303251672+303280879+303627656
2818+303993088+304273766+304420987+304501655+304726155+305123170+305675791
2804+306456929+307401849+308342401+308994520+309163297+309168712+309511401
2791+310172884+310526333+310338027+310275666+310580449+310653885+310427743
2777+310388405+310433298+310284086+310269308+310473440+310503101+310472077
2764+310667895+310882054+310987386+311178173+311417032+311446483+311326302
2750+311367073+311593634+311762446+311786971+311731213+311631959+311479148
2737+311307856+311311734+311472056+311515133+311509613+311737012+312082811
2723+312122114+311973426+312216128+312646192+312592914+312283100+312323452
2710+312486359+312400730+312392241+312671521+313006315+313200106+313118041
2696+312882361+312865068+313028464+313044954+312970051+312921000+312771718
2683+312557314+312346614+311954420+311376436+311033083+310983054+310816583
2669+310621499+310604171+310556239+310286566+309605869+308780955+308418807
2656+308334191+308123386+308007014+308200595+308484522+308526061+308320217
2642+308151754+308074510+307824891+307398110+307146919+307188912+307296830
2629+307370371+307507601+307578067+307459563+307538100+307979169+308278188
2615+308228579+308273262+308669998+309126649+309447538+309773772+310087604
2602+310335162+310624783+310972294+311422377+311978072+312482237+313031713
2588+313701615+314142405+314314641+314641189+315167084+315631002+316005693
2575+316295558+316376086+316338984+316385973+316522085+316757135+316955503
2561+316849786+316641007+316643523+316774604+316908060+316992745+317040887
2548+317172771+317424102+317727838+317947936+318049321+318138024+318133412
2534+318060815+318125517+318270467+318470023+318776693+319014853+319180625
2521+319501898+319871034+320057314+320187591+320413733+320637115+320815465
2507+321121995+321520268+321783512+322013148+322348256+322684936+322851372
2494+322808750+322904091+323401652+324102228+324742015+325169739+325468024
2480+325848829+326155044+326149070+325980433+325919435+326020470+326033571
2467+325874646+325786188+325769034+325746465+325830347+326019422+326193963
2453+326330634+326511708+326672065+326652361+326490851+326359351+326460282
2440+326956481+327766197+328421321+328521518+328355082+328350785+328437252
2426+328470721+328534864+328742175+328962064+328968527+328903650+328999131
2413+329162493+329233972+329296298+329579247+330016927+330322899+330518122
2399+330735006+330882891+330972537+331215169+331591921+331810517+331674965
2386+331117138+329954252+327850428+324688353+320803342+316676363+312690282
2372+308944107+305151573+301019144+296713711+293250974+291717816+292044819
2359+293628110+296393975+300626810+306566769+312951500+316495149+315206911
2345+310892674+307795510+307229718+308078563+309873271+311985129+313582762
2332+314686606+316282073+318730856+321181771+323192594+325393784+328384778
2318+331750287+334450646+336326720+338305088+340788318+343313647+345595470
2305+347579462+349128534+350414256+351871410+353538181+355040403+356231658
2291+357476610+358932366+360236255+361288953+362194010+362969000+363834056
2278+364877879+365877858+366645058+367213924+367872192+368788883+369682062
2264+370353256+371048871+371832595+372566011+373314624+374085701+374846401
2251+375575939+376068400+376327312+376774880+377563530+378324510+378831155
2237+379227471+379637098+380034288+380371842+380601687+380818047+381278087
2224+381921332+382389058+382664565+382994363+383354625+383618498+383906303
2210+384409279+385115864+385794220+386266453+386590521+386971850+387597662
2197+388456219+389329659+390015073+390649898+391473345+392303674+392941748
2183+393598060+394421751+395218925+395843515+396452243+397234849+398180258
2170+399245358+400448037+401691521+402773705+403562739+404187224+405021395
2156+406185225+407356147+408383097+409440231+410547849+411704202+412983671
2143+414320644+415664291+416988967+418311232+419644188+420914713+422244805
2129+423735183+425269162+426838322+428470506+430097206+431678314+433250897
2116+434907502+436611515+438284296+440151741+442314187+444370183+446152139
2102+448097631+450475704+452961904+455328098+457743238+460248408+462884240
2089+465907375+469240917+472501024+475668375+478997901+482574739+486286536
2075+490030859+494034373+498526086+503291105+507953656+512292593+516706957
2062+521825670+527426468+533014059+538602490+544332726+550318276+556584608
2048+562748054+568541909+574421357+580723674+587189422+593632707+600029456
2035+606435428+613015732+619641733+626112267+632554993+638940772+644984386
2021+650592835+655919138+661342146+667128909+672816174+677656375+681776961
2008+686064262+690752142+695277079+699382362+703424481+707655186+711279048
1994+713817164+716526117+719713766+722452974+725209790+728079101+730392856
1981+732548070+734379775+735287767+736252007+738073091+739704612+740261215
1967+740578716+741290366+741924808+742730716+743840919+744348612+744279997
1954+744562841+745450989+746521574+747351937+747681945+747503840+747773617
1940+749084005+750394881+751407612+752825602+754729975+757049250+759710899
1927+761778913+762646030+763656315+765888738+768853774+772618150+776792537
1913+780568652+784627680+789605810+794861543+799930017+805436522+811259060
1900+816366943+821080116+826063696+830902710+834952025+838889895+844332955
1886+850521205+855799786+860204054+864008257+867314759+870337160+873476458
1873+876230199+876880781+876182127+877436546+880654031+883686983+885553065
1859+885842966+885148294+884946992+884718020+882603192+879198030+876333471
1846+873662458+871078367+869963133+868675944+866234043+864428120+862762572
1832+858842660+853425242+849919953+847996715+845969716+844758548+843786064
1819+841786385+839303050+836604857+832648052+828126399+825553627+824716276
1805+823836024+821931022+818957043+816825375+816604858+816201205+813527887
1792+810758424+811519754+813602580+814274124+813964380+813736316+813942649
1778+814474309+814123340+811331238+807360249+806736987+809565003+813045278
1765+815395786+815789657+815615674+816097235+816879317+817642254+817070418
1751+814780490+813613131+815447352+818402466+821118406+823318688+825285108
1738+826950796+826087522+823957741+826373650+831355972+835785813+839265249
1724+841965888+843868583+843464092+840458251+839445310+843689850+849964182
1711+855347432+857746781+857389104+857585865+858444317+857688927+858880251
1697+864234364+871544486+879167006+883608796+885013021+885653472+884852734
1684+886177445+894918833+903918888+907937041+908426916+910311375+913444105
1670+915944349+920869306+927453034+931906911+935210897+940440777+946032107
1657+947764105+943622837+941543574+949378087+954230587+954509098+958678804
1643+966429121+971784842+972188355+967817905+964621662+969089513+975566197
1630+979543264+981635384+983070913+983941034+986136145+989629766+990869442
1616+990588974+993357529+997594033+999837706+1000400039+1002348012+1006113296
1603+1009073650+1009671618+1009628437+1010583942+1011951695+1013009563
1591+1013303796+1013799680+1015823465+1017894553+1019316946+1021910889
1580+1024709838+1024450122+1022684656+1023671464+1024049404+1022101710
1568+1022798408+1026063686+1027478951+1026427931+1022210921+1018779697
1557+1024451450+1032579637+1039173427+1043757755+1046683383+1047341791
1545+1044569254+1040185598+1038443679+1043442351+1051160388+1056392015
1533+1059063027+1059863206+1059043253+1057836976+1056662910+1052208893
1522+1046779458+1048510756+1055333168+1062916491+1068535909+1070031528
1510+1068878424+1064712142+1058804849+1060781749+1066848141+1069117527
1499+1066295171+1064836375+1068045265+1070616360+1068725892+1064854681
1487+1065840721+1069936851+1070742550+1068701018+1067970991+1067959602
1476+1065384943+1059127100+1054493442+1054664908+1053878355+1050713274
1464+1048761249+1046967135+1040851552+1029983528+1024005454+1025710061
1452+1025098398+1018701649+1009774121+1004567229+1002932844+1000142489
1441+994578759+985786644+974571982+966030779+960309416+953797098+948456610
1427+945935823+944108101+943685443+945085616+947662021+953672306+961400404
1414+967799808+972653426+976137194+979128292+982483076+985761909+987322509
1400+987801205+991248919+997427597+1002536877+1007387909+1012076627+1014325051
1387+1014890179+1015525808+1015884184+1017000955+1020239820+1023112066
1375+1023541990+1024159802+1025902141+1027729584+1030709852+1033225188
1364+1033047433+1032814129+1034948941+1037260600+1037254660+1037105273
1352+1037695346+1034117808+1027119318+1021955817+1017648672+1011135865
1341+1004239667+1001412630+1002177174+1002412155+1001399005+1000815221
1329+1001380139+1002955063+1005382710+1007146080+1006408577+1004878930
1317+1006116720+1009796480+1012858639+1015497999+1020024264+1025418204
1306+1028206114+1027991535+1028420622+1031576269+1034954321+1035794117
1294+1034857268+1034227229+1036014844+1041740818+1049607613+1056222085
1283+1061063963+1065585407+1069243367+1070504355+1071176737+1073052182
1271+1073741823+1071682054+1068271861+1064430556+1061491373+1060253653
1260+1058927894+1056913472+1055173649+1053365142+1050752473+1049768460
1248+1054058835+1057774929+1051726774+1042204771+1038721352+1038286606
1236+1035168131+1030033557+1026145786+1024156309+1022389794+1020243314
1225+1019017822+1019839591+1021769397+1022994610+1023339081+1023405041
1213+1022248512+1019314151+1017245438+1018242727+1021090447+1023753494
1202+1025250371+1025540970+1024621519+1022642313+1021284064+1021646003
1190+1021323472+1018056867+1014223806+1012669005+1012358143+1010765331
1178+1007505364+1004561989+1003151964+1002714073+1002937316+1003898550
1167+1004943702+1005124532+1003341108+999208085+995332333+994302344+995078696
1153+995620207+995079464+992977074+989490301+986104843+983492243+981084300
1140+978969053+977386163+976683876+976215800+973877940+969805985+966133072
1126+963522220+961458049+960190144+959709911+958225402+954891859+951865196
1113+950582758+949312687+946984049+944301228+941172411+937684311+933358161
1099+926937725+921082626+920062699+923188860+926016876+925890267+923922730
1086+922530103+923962348+927906785+930343865+930174704+929003782+926774712
1072+924221225+922557284+923387997+927560567+933125625+938029970+941628678
1059+943992811+944611741+943904353+943590905+943389323+942824125+942832999
1045+943184737+943148683+943273335+942906924+941809997+942152791+943099353
1032+943510971+945200067+946869319+946619036+946288399+945589116+941266320
1018+934411487+930311304+931464898+934928403+937040786+936803779+934029355
1005+932066150+934484294+937987767+939335466+939755469+939639900+938446339
991+937270247+938096069+940918984+944446004+948405464+952310702+955701331
978+958633806+959509098+957677672+956903276+959113899+960771203+959534601
964+956752282+954946010+955756600+957282753+956749697+954454528+952337603
951+951747950+952071669+951479919+949549834+947614997+947168093+947576427
937+946513598+944867823+944841551+944151841+940724180+937109121+935580523
924+934940491+933587761+932119952+931293151+930941204+929506863+925770366
910+922297219+921238372+921018344+919862794+917974841+916113161+913952217
897+911541130+910274203+910816972+911012545+909948039+910385161+912054412
883+912086763+910196505+908749098+911067255+916202318+920198042+922295681
870+925047187+930329821+934951182+936686603+939617471+946011285+953795840
856+959941119+964267898+970611404+979862022+988720376+995989133+1002761587
843+1008842443+1014575404+1022614085+1032144961+1039256994+1043680267
831+1047473500+1052251585+1056202730+1055715929+1053882687+1054172378
820+1054158823+1053182984+1051293704+1047156210+1042522411+1039800322
808+1042055733+1050539991+1058681314+1060481717+1056089886+1047829989
797+1040827237+1036991591+1032915374+1028865290+1027607307+1027038336
785+1023800029+1018038420+1011004225+1004655199+1000285099+996184916+991978946
772+989397161+987196739+983274311+977744120+971860304+968411122+966661238
758+963056520+961533511+964185798+963702351+960217394+959361318+959727379
745+959633890+959205921+958345582+956601427+952245302+947581877+945365455
731+943515024+941485160+941259612+941115815+937222734+931254652+928713392
718+932647838+940426104+944552210+942849838+942292885+946599471+951194491
704+952620936+951706306+948928459+947390287+951235226+958766144+963462339
691+961719931+957640849+956527572+958506848+960475713+961418222+963292269
677+966190926+967423965+965993467+961643979+953665319+951973428+960136971
664+965190633+967257808+969544802+969483734+969498896+973333983+976022673
650+971663613+964744358+965080794+976462799+991043914+996974125+993476452
637+986108965+979072185+974310240+969725562+963362980+958163425+960156955
623+965033769+960463695+957064472+973989665+998320007+1005635299+1002896440
609+999509445+995144516+1000304803+1019951108+1032010457+1027399996
##END=
