##TITLE=Sample description
##JCAMP-DX=4.24
##DATA TYPE=INFRARED SPECTRUM
##DATE=13/9/2023
##SAMPLING PROCEDURE=Instrument type and / or accessory
##ORIGIN=Default
##XUNITS=1/CM
##YUNITS=ABSORBANCE
##RESOLUTION=4
##FIRSTX=4397.6552
##LASTX=599.8556
##DELTAX=-1.9287962
##MAXY=1.8543737
##MINY=0.48223791
##XFACTOR=1
##YFACTOR=1.7270201e-009
##NPOINTS=1970
##FIRSTY=0.49671695
##XYDATA=(X++(Y..Y))
4398+287615038+288339017+288287316+287550999+286701806+285658271+284399979
4384+283981630+285018210+286621270+287662079+287799320+287319261+286806070
4371+286640356+286665568+286820013+287186938+287521559+287832573+288281156
4357+288271268+287356725+286250877+285404635+284569490+284070035+284235473
4344+284608144+285215383+286557473+287221641+285725727+284177543+284425967
4330+284693909+283538500+282273029+282793295+284647316+285260785+284952636
4317+285825866+285929561+283730392+282024225+282554828+284002044+284661450
4303+284171434+283135664+282572533+282883184+283202637+283537430+284058904
4290+283911275+283364727+283104154+283386764+284352299+284922454+284389159
4276+283804837+283561675+283088054+282477691+281904827+281823877+282727859
4263+283479276+283470906+284012726+284988477+284762003+283288885+281905483
4249+281447254+281747396+282493118+283600503+284105618+283452908+282982927
4236+283510424+284333214+284563674+283524764+281871125+281583891+282354756
4222+282331287+282353945+283173629+283742627+283912811+283646716+283283932
4209+283768236+284923973+285743190+285388086+284610215+284802642+285569297
4195+285706348+285163027+284613753+283971932+282807549+281535400+281128405
4182+281893576+282488476+281600198+280531158+281375657+283455099+284476425
4168+284116179+283462813+282690309+281987227+281986985+282418570+282901304
4155+283172800+282320881+280725967+280344011+281549671+282798835+283058718
4141+282822649+282983565+282989519+282417328+282205729+282005536+281453621
4128+281668931+282638487+283211800+282866428+282116495+281661769+281557971
4114+281145075+280211706+280069426+280907143+281204558+281077292+281403664
4101+281686049+281591622+281332239+280734371+280517957+281475796+282165538
4087+281602631+281036463+280787037+280268290+280307773+281187940+281619146
4074+281626100+282217722+283123050+283512684+282927672+281506357+280375798
4060+280499648+281319642+281704842+281115929+280155449+280391605+281798044
4047+282640679+282572844+282160983+281600233+281589033+282313962+282888189
4033+283045085+283301068+283464211+282559383+281249218+281395519+282434722
4020+283015093+283449318+283748339+283449991+282629963+282041930+282689049
4006+284030034+284765282+285085045+285262545+284729872+283766545+283463434
3993+284447676+285857636+286270446+285646295+284526469+283587819+283385245
3979+283367247+283121445+282995576+283357669+284068602+284295284+283963769
3966+284077093+284790252+285483170+285807454+285655010+285562291+286016137
3952+286287167+285819896+285559167+285904194+286137967+286658682+287690897
3939+288144225+287373964+285590350+284091709+284667489+286586619+287067282
3925+285881208+285468743+286188201+287052804+288103983+289411042+290257577
3912+289965735+288882096+287350530+284864403+282294324+282058531+284260771
3898+287087196+288686735+288130455+286861567+287273842+288038857+287651518
3885+287428650+287302419+287375759+288918956+289207209+286876477+284283032
3871+283184983+284657584+286326961+286147597+286878030+289047344+289821574
3858+288077218+283444694+279231209+282381245+288110938+291489588+291568933
3844+289536946+287185610+285260354+285040368+286959895+288973124+290309657
3831+291583325+292876217+293688480+292795180+289335010+286987557+288157306
3817+289549681+291615112+293932038+293916887+291289758+288904961+289328901
3804+289873171+290441739+292413604+293177066+293740629+295830771+297668554
3790+298485097+298824325+299026985+299629790+299680869+298431947+298726205
3777+301385673+302873321+301371730+299351166+300063549+302309966+304672415
3763+306242895+305211646+303944846+305938904+308229290+306898055+305086122
3750+310188490+318588540+329694685+348646947+367243587+379137181+384345573
3736+384346332+384475238+386937775+389534775+390405227+390240807+391669611
3723+396172833+403716995+413348918+422503249+428593828+432631400+439681819
3709+451455653+464251314+476063457+488149289+501241968+512824565+521587278
3696+527737115+529683165+526188931+519845821+516111066+515058316+512496761
3682+507780180+501954040+494888470+487781069+483512467+478696592+472369116
3669+471351017+472915457+470902141+465761326+459160474+451458000+443212982
3655+437086821+431337473+421505789+411218913+408270502+409663861+409773198
3642+406639038+401508922+396280341+391556374+386957172+381191119+373740936
3628+369636374+369695287+368622658+365076723+360551551+358360562+357607765
3615+354964138+352037539+350185986+347984263+346700311+346851408+345820264
3601+343121485+340399893+337672227+335118541+334230660+334050088+332260106
3588+329682571+328764940+328904614+328588337+327384627+325853388+324617443
3574+323778639+322567337+319525395+315294757+313659531+314670969+315298416
3561+315445475+315302108+314186993+312442603+310972832+310180586+309369117
3547+308171343+307602914+307902694+307848612+306924871+305885374+305350043
3534+305024033+304466476+303787467+303196467+302597804+302064129+302106788
3520+302571954+302353003+301336872+300283224+299346472+298608412+298160122
3507+297517766+296614527+296620981+297673903+298154290+297575472+296760862
3493+296217593+295917192+295851444+296167859+296605415+296701500+296277852
3480+295628283+295450162+295673116+295517082+295090295+294953451+295030760
3466+295013020+294602937+294046967+294272475+295146275+295538066+295331540
3453+295035833+294587923+293892935+293164055+292618922+292840841+294136390
3439+295400118+295823213+295895172+296047133+296163925+295728751+294796831
3426+294202931+294280240+294675207+295056334+295492026+296028358+296538046
3412+296895048+296921106+296615528+296361650+296796410+297628967+297668968
3399+297038968+296924661+297355866+297660340+297838082+297950698+298008196
3385+298268666+298677058+299043897+299388060+299737470+299888361+299886601
3372+300025999+300226899+300652996+301278476+301641242+301964801+302464308
3358+302746693+302317006+301300840+300717398+300858073+300878677+300706664
3345+300662764+300265588+299715692+299484628+299159515+298813419+298450411
3331+297786692+297331086+296904712+295894068+294952933+294584645+294288385
3318+293666668+292725188+291824433+291005854+289705473+288166918+287112960
3304+286266200+285197505+284481516+284590146+284719207+284242807+284095350
3291+284859658+285375161+285239094+285618599+286912474+288273943+288706908
3277+288435601+288687960+289752894+290778171+290976069+290738274+291076950
3264+291971562+292766741+293341452+293846204+294265814+294729634+295163186
3250+295144722+294812292+294516378+294430751+294925253+296074674+297352415
3237+298065522+298255137+298567410+298881099+298847621+298717749+298774937
3223+299345540+300288746+301009309+301551197+302178126+302730265+303057379
3210+303503460+304442731+305490442+306066050+306416840+307188689+308279438
3196+309271100+310211544+311284519+312565780+313483066+313325307+312810166
3183+313003267+313759101+314535161+315116946+315779561+316806772+317617448
3169+317881369+318197473+318749267+319458440+320560544+321753934+322601884
3156+323297528+323722659+323655393+323566143+323802143+324377647+325064525
3142+325370724+325459906+325719029+325897427+325959205+326088871+326144747
3129+326075342+325868402+325557336+325410069+325404823+325056207+324322012
3115+323773359+323472026+323162306+322630288+321621749+320674816+320261799
3102+319848299+318914205+317643298+316918766+317183309+317674877+317891930
3088+318235506+318825817+319405946+319855133+319828316+319385238+319307411
3075+319744139+320235914+320734834+321398623+322057338+322427214+322334512
3061+321834039+321483249+321611361+321839561+322017096+322182551+322125777
3047+322036113+322136304+321911348+321027021+319955910+319128496+318251797
3034+316881251+315399263+314563772+314364356+314100953+313381356+312592251
3020+312058059+311598967+311218013+310832917+309976822+308881724+308337661
3007+308513022+309022710+309246561+308860430+308535386+309032891+310139067
2993+311577155+313888698+317215337+320387841+322182965+322688753+322871948
2980+323207346+323474442+323450110+322977627+322002186+320928211+320189874
2966+319507794+318717653+318293626+318144875+317712842+317057302+316592135
2953+316262260+315862185+315719405+316196858+317121668+317752877+317545523
2939+317035662+316764355+316326454+315390531+314365426+313773321+313721758
2926+313831510+313505948+312793635+312268899+312031104+311856123+311604351
2912+311122929+310632292+310772415+311629304+312548937+312911151+312633908
2899+312342757+312635565+313428018+314352069+314946935+315039534+315040258
2885+315249683+315603269+315859804+315812763+315782460+316125830+316537536
2872+316738056+316823752+316798696+316670066+316425748+315995509+315666324
2858+315613243+315505632+315147525+314710659+314549622+314590934+314327461
2845+313995343+314092876+314465306+314870765+315186732+315332652+315474363
2831+315970315+316873831+317703592+318059525+317988221+317839573+318055590
2818+318589023+318846594+318800691+319122007+319773164+320234568+320749675
2804+321571222+322332855+322865978+323306640+323783575+324357768+324902486
2791+325355884+325669400+325618838+325385841+325327652+325264562+325109530
2777+325122817+325215554+325120988+324917914+324810820+324763537+324706901
2764+324860104+325332484+325741808+325804207+325793508+325930836+326021639
2750+326055876+326264576+326505546+326572570+326665790+326830624+326808674
2737+326657507+326660440+326829244+326956907+326807431+326492052+326644495
2723+327289854+327634156+327615277+327671947+327682439+327661283+327867049
2710+328028881+327866083+327636848+327640299+327957543+328384779+328506472
2696+328339360+328319860+328365797+327912952+327243296+327294237+327915816
2683+328185570+327990123+327755607+327499555+327094890+326666929+326384405
2669+326358141+326363905+325917928+325141178+324593975+324370365+324229552
2656+324099921+323944371+323698224+323584469+323796655+323936433+323660398
2642+323304120+323135938+323117025+323221841+323249417+323180391+323275578
2629+323449351+323488627+323487177+323465261+323362999+323447315+323864784
2615+324312141+324458097+324375749+324446673+324708351+325004369+325400129
2602+325884381+326332567+326769640+327342245+327929552+328349162+328744957
2588+329204773+329736826+330264530+330494731+330496353+330706054+331126940
2575+331451880+331664998+331825207+332011509+332373688+332733797+332794160
2561+332516089+332064866+331720391+331702893+331979101+332246231+332247508
2548+332158051+332346975+332734383+333007347+333264365+333606492+333842734
2534+334001528+334143273+334085360+333918870+333944478+334201358+334642883
2521+335151708+335481239+335576978+335514198+335442239+335654183+336178229
2507+336661618+336914909+337165611+337623530+338088558+338256636+338293461
2494+338609808+339119634+339430630+339647406+340162237+340846353+341370709
2480+341756427+341980727+341922538+341662172+341445603+341395938+341361495
2467+341381616+341671007+342114948+342405961+342390707+342272983+342289066
2453+342295416+342324097+342586672+342803517+342815493+342914925+343231616
2440+343771848+344364264+344652137+344635536+344556501+344457276+344376930
2426+344457932+344610100+344655898+344624423+344617140+344691965+344824978
2413+345028259+345402622+345824509+346008601+346034589+346250157+346704280
2399+347126235+347355850+347478820+347559063+347645104+347782121+347814218
2386+347595233+346962920+345528318+343172495+340329625+337399368+334371577
2372+331102126+327594569+324051775+320664359+317785768+316131318+315913127
2359+316879076+319365980+323593408+329068930+334429835+337302973+336409431
2345+333180705+330788817+330403755+331139296+332197741+333284693+334518533
2332+336049323+338074649+340487522+342612349+344174131+345957315+348537714
2318+351354527+353794596+355714554+357328002+359154085+361221345+363126393
2305+364748953+366175893+367555033+368917123+370219471+371578351+372962460
2291+374166136+375206013+376198365+377161657+378145347+379067465+379760037
2278+380427864+381359508+382389583+383284194+384146571+385011087+385715532
2264+386350675+387119935+387986384+388940012+389974954+390852412+391510334
2251+392082490+392575508+393093134+393693143+394175669+394616124+395370026
2237+396261842+396745369+396887908+397131362+397548418+398114120+398809212
2224+399355070+399669828+400060032+400598676+400987534+401111402+401298497
2210+401787856+402290952+402595668+403048271+403840414+404581235+404999395
2197+405351531+405957683+406786064+407611511+408333765+409003766+409740169
2183+410625462+411562835+412387282+413133557+413925285+414741483+415584911
2170+416599214+417790844+418822093+419494337+420137728+421048872+422220036
2156+423483833+424616550+425775738+427198640+428636796+429861387+430934845
2143+431951943+433064297+434281398+435397168+436464483+437759963+439246610
2129+440720246+442278405+443957048+445559452+447205205+449020934+450792106
2116+452445072+454066286+455782065+457744992+459833926+461787051+463605852
2102+465503480+467615330+469886941+472239279+474778573+477683566+480763437
2089+483609310+486342222+489277829+492410850+495732485+499125700+502609269
2075+506481593+510609590+514725714+518904582+523203142+527663706+532408829
2062+537442516+542685282+547996971+553238909+558521331+563999579+569696571
2048+575554118+581404969+587264172+593400859+599793357+606247633+612950334
2035+619653380+625686598+631159324+636560540+642569529+649461223+656076675
2021+661737359+667219197+672983420+678943954+684840500+690130928+694685126
2008+698957283+703466614+708240866+712561134+715950863+718877290+722145809
1994+725907312+729528899+732578468+735454643+738715431+741684309+743433911
1981+744837554+746649280+748211683+749398792+750579689+751694183+752750902
1967+753963689+755360775+756636721+757607986+758540734+759575503+760281570
1954+760462211+760665700+761154266+761717656+762068515+761943578+761914863
1940+762734202+764506375+766788513+768412488+769340473+770899287+773516753
1927+776078998+777113146+777457586+779252469+782186281+785557097+789820280
1913+794169747+797859118+801879951+806794602+811809203+816725649+822079444
1900+827725564+833045605+837720045+841712026+845249885+849104366+854205456
1886+859807882+864322804+867579658+870599062+874201322+878040410+881417783
1873+883883944+884954469+885845870+888818751+892654181+894881098+895414531
1859+895395480+896045842+897793926+898722533+897126790+894313842+891688645
1846+888772573+886569125+886766470+886701310+884188970+880857361+878306574
1832+875339837+871762219+870020072+868868235+866368183+864191102+862033488
1819+859221230+857016264+855067039+852090914+848762618+846789993+845919644
1805+844505991+841652250+837971714+835317388+834484383+833973038+832225576
1792+830973444+832443974+834047586+833779489+832588514+831375797+830515318
1778+830786453+831340938+829855499+826934871+827116892+830228446+832765842
1765+833312597+832326699+832252220+833854727+835337820+836297212+836037675
1751+833946187+832800631+834482657+836731662+838364334+839442727+840164187
1738+840629077+839464470+838446613+842072411+847241492+851261428+854162867
1724+855940287+856323795+854315553+851006515+852404223+859569329+866502300
1711+870874614+872172234+870884968+870280921+871017222+870380388+871589102
1697+877588635+885192401+892306152+897137903+899154152+898463340+894858112
1684+894529755+903839016+913920609+919573424+922121519+924402897+926890525
1670+929836900+935180479+939978269+941444657+943816460+949804603+954403737
1657+954484428+949262335+946052350+954530330+961274792+963375736+968090488
1643+974635603+978783858+979297274+976742483+976003284+980962871+986539620
1630+989108491+989392050+989818355+992066946+997056421+1000046282+996776452
1616+994173826+999221698+1004665433+1006550948+1007564042+1009178560+1010759187
1603+1012791795+1015120111+1016836926+1018326921+1019531149+1019964287
1591+1020971791+1023647376+1026704331+1029095046+1030661868+1031109501
1580+1031242652+1031068569+1031460015+1034452430+1035600678+1032695926
1568+1031249072+1032334161+1032484844+1029768533+1021601653+1017775542
1557+1028865604+1039354519+1045064488+1049255609+1054089983+1056738924
1545+1053369420+1045887347+1039696681+1045335139+1058997938+1065300219
1533+1063409114+1063431409+1066873667+1068011837+1066222200+1063481246
1522+1060727523+1059256648+1057371410+1056979411+1060544121+1063309854
1510+1062067801+1057426630+1055787332+1062576522+1069059996+1071988079
1499+1071728058+1070820712+1072730592+1073697163+1069017684+1062289443
1487+1062820598+1068731985+1072450208+1073523563+1073550552+1070784059
1476+1066411883+1063512239+1061890128+1059389316+1054205256+1047372993
1464+1043957725+1044089358+1040792607+1031018801+1024341433+1026403378
1452+1027222302+1022498577+1015783037+1011157053+1007816470+1003304241
1441+994697320+981178646+969800400+967029697+963449594+954365565+947580931
1427+946651081+947453647+947810925+947480291+946914347+949775819+956847878
1414+964143789+969788804+973690568+975609421+977981155+984504802+992655876
1400+997186742+997312646+996368922+999595750+1008016922+1015421962+1017808881
1387+1016006405+1012838871+1011178520+1013116218+1019415392+1027388241
1375+1032741414+1034020811+1033760376+1035183554+1037288157+1036387367
1364+1032669558+1029208732+1027959707+1028456280+1028591640+1028059518
1352+1027995807+1028144489+1028212963+1027108202+1023547289+1017747172
1341+1010342546+1003882678+1000722392+999488000+997776915+995980858+996894003
1327+999877100+1001705046+1002696122+1003829943+1004887904+1008118390
1315+1013534377+1016917065+1017965363+1019592306+1022125077+1024554585
1304+1026924938+1029909208+1032335265+1033021452+1034002726+1037076247
1292+1041240793+1044088391+1044383891+1045063038+1049115210+1054952462
1281+1060103666+1063146194+1064006396+1065413905+1069228489+1073276864
1269+1073741823+1070651667+1067973527+1066231242+1062634573+1057931072
1258+1054909459+1053795311+1053150470+1052618969+1052251475+1049926610
1246+1045306700+1042268452+1042342309+1042753911+1040492620+1036096423
1234+1033692109+1034496538+1035046330+1033941914+1032692129+1030811999
1223+1028006921+1026261115+1025582658+1024380709+1023155083+1023411100
1211+1024746063+1025566368+1025248020+1024379259+1024488596+1025863732
1200+1026945232+1027164803+1027216228+1026940400+1024868861+1021662741
1188+1020222306+1020148379+1019356513+1019070469+1019682868+1019127002
1177+1018269630+1018654726+1018814659+1016738219+1011751504+1006290512
1165+1004553059+1006733866+1008036111+1005697924+1002558484+1001374412
1153+1001472152+1000636110+997614841+993745589+990744684+988399732+986745800
1140+985832517+984091613+981276870+978196447+974589493+971274036+969876191
1126+969278564+966744481+963101703+961142607+960470225+958942403+957106726
1113+956772778+955789848+952590700+950534829+949931197+948293003+945997750
1099+941965389+935460379+931605139+932298298+932684430+932214570+933132477
1086+933962170+934944203+936131726+934343953+930747491+929543608+930662313
1072+931550056+931563654+930949806+930233523+931891321+936475268+940531443
1059+942552110+943269912+942255851+941258494+942129809+942937137+943799203
1045+946501709+949027509+948223149+945035183+944184368+946407144+948235366
1032+949296848+950433430+950665772+949582685+948746159+948881173+948310328
1018+946220083+943228772+940925099+941271402+941854396+939496813+938105870
1005+939456639+939082035+938566618+941619086+945172337+946415841+945963168
991+943627328+940316427+939088248+940653550+945219689+952669527+957844407
978+959171639+961553933+965245927+966761945+964587833+960447377+957702558
964+957328644+958810081+960516610+960505290+960681030+962241294+962668772
951+960642514+956967846+955050717+957244295+959609540+958826578+957553531
937+957668805+956897922+954152758+951435412+949008457+946426954+945305420
924+945120982+943788435+942036900+941331938+941285069+940198876+937426309
910+934012007+930743902+929123654+930269417+931717927+930329124+927382473
897+926281164+925548798+923287575+922882737+924379842+924786336+925262064
883+925821381+923781663+920439907+919690078+921546739+923698556+925939623
870+929095492+933063658+936625952+940240430+945570825+951825270+958094350
856+964126946+969880471+976101646+981886370+987724451+996928378+1008770064
843+1018088022+1021544085+1020658136+1021141180+1026895533+1034112892
831+1037340892+1038329276+1039972302+1040441748+1038974255+1034368150
820+1027640738+1028263904+1036975193+1042287641+1042607024+1043297905
808+1044736200+1045924690+1045774213+1043483999+1039790349+1036437480
797+1033519958+1030661799+1029125556+1027727158+1025501277+1022009597
785+1014664885+1007104950+1003542035+1000284146+995176981+990608288+988103473
772+987058557+985238549+981630145+978534881+977062971+974810929+971612057
758+967894316+961571052+955672849+956046141+960910128+964300063+965294452
745+966213671+967071457+966108959+964315801+964136196+964317251+963672548
731+961168699+954259541+945706185+939145746+934200448+931106771+929446282
718+927157725+926003334+930431697+938448929+942419995+942269518+944236621
704+949191583+954333675+959382927+963096112+962724683+958360238+955342283
691+959318457+963943682+960202197+954751076+956182330+961570016+965750507
677+969355942+970740258+965573662+955479921+947495546+953501015+966549759
664+971828453+971394142+970314920+969019854+964929374+961325043+964957674
650+975401032+988282112+996134510+977566723+936599722+918112420+936675306
637+961494295+977157192+989381144+990305816+972203610+946874519+940665285
623+956581576+967334377+963501502+955633021+954564912+974423279+1002996385
609+1000524633+974441294+961253187+961242971+961006626+966467756
##END=
