##TITLE=Sample description
##JCAMP-DX=4.24
##DATA TYPE=INFRARED SPECTRUM
##DATE=13/9/2023
##SAMPLING PROCEDURE=Instrument type and / or accessory
##ORIGIN=Default
##XUNITS=1/CM
##YUNITS=ABSORBANCE
##RESOLUTION=4
##FIRSTX=4397.6552
##LASTX=599.8556
##DELTAX=-1.9287962
##MAXY=1.7491893
##MINY=0.35003516
##XFACTOR=1
##YFACTOR=1.6290594e-009
##NPOINTS=1970
##FIRSTY=0.37676784
##XYDATA=(X++(Y..Y))
4398+231279371+230226138+230232962+230470695+229373922+228436107+228687688
4384+228444376+227673001+227986655+229322387+230609347+231427499+231299312
4371+230369638+229724347+229405772+229268437+229137634+228580795+228731539
4357+229624607+229464642+228487074+227945914+228281045+229348474+229903044
4344+229037180+227732110+227233849+227027692+226325195+226004882+226765335
4330+227797676+228393920+228929519+229254168+228490696+227700717+228298388
4317+229133957+229400777+229738543+229133792+227103155+225773845+225638870
4303+225896288+226666144+227082538+226669931+226883094+228309218+229065500
4290+228085663+227055353+226785843+226977621+227846119+228683828+228686938
4276+228298187+228250640+228421892+228391707+228224242+227544942+226432307
4263+225998113+226295869+226610383+226864837+226943045+226422794+225677489
4249+225951609+227374769+228047739+226856806+225388148+225116461+225481869
4236+225422724+224817735+224566373+225223811+226338970+227194553+227193327
4222+226623555+226201544+225703046+225152300+225308642+226287253+227647060
4209+228571703+228117879+226786867+226258019+226794386+227235130+227166526
4195+226547707+225286012+224047440+223450226+223421212+223400338+223092703
4182+222997207+223193010+223465905+224240682+225338717+225832898+225833776
4168+225983386+225911966+225473344+225354963+225300629+224317664+222808027
4155+222308486+222907785+223388173+223450446+223311465+223312929+224032000
4141+224961894+225081373+224329884+223627241+223628595+223771070+223696320
4128+223502676+223163904+223221275+223768070+224017749+223679617+223236020
4114+223064530+222947447+222611968+222271623+222746998+224132252+225106162
4101+225030607+224457322+224018755+224042885+224476293+224973364+224939117
4087+224418831+224087925+224040251+223862065+223245661+222587930+222682785
4074+223422163+223827343+223579402+223284573+223127627+222831334+222557671
4060+223144860+224703763+225643700+225206359+224493965+224096981+223334388
4047+222373229+222738436+223885024+223929406+223580097+223853302+223976422
4033+223920296+224174402+224188818+223845783+223721913+223840771+224133277
4020+224714757+225281603+225354469+224545993+223172155+223032113+224713788
4006+226167883+226338092+226047416+226186964+226665320+226285917+225157440
3993+224734661+225267882+226205533+226948899+227016935+226581972+225772893
3979+224919049+224758920+225029582+225217976+225658463+226372302+226982798
3966+227207505+226922555+226800167+227009416+226762499+226379510+226440375
3952+226408580+225864876+225648383+225693314+224693079+224384986+226394859
3939+228172451+227995473+226546500+225349236+226207161+228324055+228664400
3925+227246070+226811253+227001385+226630452+227062634+228872844+230381126
3912+230642532+229697820+226722526+222112793+219287237+220055996+223106954
3898+226890778+228692262+226873838+224500898+225752971+227229843+225859077
3885+224514710+223692350+223696722+226408379+227322118+224849640+222392749
3871+221114790+222853708+225455892+225004848+225067030+227943279+229466161
3858+226688572+219417967+214869483+221903361+230353356+233717163+232116824
3844+228247237+225070927+223007105+222665021+224822730+227152696+228511351
3831+229620930+230327561+230590211+229408937+225142219+222831590+225587427
3817+228061734+230968205+234523645+235204133+232460206+229652103+229387203
3804+228542469+227914649+230783251+233839149+235860108+237317570+238012054
3790+238915512+239812147+239867963+239661183+238605700+237140720+238506875
3777+241743428+243227874+242237316+240603517+240908737+242753578+245237838
3763+247205469+246579753+245771553+247745551+249456661+248503040+250056820
3750+261610333+276723583+295242590+321997715+341624709+347168873+342694297
3736+333357967+327461421+328461052+332511385+335647668+338338524+342511611
3723+348442039+356598942+366445863+375937767+382742876+387143580+395390381
3709+410573498+428234123+446303330+466248095+486249608+499580255+504764572
3696+504136459+498117122+487487027+476808928+471872351+471314671+469457042
3682+463856130+455441132+444934596+434322429+430439048+428948840+423652453
3669+420638412+420035838+416377549+411100992+406542592+400651461+392365693
3655+385582061+378792795+367471618+358012352+358323170+361266632+361264546
3642+358520857+354304997+349581364+345033356+340365740+333794540+325123167
3628+321999105+324809788+324718500+319251720+311922482+308931419+309085493
3615+307196874+303854306+300632479+297973986+297757328+298581993+297187482
3601+294289445+292003037+289586631+286766398+285072430+283218021+279165931
3588+276347748+277779597+279356849+278655834+276698667+274574967+272817408
3574+271801020+270593036+267149575+262196113+260164616+261364678+262321483
3561+262388275+262402361+262172275+260751951+258714875+257489548+256326221
3547+254571588+253464076+253357037+253416731+253162021+252440077+251528313
3534+250773349+249997437+248958638+247651701+246534475+246057472+245989107
3520+245909180+245653811+245438287+245159246+244233926+242965517+242348838
3507+242139406+241595410+241474430+241998797+242030098+241581689+241205689
3493+240730040+239981167+239361159+239219909+239084642+238557093+238160895
3480+238407501+238876491+238961614+238752200+238643276+238567447+238232279
3466+237751947+237309850+236841189+236446968+236420697+236807985+237421975
3453+237881305+237483882+236270520+235505750+235766753+236382151+237008526
3439+237391076+237056749+236461914+236403226+236898724+237509037+237675532
3426+237247320+236662894+236456755+237019759+237938035+238437833+238656284
3412+238610987+238019170+237586622+237785864+238322799+239163563+239961867
3399+240145412+239984954+240000413+240234249+240665516+241095027+241194310
3385+241210409+241563944+242044569+242149925+241899313+241829557+242237042
3372+242860819+243302569+243556145+243939261+244441034+244638484+244431101
3358+244182995+244170518+244470872+245080837+245680319+245553028+244659577
3345+244181001+244585028+244893230+244546427+243858785+243193023+242834933
3331+242818797+242844464+242589662+241871048+240815657+239876579+239217824
3318+238433826+237409279+236487983+235518684+234382999+233670038+233456453
3304+232873362+231335095+229588659+228914536+229284280+229738506+229894611
3291+229803323+229630132+229720450+230112495+230727088+231412882+231672861
3277+231664976+231754819+231652024+231672147+232467341+233722286+234610267
3264+234843006+234940478+235209603+235310185+235508238+236272258+236963028
3250+236959662+236257897+235252009+234951271+235709437+236704166+237065970
3237+237120816+238005834+239238332+239633797+239805104+240512339+241267560
3223+241598977+241864060+242410325+242853520+243264956+243963922+244499301
3210+244966023+246045673+247560505+248766714+249533076+250162359+250634075
3196+251208092+252351881+253819770+255020546+255881525+256725894+257549901
3183+258187270+258593291+258970518+259691510+260595938+261366965+261935658
3169+262282754+262765464+263765955+265071136+266130754+266649193+266962847
3156+267696553+268833775+269742082+270133980+270248337+270614916+271454308
3142+272093452+272264905+272532293+272730840+272416399+271997426+271978254
3129+272238653+272385446+272315635+272139169+271881166+271482079+270808450
3115+269908980+269246254+269145252+269165138+268748982+267753741+266232122
3102+264765221+263870122+263348464+263205293+263614187+264200552+264475770
3088+264521341+264884041+265600460+266035862+266173324+266588822+267097602
3075+267126378+266820902+266739237+267053787+267494128+268009219+268630765
3061+268902323+268687184+268395977+268069426+267654330+267311131+267002344
3047+266766239+266650949+266343753+265766992+265059867+264118832+263009966
3034+261878214+260737919+259787628+259127646+258528439+257782475+256922209
3020+256146517+255639475+255344371+254967493+254351893+253507708+252460475
3007+251484901+250912037+250714697+250838293+251383076+252130503+252834244
2993+254102196+256689799+260168074+263434812+265641165+266462738+266387622
2980+266312726+266802004+267471608+267235650+265885355+264298847+263169144
2966+262392007+261493360+260658706+260361169+260312598+260180130+260100788
2953+259993584+259836235+260074828+260721052+261097089+260799882+260091458
2939+259396041+258700002+257917705+257348573+257020631+256792741+256641814
2926+256208790+255492152+254990672+254646832+254136333+253579860+253353689
2912+253559846+253882300+254211120+254676816+255123725+255497293+255881544
2899+256070797+256065510+256203796+256506162+256770916+257165503+257782767
2885+258229091+258557618+259162094+259771950+259979168+259768492+259333657
2872+259122561+259278756+259490567+259688126+259708560+259327584+258929081
2858+258764800+258553520+258126954+257500086+256707746+255967398+255662105
2845+255862701+256274174+256701709+257209318+257884739+258514718+258981384
2831+259696980+260778258+261490176+261404578+261195329+261360269+261654531
2818+262059784+262497034+262645454+262674542+262805657+263072880+263681290
2804+264682275+265750564+266516743+267010759+267488384+268030221+268611940
2791+269014595+269000435+268785387+268631149+268450878+268200449+267924847
2777+267675936+267619645+267724635+267791647+267804636+267780341+267739837
2764+267896948+268283980+268481832+268338460+268266509+268424662+268556691
2750+268581425+268519664+268381561+268396379+268554789+268491162+268169202
2737+267919303+267933994+268013555+268028995+268154933+268274101+268187533
2723+268120741+268163128+267981906+267562183+267393163+267734221+268293182
2710+268624069+268739725+268881523+268880681+268650522+268458141+268316470
2696+268162708+268162854+268172202+267894222+267604424+267607314+267645403
2683+267428361+266856210+266054778+265517569+265391522+265207098+264836842
2669+264585078+264433090+264219670+263997578+263730794+263323876+262885072
2656+262602774+262533531+262491985+262305567+262135138+262168177+262263636
2642+262207821+262023159+261908912+261975210+262056565+261990413+261822381
2629+261683089+261727013+261918078+262129869+262366797+262630929+262974988
2615+263350147+263548950+263695651+264077652+264561936+264903799+265196598
2602+265589630+266115679+266799022+267521588+268049028+268365060+268695160
2588+269185481+269777847+270321825+270690763+270851258+270951090+271216118
2575+271553682+271661929+271658471+271897540+272281260+272501211+272553990
2561+272528159+272398233+272220377+272110484+272084726+272187082+272421961
2548+272651443+272796699+272838135+272866052+273024242+273238815+273434325
2534+273669844+273872013+273891625+273849146+274026544+274298926+274325252
2521+274319507+274650047+275096571+275293856+275244864+275217258+275420397
2507+275725507+275973430+276279437+276681964+277024651+277229436+277342750
2494+277530815+277883051+278199303+278437658+278863711+279479640+280029014
2480+280449268+280709412+280619606+280263253+280015696+279986791+280038911
2467+280131078+280213987+280218597+280247008+280330960+280304525+280182411
2453+280139493+280191942+280398356+280811475+281161333+281325084+281535980
2440+281888454+282241422+282444195+282520079+282566016+282536306+282383422
2426+282276053+282398057+282641973+282864449+283010272+282947980+282843594
2413+282994704+283229656+283349593+283445948+283577447+283743265+283933159
2399+284208651+284556716+284786802+284975580+285286216+285543176+285524534
2386+285048190+283855262+281764438+278805389+275263360+271542340+267753558
2372+263690473+259363495+255086698+251183578+247996346+246070041+245924090
2359+247412523+250254873+254682616+260947644+267517636+270919240+269496921
2345+265443953+262732315+262359754+263304923+264898494+266547550+268010994
2332+269515453+271462156+273782719+276066950+278237446+280756574+283913657
2318+287145564+289842036+292036332+294058206+296189187+298558010+300921528
2305+302888665+304603361+306402174+308127024+309509808+310725896+312105241
2291+313621025+315090817+316428597+317603816+318620717+319444139+320108035
2278+320728720+321401251+322132506+322787987+323344606+323979195+324771041
2264+325585900+326329815+327033044+327632874+328101571+328591782+329196369
2251+329808382+330217697+330413188+330701724+331222743+331697257+331936875
2237+332177516+332586611+332969472+333304109+333705776+334024644+334173303
2224+334294410+334517636+334825527+335170775+335614922+336124781+336525497
2210+336781322+337044466+337458903+338010436+338552420+339048924+339601518
2197+340260255+341014013+341736084+342326950+342923048+343647973+344455515
2183+345230384+345900025+346640537+347669036+348747954+349604305+350407164
2170+351327472+352365338+353451025+354467230+355361487+356186921+357124754
2156+358236931+359394258+360621323+361971104+363273797+364434673+365536935
2143+366605242+367652548+368798716+370224052+371873969+373392350+374683042
2129+375995211+377421828+378872484+380383657+382039099+383725420+385295355
2116+386851019+388651314+390665102+392627666+394579949+396655754+398749414
2102+400833671+402991983+405241327+407692858+410440645+413370716+416428699
2089+419576654+422727206+426089824+429882210+433916591+437967766+442022417
2075+446200078+450699900+455582839+460674148+465726784+470823252+476329803
2062+482179407+488203354+494564683+501151177+507620990+513978770+520537639
2048+527226800+533734007+540304841+547232265+554289285+561201635+568122510
2035+575354715+582740409+589767536+596167283+602154605+607965572+613744816
2021+619887932+626406225+632743405+638670942+644171054+649108582+653498895
2008+657438219+661221531+665101436+668923824+672490240+675739580+678766244
1994+681647067+684359217+686845471+689159539+691520075+693771358+695659758
1981+697084802+697923115+698322294+698710643+699674674+700676756+700534574
1967+700136126+700625679+701203409+701543535+701956252+702193052+702574156
1954+703449789+704127260+704226707+704293591+704495119+704508218+705013284
1940+706588414+708391270+710043820+711735960+713575989+716050534+719307705
1927+722224531+723909792+725837414+729538767+734003281+738503359+743744425
1913+749390597+754671910+760127604+766404267+773041838+779112728+784364478
1900+789722773+795619795+801602288+807327637+812357149+817280335+823180943
1886+829176022+834227267+838389488+841874239+845079161+847973522+850238854
1873+851446856+851054702+850511950+852283340+855322956+857021389+856593744
1859+854726858+852151622+849471889+847331103+845650306+843003649+838188106
1846+832143559+828111593+827630383+826832902+823158697+818767945+815715596
1832+811927236+806229620+801974318+799671153+797421114+795895086+794538023
1819+791937028+788646343+785644778+782586356+779673409+777899823+776414335
1805+774142929+771144584+767950638+765969304+765547294+764858920+763058845
1792+762550120+764675686+766429659+766512129+765989135+765097403+764260042
1778+764115005+763174757+760170924+757443846+759198771+763849959+767740694
1765+769320214+768740142+768957477+770931567+772534796+773587810+773647229
1751+772028559+770845438+772273263+774945605+776765803+777563284+779205224
1738+781341839+780531845+778900003+782705122+788779232+793908849+797448921
1724+799519970+800926866+800087602+796617633+796513649+802433576+809430372
1711+814954558+817480474+817171082+817213159+817523136+816388237+818350399
1697+824733168+832961090+841341805+846591871+849537675+850593030+847644958
1684+848098215+859035652+869472341+874366842+875980243+878044340+880590159
1670+883500838+890912619+899662510+903795973+905882096+910736935+916286075
1657+917971774+912635432+908157966+916732087+924165236+927192778+933851424
1643+942286435+947034436+946475951+940531803+937087446+944830718+953934565
1630+957010038+956091816+955603727+957155587+961033882+964163286+962424606
1616+959666721+964450871+973056311+978744267+980526560+981635188+982907952
1603+982985665+983139044+984579163+986113021+987118616+988147627+989664289
1589+991297740+992638192+994134437+996288615+998938418+999930110+997329554
1576+995681979+998721449+1000397343+999695651+1001041226+1003747009+1005407317
1562+1003594729+995380930+991995554+1002986118+1013153004+1020833051+1027992079
1549+1033042886+1033981744+1031138607+1026351530+1021882479+1026845034
1537+1037929191+1042965800+1043743084+1047089164+1050724659+1050330456
1526+1047129558+1042826179+1039332574+1042220568+1049286589+1055537494
1514+1059659102+1061023483+1058831985+1051479550+1049451603+1062572854
1503+1072967247+1073741823+1069135858+1065649132+1066723733+1067454988
1491+1063171733+1059572461+1062810459+1067128034+1069053315+1069851307
1479+1069036118+1065013372+1058551791+1053279918+1053474129+1056019071
1468+1053491985+1046544071+1042267109+1039766513+1032359195+1019471817
1456+1011983859+1014879463+1017052300+1013671388+1007686700+1002107704
1445+995569068+988515706+983092504+976831500+967635523+960099561+954235468
1431+947247088+941388264+936087705+930308498+929090763+932391913+936674363
1418+946141899+958496551+965734391+968632703+971411078+972698477+972271637
1404+976444249+984302554+988572418+990297414+994262716+1001490385+1009885808
1391+1014614563+1013827108+1010928577+1009895174+1010972409+1012960037
1379+1015038110+1016550235+1018597208+1023329330+1027592022+1028006788
1368+1027746132+1027912756+1026479516+1025838414+1027881436+1030208677
1356+1030148964+1026903063+1023192270+1021487032+1020667379+1018443610
1344+1014582365+1010066481+1005082705+1001522363+1000721151+999015620+995338049
1331+994413387+997418025+1000447250+1002298695+1003554774+1003995737+1005613675
1317+1009031323+1011096005+1011178036+1012190217+1016039095+1021430759
1306+1025220217+1026583573+1027762012+1028932328+1027707495+1025424892
1294+1026022307+1029194300+1032413639+1035672127+1039486392+1043555020
1283+1047684531+1050528253+1051334807+1052116627+1053862039+1054591978
1271+1053130564+1051152450+1049311616+1046360544+1043166598+1039913452
1260+1035067540+1030181748+1027022487+1025060033+1023001278+1019923317
1248+1016817403+1014619685+1012427237+1009858586+1008140469+1007603791
1236+1007157998+1006558607+1006571779+1007205343+1006322758+1003144106
1225+1000956780+1001103353+1001085717+999900912+999223808+1000247990+1001874563
1211+1002142609+1001219265+1001019785+1001450284+1001279928+1000857698
1200+1000469569+999627963+998239946+997364094+998349419+1000523354+1001499093
1186+1000586725+999573593+998935784+997287404+994445878+992088927+991270079
1173+990202357+988089818+986647943+985150088+982708326+981524399+981582428
1159+979446618+974271631+969472479+967532710+967159289+966460817+965088899
1146+963226404+961187260+958926830+956177799+953065884+949990046+947724566
1132+946363113+944761712+942721032+941237300+939942657+937636272+934587801
1119+931574968+928824766+926079247+922517661+918794720+916318199+914268006
1105+911685159+908803605+906241979+905031855+904625651+903587346+901341185
1092+897847654+895346033+896131366+898409797+900086057+901671359+902373563
1078+901672017+901570521+901737584+901072334+900932273+902805672+907616312
1065+912823204+915043899+916014881+917580718+919478777+921183063+922306985
1051+924117963+925909331+925536495+924595954+925282718+926459547+926549920
1038+926707982+927945693+928057727+925323990+921679275+919594103+920133635
1024+923036484+925134608+922939671+918078978+915255234+915089635+915225524
1011+915716979+915998709+914328011+912063263+910893021+910482645+910617583
997+911110648+910713591+909275961+909067187+911968499+916991572+922286349
984+927858174+933279181+937084153+938844347+937882804+934683956+932119183
970+931572480+931497620+930753412+930058380+929535093+929017294+928642922
957+927793486+927299762+927847563+926788549+923104758+919335350+916940714
943+916819753+919091013+919956621+916881807+912734441+909997337+908041469
930+905792235+903728284+902494890+900884050+898346573+895929398+893254787
916+889411983+885976261+884752160+883819962+880860328+877362698+874369988
903+870985270+868599781+868343370+867958314+866445897+865205185+864660969
889+864988362+865928610+865777646+864663823+864624747+865770036+867457565
876+870169862+873520333+876094179+877427825+878602020+881832554+888995022
862+899020970+908784725+917630771+927333277+938223808+948757895+958526919
849+968426637+977878952+986060919+993708475+1001961131+1011058978+1019306876
835+1025392036+1029962510+1032336364+1031389457+1029069973+1027716715
824+1027825383+1028501902+1028762997+1030459453+1034347993+1037077047
812+1036270054+1032140689+1026930504+1023646478+1023051990+1023921622
800+1024558772+1024150007+1022999156+1021181153+1017127380+1010016941
789+1003668344+1000838453+997305772+989902991+983167876+979597728+974933880
775+967725238+961120962+956333007+952101927+947489303+943615252+941934967
762+941081507+938362551+935052693+935258320+937946541+938082431+935393770
748+933037844+932375741+932484775+931057169+928141953+925117119+921600610
735+918567580+916904052+915847087+914893960+913155280+911048521+909588572
721+908295026+906740240+905046124+904241619+905017293+906603106+908415768
708+911218511+916048104+922191366+927532684+930667137+931434029+930365283
694+929033905+930011839+933657286+936959680+937848485+937329369+937514506
681+940056374+943094819+942207405+936822620+930619426+926557164+925199077
667+928217765+934234724+938674723+940119013+938911450+936686657+935786876
654+934945636+931393563+931670171+940942837+948272221+944563989+935764996
640+929936101+932274538+943470435+956275636+962417947+958336587+945443500
627+935809634+935313056+937155720+940270416+939171447+929199870+923992319
613+928020553+937384617+952260647+966114178+973364458+975358086+968629776
600+956065985
##END=
