##TITLE=Sample description
##JCAMP-DX=4.24
##DATA TYPE=INFRARED SPECTRUM
##DATE=13/9/2023
##SAMPLING PROCEDURE=Instrument type and / or accessory
##ORIGIN=Default
##XUNITS=1/CM
##YUNITS=ABSORBANCE
##RESOLUTION=4
##FIRSTX=4397.6552
##LASTX=599.8556
##DELTAX=-1.9287962
##MAXY=1.6039684
##MINY=0.23496996
##XFACTOR=1
##YFACTOR=1.493812e-009
##NPOINTS=1970
##FIRSTY=0.2558338
##XYDATA=(X++(Y..Y))
4398+171262388+170235415+168853802+169021147+170245770+171007540+170969754
4384+171080300+171693798+171914611+171402241+171366969+172410960+173663353
4371+174420116+174407488+174027071+173773620+173452436+172917304+171911678
4357+170466343+169468677+169515760+169982283+170056340+169419639+168177958
4344+167520529+167752553+167317103+165795049+164255886+163186668+162237402
4330+161393615+161198230+161642787+161904727+161637620+161331100+161225991
4317+161526695+162241801+162156513+161106467+161062227+161560551+160131376
4303+158222211+158813634+161065609+162202200+161631036+160865355+160716165
4290+160791798+160662648+160428120+160670140+161511682+162094287+161696424
4276+160823110+160305354+160492311+160868248+160271189+158884558+157872648
4263+157639257+158031275+158802801+159454963+159393975+158892947+158612174
4249+158608403+158493249+157819859+157295539+157675258+157867211+157418175
4236+157555644+158497728+159102897+159005119+159255219+160155007+160531982
4222+160266551+160521139+161544541+162328856+161787797+160230410+159499683
4209+160331340+161348697+161732455+161701053+161108672+160317025+160462185
4195+161429456+161857764+161645480+161563035+161354163+160644423+159887580
4182+159440779+158999363+158874473+159875899+161201192+161391441+160613261
4168+160120343+160461856+160776645+160406483+160244306+160897206+161496430
4155+161321075+160740375+160427222+160366892+160177282+160021618+160220844
4141+161005997+162273742+163157241+163173640+162634527+161813643+160788366
4128+159891970+159879351+160772945+161964669+162968010+163190897+163210220
4114+163943122+164644692+164557757+164019762+163567294+163607055+164362282
4101+165277881+165455890+165154178+165110546+165523801+166338461+167131035
4087+167553427+167907988+168529087+169276673+169928177+170403498+170845602
4074+171302110+171294209+171061606+171351388+171489385+170738627+170003750
4060+170348635+171636381+172994432+173622694+173354100+172680970+171973046
4047+171623313+172242418+173610564+174693259+174722207+174124988+173874130
4033+173876026+173634146+173422830+173667463+174395717+175302787+175710316
4020+175480107+175181648+174849651+174518033+174393024+174521804+175327466
4006+176399607+176640190+176365013+176412834+176570383+176598513+176531460
3993+176391686+176671851+177423966+178174764+178644279+178530921+178145656
3979+178197567+178505444+178565894+178705408+179083171+179148868+179372812
3966+180343305+181248979+181937392+182398249+181945412+181740779+182561105
3952+182810127+182444534+183079120+183824292+183302526+183255423+184701456
3939+185934258+185754664+184203591+183087040+184304201+185829977+185003986
3925+183842666+185027009+186235332+185646472+185736968+188073572+190542768
3912+191670112+191520204+189063018+184245487+180720490+181226495+184901380
3898+189872431+192391403+190569682+188377758+190025012+191436093+190364949
3885+190107248+190013880+190985191+195037939+196165961+193051626+189805517
3871+188006698+189787282+192437409+192793685+194937628+199266372+200522077
3858+196435094+187722982+183051828+191441619+200226989+203102218+201780995
3844+198805395+195592863+193240198+194302902+198108284+200770501+202724934
3831+205083065+206332346+206046096+203345714+197249135+194746761+198525409
3817+201916080+206144193+210525506+211076340+207720882+204514734+204297733
3804+202953527+202361754+206498654+210019102+212841382+216817800+219361331
3790+219884434+219826059+220167651+221278716+221464455+220919427+223610931
3777+228530988+230847722+229862546+229165674+231690313+235434326+239366194
3763+242715667+243262172+244216544+248452319+251378880+251109588+256201100
3750+275376999+298228382+324694300+360548793+386991169+398257745+401093392
3736+401345527+406446276+417468338+428592508+435651520+441498777+450519643
3723+462213400+475484764+490093291+503663753+512073375+516682144+527455584
3709+546863128+566643109+582800515+596275175+609341567+621222180+629228842
3696+635446860+640955956+641833419+640964215+648561811+661494096+670217301
3682+671983400+667945415+661027972+657011893+660845026+666975341+673031122
3669+681950360+688694752+690136297+689847254+690469789+691664746+692672247
3655+693408022+691253446+683672808+676644480+679371556+686825787+691707041
3642+693586140+694173563+693567546+692399643+691271242+688410816+682058013
3628+680483677+687119539+692452871+692698582+690223201+691108844+695757714
3615+698051705+697565790+697189204+697785245+701125361+705281373+706406024
3601+705795059+705645590+704539852+702133740+701974136+704366921+703777503
3588+700924739+704429167+711881084+715652051+715557965+714938222+714781331
3574+715125517+715097347+713161030+709540330+707524210+709627793+714519820
3561+719485264+721066702+718823944+716609836+717081546+719707114+722436026
3547+723537773+723887865+725650692+728707431+731107079+731847084+731642152
3534+730324939+727388542+724245777+722793459+723592597+726622123+731088406
3520+734364201+734904381+733929599+732743341+731010519+729330526+730621723
3507+733536813+733071966+730259980+728863923+728143151+727659071+727753078
3493+727481432+727271153+726945720+726733367+728552136+730663699+730747651
3480+729962079+729534021+729074042+727592357+726710464+727724509+727096706
3466+723888184+723021214+726104367+728539208+726947237+724057604+723291424
3453+723629545+723044277+720726984+717467229+715819237+714995360+712424776
3439+709470344+708708393+710569218+713350799+714638166+713330370+710311537
3426+708215137+708337713+708839349+708570894+708258948+707355269+705087773
3412+703210031+703200295+703109480+700890504+698316169+698194311+699464680
3399+698848528+696764018+696300448+697242512+697264457+696553101+696045081
3385+695289914+694340749+693870714+694140685+694613831+693972223+692878296
3372+693119059+692712707+689917719+688235092+689380731+690167659+689887155
3358+690264778+690064874+688545522+688234533+689632905+689245386+686489661
3345+685678154+687417121+688340511+687502509+685683341+683514480+682512964
3331+684541613+687391105+687219451+684484474+680446170+677589017+679173806
3318+683430369+686799373+687794265+685745666+681716300+678912295+678674963
3304+679119541+679386319+679882528+679915566+679167821+679612239+682169895
3291+683282975+681540257+680343066+680666584+680976296+680412175+679510172
3277+679901282+680566352+680259035+681212430+682590213+681222166+678483279
3264+676593486+675925144+677059929+679050512+678905671+676003031+673930730
3250+674656530+675686456+675529405+675424944+675314897+673857871+671367967
3237+669273082+668632112+669065956+668306200+666501596+665643604+664349733
3223+661750181+660190649+660009179+658675647+656447932+655361945+654499245
3210+654287490+655567276+655783779+654626888+653860589+654058139+654527615
3196+653297585+651135468+650787212+651812389+652794832+653772567+653920321
3183+652593412+650971594+650061771+648963894+646471316+643551438+641085435
3169+639734665+640954958+643238534+643302256+641492305+640921840+641788610
3156+641951886+641168469+639384733+636836293+635354848+635755813+636570592
3142+635829431+633309401+630164002+627550844+625626975+624241731+623645889
3129+623192174+621925077+619420768+616312398+613904330+612214641+610306893
3115+607927115+606005242+604888093+603162492+600282276+598207063+597714764
3102+596202595+592593426+589068569+586948946+585878641+585092271+583837064
3088+582004928+580237791+578659306+576748805+574629581+572988571+572093431
3075+571364240+570134729+568060434+564893608+561547268+559561793+558709427
3061+557775503+556606123+554975647+552495878+550366320+549129747+547322948
3047+544354470+541133539+538889704+538470704+538988499+538360417+536463283
3034+534910095+533598029+531907302+530414684+528845177+526981599+526227031
3020+527314853+528725793+529181343+529576962+530724915+532568183+535491972
3007+539557368+543958253+548583102+554634972+563215531+574454655+587510154
2993+600861559+612624744+621509228+628114047+632767305+634586992+634396624
2980+633222337+630258288+626235546+623752624+623223935+623221980+623965536
2966+626746838+631242288+635874519+639437562+642166234+645314186+648585313
2953+651466168+654997449+658533359+659766301+658100713+655155737+651749465
2939+646467725+639188739+632045496+626816226+623348506+619835619+615613571
2926+612048453+609400581+605728847+600466140+595070842+589835906+584229212
2912+578115495+572076114+567369907+564232927+562024684+560430718+559386587
2899+558986819+559593235+561632497+564925370+568777934+572725065+576816357
2885+581315359+586443559+592471209+598700080+603555198+606427435+606976074
2872+604926238+601570002+597599011+592054323+584846800+576309335+566694901
2858+556972894+547090006+535701891+522380611+508180670+494783738+483399134
2845+473549683+464219265+455768066+448702790+442552683+436711291+431187153
2831+426436256+422504887+419176262+416637360+415066376+413763009+412218400
2818+411356218+411312726+410992201+410366912+409914953+409583734+409318113
2804+408933746+407924569+406160704+404068613+401938257+399536294+396644108
2791+393644707+390705597+387523968+384251165+381205718+378292584+375493765
2777+373105569+370999233+368808626+366700734+364840827+363213623+361993649
2764+361132744+360248418+359267770+358356989+357367802+356145474+354804879
2750+353567069+352499517+351395774+350179750+348945132+347840113+347050751
2737+346401801+345530162+344383606+343147951+342122893+341395457+340654376
2723+339806638+339078085+338656371+338371837+337650426+336689449+336246189
2710+336115752+335742718+335165948+334598934+334028190+333354062+332481406
2696+331250260+329801812+328518535+327465268+326470595+325282462+323726341
2683+322025420+320440371+318984841+317729814+316678422+315500443+313903005
2669+312155400+310760739+309723013+308686065+307602193+306765608+306083599
2656+305163481+304025703+302867616+301936405+301481194+301245140+300776223
2642+300141956+299800503+299846768+299898959+299790149+299760123+299918770
2629+300108619+300235205+300212441+300078374+300199374+300724611+301425393
2615+302123681+302775983+303503000+304363585+305067879+305511897+306019319
2602+306701128+307232151+307493662+307984684+308925491+309720559+309934548
2588+309686583+309206933+308704798+308220779+307660229+307132458+306759283
2575+306347186+305709886+304811415+303546452+302060777+300855766+299972157
2561+298898839+297560299+296391458+295589208+295091163+294781372+294389863
2548+293850919+293391898+292969845+292518464+292307926+292355788+292313971
2534+292127713+292037617+292103633+292204523+292166138+292004020+292107863
2521+292612072+293186368+293759326+294372625+294853772+295320455+295947679
2507+296618655+297335696+298071112+298665059+299196301+299674715+299840743
2494+299783784+299940077+300285161+300403268+300366359+300488237+300514612
2480+300193807+299710366+299171204+298586354+297899757+297055332+296254837
2467+295717330+295349502+294886571+294277581+293625099+292959869+292313133
2453+291719326+291174976+290674258+290313912+290171405+290040929+289618058
2440+288953386+288495183+288373006+288125859+287565608+286992789+286486964
2426+285949577+285572592+285563335+285728106+285698659+285414863+285102118
2413+284886214+284797654+284869396+285048631+285228166+285347590+285438584
2399+285497258+285515533+285582866+285701292+285781992+285719587+285337973
2386+284463941+282966994+280614289+277150361+272754344+268015916+263296581
2372+258495449+253553227+248788385+244355639+240432949+237874554+237290423
2359+238565640+241676405+246632712+253229131+259901642+263393341+261964106
2345+257545884+254234039+253382551+254045087+255465405+256964886+258307057
2332+259790637+261853880+264306716+266665945+268939545+271478169+274482518
2318+277560523+280002267+281643876+283094797+284827978+286701172+288598048
2305+290522934+292273113+293744144+295128012+296426611+297413324+298185409
2291+299089925+300227963+301354768+302268701+302892195+303182654+303405222
2278+303819415+304293479+304653307+304946121+305244341+305493483+305743583
2264+306072906+306364961+306584876+306781229+306854268+306740011+306493523
2251+306283723+306329450+306462200+306420504+306385291+306504416+306594073
2237+306538411+306413920+306257727+306172858+306205417+306134553+305985124
2224+306005972+306214056+306445721+306544895+306552117+306654184+306926429
2210+307231353+307433072+307615600+307935825+308358976+308740629+309126213
2197+309652907+310269577+310791483+311232509+311784560+312413180+312982907
2183+313580725+314338844+315143469+315764089+316179619+316571267+317091677
2170+317726941+318420900+319192825+320029370+320791041+321404420+322072902
2156+322972271+323991523+324951562+325827290+326691068+327648473+328783758
2143+329951162+330976040+331955331+333106277+334409684+335577328+336568470
2129+337576250+338731744+340058853+341379816+342683742+344097556+345454430
2116+346680589+348005184+349541733+351229985+352907984+354414008+355930447
2102+357783731+360043246+362498637+364839830+367133621+369746460+372727427
2089+375861254+379123962+382622046+386331126+390147620+394062949+398269436
2075+402798284+407448191+412235118+417158627+422179933+427599012+433594262
2062+439834066+445996861+452067843+458190099+464612889+471406160+478181076
2048+484520752+490781504+497488070+504415130+511468156+518643360+525373947
2035+531517230+537492530+543489137+549556847+555689517+561704678+567550459
2021+573164854+578275778+583039921+587930591+592795086+597289938+601654712
2008+605794963+609233874+612234592+615094897+617749513+620452489+623098247
1994+625066805+626609259+628545098+630833023+632963539+634547769+635402529
1981+635869531+636618753+637758686+638549843+638417492+637508227+636544417
1967+636367536+636870568+637105186+636784861+636415337+636038672+635372723
1954+634661767+634212561+633833182+633197159+632429902+631834898+632003999
1940+633434052+635287335+636719224+637951009+639489114+641625575+644345908
1927+647069153+649426307+652547246+657147756+662699546+669342031+676387357
1913+682632109+688393340+694464362+701331889+709119613+717254158+725046671
1900+732429559+739287510+745564102+751449665+756659942+761937891+768452135
1886+774986807+780000053+783602797+786625381+789645889+792248713+793503202
1873+792705899+789666318+786826562+787349744+789117120+788882183+786080971
1859+781793684+777902376+774592665+770603120+765818427+760332832+753629857
1846+745643745+738888739+735902785+733429080+728992165+724079709+719189119
1832+712694826+705320396+700477767+697569540+694994328+693625802+692341308
1819+690040295+687456463+684915246+682038062+679461014+678462530+678261429
1805+677183702+674588459+671441544+670108291+670745191+670529167+667953675
1792+666390831+669066395+672236453+673000158+672397892+671695075+671750059
1778+672731465+672468916+669450403+666477536+668150427+672712871+676535151
1765+678237967+677957064+678050512+679430290+681193437+683054980+682890668
1751+680254725+679607371+682867685+686572256+688684138+689695151+691461171
1738+693811102+693885478+694320958+700220645+707562994+713986103+719071251
1724+722286317+723849240+722668569+719240751+720474730+729328930+738899592
1711+745061748+747408647+748147375+750669041+753344964+753332834+755216642
1697+761872294+772314315+784585001+793685869+799601916+802868454+803183034
1684+808692808+823838284+837463211+845128200+850088457+857388272+864615387
1670+869903471+878820155+889549624+896070570+900854146+908323859+914539802
1657+914491921+908597181+909012711+922529266+931250516+935292491+944912471
1643+956233352+962029935+961902970+957357444+957266869+968477544+977950050
1630+980179560+981011097+983497171+984944462+986471155+988573062+988755569
1616+990414255+996858991+1003013885+1006315696+1008085546+1010156410+1012519908
1603+1014880134+1018194474+1021259592+1021796181+1021254325+1021699540
1591+1021630911+1019944453+1018764420+1018978050+1018504664+1016462210
1580+1012413532+1004379777+997715107+999378422+1000337882+997230948+998675047
1566+1005064878+1010279225+1010916605+1006577766+1010096239+1025360620
1555+1035280895+1038585978+1038743507+1038272116+1035654289+1027816130
1543+1015945651+1007230467+1015651820+1032325106+1041351519+1046253441
1531+1053390300+1059636488+1062248888+1062526520+1059686843+1053782607
1520+1050361891+1050658356+1054405781+1060525084+1062457810+1056008925
1508+1042779736+1038052581+1051304194+1062796330+1065717246+1063245856
1497+1061933989+1065921619+1068373139+1063069892+1057531149+1062208828
1485+1070068853+1073197892+1073643826+1073741823+1071398994+1065866955
1474+1059830087+1058937262+1062557004+1062560755+1058568975+1057170683
1462+1056996156+1051775744+1041437785+1036085220+1038770480+1039016989
1450+1034044362+1025866725+1017181546+1011021385+1007253690+1002779666
1439+993233264+978241966+967791006+963873523+959161609+953883820+951101441
1425+950619197+951915581+952098727+951173342+956825164+968272772+978601953
1412+985897857+990397018+992905357+994755488+997902802+1001814380+1005100869
1398+1009894260+1016092567+1021764340+1027362774+1030248417+1029520303
1387+1029668416+1031554298+1033375062+1036069420+1038684214+1039679825
1375+1041038216+1045041966+1049638006+1053172839+1056437223+1056323026
1364+1051307306+1048152331+1050240671+1052738716+1053169248+1053451987
1352+1054250167+1053134135+1049410810+1045016908+1040494843+1035080752
1341+1029588534+1026157683+1024088814+1021569702+1020024894+1020334845
1329+1020998479+1021004305+1020782056+1022192159+1025438507+1027834005
1317+1028667458+1030249135+1033396130+1036372348+1038420788+1040988100
1306+1045077477+1048773670+1049360135+1048487260+1049130704+1050097826
1294+1049350958+1048189279+1049751804+1054838548+1060427406+1064805747
1283+1069467863+1072767599+1072401627+1071452222+1071390535+1069544394
1271+1065389898+1060022490+1054061196+1048331487+1043261661+1039007652
1260+1035021060+1030290872+1025901838+1023167260+1021009412+1017569304
1248+1012650464+1008546643+1007231824+1007763066+1007963928+1007287685
1236+1007003430+1007436516+1007862978+1008048359+1007854519+1007657648
1225+1007831696+1007729549+1006871278+1005799696+1005514324+1006067751
1213+1006336844+1006152581+1006265101+1006742318+1007964327+1009952197
1202+1011445533+1011906310+1010957862+1008543291+1006582793+1005617268
1190+1003971031+1001799697+1000151545+998611444+997220654+996458783+996085868
1177+995849734+994822761+992346263+989642809+987671219+986195439+984693644
1163+982956113+981531008+980612805+979324241+976532685+972627411+969215553
1150+966323367+963191933+960269901+958001128+955635714+952656544+949679208
1136+946846793+943942476+940873289+937532136+935005123+934056516+932732839
1123+928898270+923564938+918626546+914705232+911861086+908544193+903157074
1109+897536854+894587050+894201287+894303992+892982230+890088926+888430639
1096+888782327+889248531+890431915+892231293+892744739+892755752+893392493
1082+893640677+893569893+894566062+896686882+899194662+900578110+900281406
1069+901452821+905150131+908243339+910386902+912240625+912289304+911721991
1055+912601569+913838342+914496869+915309653+916369903+918100810+921108151
1042+923699644+924544109+923426002+921208063+920653598+921026035+919773781
1028+917899709+916350671+914469417+912743378+911928279+911436858+910786631
1015+909435582+907459842+906111586+905370385+904447633+902737315+900897638
1001+900198173+900016464+899870426+899916073+899916312+900544035+902787910
988+906751120+911051015+913784715+916320426+921836904+929431507+935152996
974+937190264+937572994+938359204+938650961+938205107+937975356+937346117
961+936443556+937728529+941213246+943070479+941678172+938810884+936966100
947+937501332+939305737+941186911+942255939+941467256+939664048+938943914
934+939425440+938774893+936414747+934674822+934473562+933689985+930639232
920+926286188+923281241+923728213+925446671+924503969+921607632+919832914
907+919633808+919287866+918608192+919053647+919571722+918990284+919049657
893+918972967+917230249+916499422+917785273+918895000+918862441+918073597
880+917348276+917407809+918479950+919559193+919631733+920138317+922280364
866+924435419+925656630+927485693+930592947+934457681+939185076+944532453
853+949945907+956052122+964110136+974100876+984185464+992483284+999034156
839+1005247306+1012017235+1019376981+1026887154+1032752925+1034333565
827+1033049550+1032924899+1033760666+1034636414+1037014276+1039654448
816+1040038934+1039139804+1038465477+1037727068+1036827380+1035883401
804+1035002865+1033855790+1032503304+1030990576+1026797696+1019779024
793+1014878538+1013016437+1008876864+1001937435+996155775+991204056+985536673
779+978795553+971645207+966384415+961684711+954405965+945834743+938287063
766+932951417+930831395+930162654+928975997+928367027+926356015+920886461
752+917921654+920243017+922258977+922619363+923066095+921621518+918671794
739+916058436+912831479+909526237+907829326+907098419+905682730+903087646
725+899831482+895898437+891779852+889403027+887930679+884821351+882516667
712+885680580+893913760+901459445+903897158+903601492+904560872+906618808
698+908966665+912684643+917039043+918204313+914981507+911270630+910038566
685+910344527+911176703+913634527+917845922+920628221+920061068+916990683
671+909838981+901336470+905219958+915969057+919194896+918613858+917410682
658+914256425+910834113+911310372+917067772+924240542+929057235+930929153
644+931056357+931226495+930267115+928284193+931304302+943076863+955348267
631+955307728+944507475+933454409+925578184+919797482+913642747+906773943
617+903529111+908255549+919553288+929951019+934545224+934046222+928649207
604+921767635+922812883+932680888
##END=
