##TITLE=Sample description
##JCAMP-DX=4.24
##DATA TYPE=INFRARED SPECTRUM
##DATE=13/9/2023
##SAMPLING PROCEDURE=Instrument type and / or accessory
##ORIGIN=Default
##XUNITS=1/CM
##YUNITS=ABSORBANCE
##RESOLUTION=4
##FIRSTX=4397.6552
##LASTX=599.8556
##DELTAX=-1.9287962
##MAXY=1.8282675
##MINY=0.45836008
##XFACTOR=1
##YFACTOR=1.7027068e-009
##NPOINTS=1970
##FIRSTY=0.47790095
##XYDATA=(X++(Y..Y))
4398+280671320+281145369+281024756+280262347+280283665+280119943+278436058
4384+276791030+276233387+275574402+274965966+275702909+277370236+278245364
4371+277788468+277194104+277280254+277972266+278657750+279121682+280224278
4357+281168927+279966880+277453917+276037985+275842775+275383026+274716865
4344+274972232+276153714+276798136+275313627+272897875+272402368+273630354
4330+274335932+274262332+274843253+276611747+278069127+277221514+274890354
4317+274118230+275107862+275212985+274037962+273392927+273756778+274265500
4303+274204502+273301545+272136796+271626359+271521901+271967665+273740045
4290+275124805+274411282+273960914+276028620+278230364+277524559+275018020
4276+273348925+272924567+272792945+272957157+273810284+274805990+275299274
4263+275159426+274888516+275016340+275112151+275044344+275057419+274641532
4249+273988236+273692542+273217041+272590261+271955203+270513051+269194960
4236+269419032+270520490+271494579+271905758+271724778+271529095+272031201
4222+272815261+272907589+272950121+273450477+273545150+273091405+272903388
4209+273436160+273875693+273336550+271975524+270686803+271121312+273335500
4195+274790727+274712227+274638312+274673493+274272466+273407472+272692811
4182+273031090+272681819+271071656+271382823+273282659+273702501+272908692
4168+272472974+272800034+273596031+273743843+272637817+271781995+271923016
4155+271480734+270564195+270725571+271466750+272062479+272697484+273103972
4141+273264438+272973015+271834188+270948576+271312812+272261277+272586166
4128+271649287+270720986+271327707+272335997+272436201+272529981+273419409
4114+274386883+274631731+274107991+273158546+272247239+271332030+270642083
4101+270948646+271984486+273203336+274245774+274706748+274730272+274189502
4087+273773756+274643335+275457308+274879992+273875518+273114159+272535565
4074+272100828+271777969+272204182+273645302+274538318+273695220+272671247
4060+273044357+274106328+274930103+275330744+275803253+276550505+276182331
4047+274786754+274151398+274209823+274200232+274012898+273614899+273528802
4033+274206200+274963813+275124053+275338008+275955616+276214589+276260114
4020+276880155+277660977+277833783+277822949+278242266+278832307+279321705
4006+279649220+279602137+279333415+279149722+278929763+278661391+278509710
3993+278489967+278690060+279093152+279403672+279646682+280315678+280675275
3979+279715591+279246285+280535987+281581646+281708262+282096669+282551290
3966+282541961+281944009+281218058+281490281+282089108+281772253+281314132
3952+281504213+282244044+283135187+283013682+281938513+282048729+283520076
3939+284311015+283984988+283170088+282854090+284021622+285006073+284023197
3925+283353868+284994976+286172957+285364392+284897607+285886014+287008826
3912+287549736+287582554+286353272+282918116+278933141+277793474+280518519
3898+285451259+288812536+287996270+285409952+285574060+286656510+286637099
3885+286666206+285417496+284905536+288067909+289445913+286913890+284033226
3871+282645508+284082934+285576038+284630986+285677624+289569589+291275703
3858+288656830+281852731+276968912+282814411+290633398+294165415+293156285
3844+289538381+286191195+284341312+284948138+287834018+289911526+290977365
3831+292852505+295085158+296589218+295829172+291604810+289127606+291508666
3817+293589097+295923793+299181784+300320349+298421983+296116885+295811354
3804+294440981+293187983+295809709+298298798+300312682+303452494+305677359
3790+306500976+306736075+306837627+307460241+307612796+307006635+308530648
3777+311751884+312814836+310975175+309451056+311316867+314277414+316303201
3763+317472290+317142990+317844087+321344424+323965589+323365029+323395414
3750+330925481+341556433+355190850+379194410+403857095+420374031+429537854
3736+434084550+438221573+442393671+444747532+444964043+446158897+450113959
3723+454939302+461621317+471657066+481913071+487936732+490479170+497698980
3709+513473547+531517612+547417465+563270375+581472176+597823569+608597450
3696+613344309+612339642+608798173+607007556+607623728+608131522+606254230
3682+601753112+595274165+586594542+576603987+571636066+569802986+565093478
3669+561604938+560465989+557794730+552535666+544494024+534787960+526132246
3655+520818678+514006826+500618045+487245787+483581413+484486068+483167959
3642+478361765+472299983+466763567+461263313+455767469+449908510+441909996
3628+436713697+436681737+435493499+430353245+422398662+416937579+415207732
3615+412919331+409772448+406742660+403878484+402700678+401943047+398904927
3601+394829374+392134696+390290975+388065900+385662961+382979554+379078681
3588+375809523+375840713+376897923+376501413+375074610+373594949+371727179
3574+369496678+367087963+363417323+358809682+356745914+357608877+358296916
3561+358211152+357750335+356253977+353718645+351472987+350110841+348715929
3547+347212219+346574063+346583234+345960411+344572150+343472197+343046386
3534+342745406+341631381+339375676+337145805+335915666+335616471+335794091
3520+335481734+334593461+334029062+333456507+332252377+330887150+329798399
3507+328782495+327634374+326948225+326770851+326156498+325267491+324922998
3493+324909416+324472509+323697690+323181634+322738075+321924225+321106314
3480+320643677+320109068+319243164+318471006+318230061+318207797+317767039
3466+316826888+315785604+315357343+315591672+315677857+315417833+314794275
3453+313676189+312526283+311820670+311605490+311342806+310717042+310412841
3439+310684627+310970589+310813623+310153833+309529434+309248793+309046389
3426+308541815+307302819+305951350+305889004+306858280+307505083+307764161
3412+307793146+307006250+306067114+306119028+306801676+307262388+306953321
3399+305960346+305196519+305089296+305231070+305292295+305318690+305527779
3385+305807616+305786262+305320370+304501129+303643451+303174688+303472273
3372+304248562+304408783+304006741+304435388+305636192+305992832+305146741
3358+304392961+304473474+304823112+304860988+304582482+303860067+302771946
3345+301941923+301400698+300988925+300912332+300646043+299769357+298836697
3331+298095484+297435414+297024236+296729277+296236815+295838099+295585462
3318+294768251+293329967+291769267+289985231+288451468+288094146+288088230
3304+287202373+285675437+284032228+282782048+282505555+283022748+283917812
3291+284995834+285661277+285899701+286397082+286731702+286434135+286537822
3277+287833650+289432296+290478550+291281269+291830142+291678585+291084606
3264+291196449+292348508+293075264+292734675+292283783+292207225+292338462
3250+292493835+292505895+292534547+292960830+293610276+294094879+294249499
3237+294227936+294605649+295184050+295305100+295457200+296366056+297528565
3223+298005869+297693442+297172415+297204691+298185449+299505448+300119765
3210+299840699+299450209+299755215+300689975+301411515+301806241+302657687
3196+304030685+305253859+305967732+306293672+306572038+307063730+307671046
3183+308120345+308393181+308794382+309488093+310167871+310552795+310587905
3169+310496120+310802946+311704696+312990845+314080436+314513038+314831731
3156+315636970+316601940+317172780+317246432+316910762+316531123+316818031
3142+317649874+318187109+318244133+318033293+317597366+317194169+317128288
3129+317365872+317813562+318072920+317719151+317241076+317074344+316864904
3115+316426141+315903924+315386118+314943855+314508767+313856679+313071148
3102+312486936+312212140+312166703+311987893+311428535+311032899+311080927
3088+311268734+311707217+312387205+313152082+314063668+314609374+314523680
3075+314371999+314321241+314380541+314880389+315504333+315569199+315342816
3061+315514449+316174414+316869070+316976397+316463947+315900389+315673271
3047+315936445+316405137+316225593+315278265+314613715+314628347+314339549
3034+313221183+312110449+311638115+311486855+311227987+310602398+309632947
3020+308705748+308314838+308560088+308656914+308100427+307518665+307246495
3007+307003975+306805947+306880439+307393099+308167813+308993600+310399119
2993+312880016+316018148+319136642+321920794+324313757+326445962+328258248
2980+329191888+329419356+329645213+329326380+328021153+326732379+326284445
2966+326379276+326259871+325684760+325071493+324571155+324021739+323601249
2953+323424749+323410957+323474948+323280315+322892906+322865321+323201342
2939+323280805+322582649+321341273+320195743+319342476+318797120+318727283
2926+318941694+318793409+318042465+317149746+316361835+315489245+314747682
2912+314587390+314902443+315436526+316048568+316412734+316470843+316305931
2899+315860377+315550260+315815885+316415569+316999746+317458953+317697867
2885+317818462+318093083+318413456+318551379+318643305+318801076+318797715
2872+318488999+318246479+318344005+318471461+318283620+317795989+317344589
2858+317096502+316836444+316510435+316240575+315860692+315071976+314128954
2845+313750506+314054007+314448347+314676410+314926912+315210599+315540669
2831+316019478+316617798+317235335+317633037+317783702+317937587+317988941
2818+317815487+317715790+317865685+318259431+318868182+319350282+319683397
2804+320472534+321619674+322354726+322674785+323048612+323416943+323723384
2791+324273781+324897409+325177736+325152707+324928529+324587363+324324154
2777+324212800+324143909+323949102+323639545+323424819+323357573+323300549
2764+323283571+323333944+323226301+323022988+323158775+323571109+323840058
2750+324122415+324534784+324581482+324202964+323936429+324010012+324111949
2737+323985193+323900093+324080303+324284632+324218121+323865368+323647071
2723+323980852+324512310+324572100+324274551+324262684+324649638+324977537
2710+324987934+324885402+324922998+325126312+325356370+325446020+325421516
2696+325384410+325333442+325450081+325765203+325937257+325958646+325885868
2683+325548202+325128203+324831878+324602730+324419860+324202124+323864597
2669+323502147+323242579+322983396+322625356+322408250+322327107+322094388
2656+321851448+321734668+321588344+321525474+321715835+321877457+321623350
2642+321130853+320865649+320793747+320688274+320697551+320845696+320871635
2629+320767528+320718344+320902825+321288449+321613933+321880538+322047971
2615+321941938+321868916+322187784+322794855+323368600+323705601+323896768
2602+324114854+324412509+324781610+325199299+325768739+326601597+327356148
2588+327645191+327744853+328012192+328260768+328297699+328379508+328695821
2575+329043358+329253673+329254093+329079974+329078469+329338807+329475155
2561+329419916+329442215+329488247+329422261+329464338+329726322+329883673
2548+329752436+329618784+329733918+329997757+330190499+330201246+330190324
2534+330414326+330693568+330694233+330679810+331049577+331554606+331783859
2521+331845189+332101292+332644967+333124897+333189378+333073193+333198409
2507+333478351+333669657+333859599+334157323+334593216+335192551+335714032
2494+335999575+336244335+336490181+336740158+337105584+337478991+337889154
2480+338445361+338824964+338788768+338510822+338207602+338011429+338017135
2467+338265431+338553284+338614719+338589095+338655886+338589480+338370274
2453+338398138+338719632+339053237+339339375+339613085+339851825+340042082
2440+340195162+340374672+340546481+340651778+340779899+340856107+340874730
2426+341123762+341552933+341883703+342021941+342028522+342088732+342181707
2413+342253154+342526130+342955546+343265243+343447623+343486409+343446818
2399+343683527+344195592+344617307+344863258+345081099+345241321+345182091
2386+344845790+344035231+342382571+339813494+336502923+332744034+328995225
2372+325308377+321476536+317655300+314005244+311172923+309956786+310130379
2359+311423319+313973843+317891029+323461295+329575797+333007977+331834687
2345+327867268+325145075+324902170+325993441+327537653+328844000+329756287
2332+330786683+332652248+335211069+337532375+339456889+341768884+344652243
2318+347467131+349950514+352187946+354230920+356258317+358355131+360473053
2305+362491279+364269049+365942502+367532467+368840494+370011439+371241893
2291+372467237+373651869+374826244+376057539+377254493+378026581+378364947
2278+378862275+379822205+380932274+381894864+382762448+383615085+384413183
2264+385147185+385966181+386985550+387891116+388492796+389096611+389749715
2251+390301827+390777416+391241103+391913004+392784719+393479375+393961860
2237+394404579+394824438+395400144+396201952+396866993+397285733+397672512
2224+397988684+398248113+398570761+398939092+399418357+399939349+400368240
2210+400911740+401606466+402127948+402467679+402850223+403269277+403714866
2197+404272649+404924422+405627864+406338518+407011014+407761434+408589182
2183+409347443+410164934+411009624+411694303+412480884+413450615+414310498
2170+415168280+416186775+417080648+417806109+418730087+419912899+421101242
2156+422218732+423325721+424339420+425313457+426465988+427728333+429008671
2143+430399942+431868997+433220221+434373418+435574678+437047407+438693066
2129+440370370+442032586+443614254+445051908+446393646+447865326+449582186
2116+451287495+452795020+454248917+455950725+458127772+460480478+462571620
2102+464599192+466913707+469358024+471670858+474081394+476918860+479846082
2089+482478905+485261447+488533476+491976964+495369097+498760426+502389339
2075+506441788+510570374+514322648+517891351+521825760+526461056+531712279
2062+536980865+541881364+546902564+552697602+559009782+565064983+570859672
2048+576762493+582748908+588698532+594649241+600959810+607766902+614475207
2035+620665986+626854525+633411605+639896713+646044505+651929403+657629121
2021+663206528+668760201+674562976+680498282+686023321+691087053+696012721
2008+700933209+706023616+711223660+715830916+719278149+722019945+724976606
1994+728226476+731518284+734950184+738614383+742249668+745140098+747298417
1981+749019303+750355475+752169477+754520537+756149568+756599323+756633419
1967+757403057+759189123+760931503+762031736+762824968+763260790+763287745
1954+763427488+763961047+764368654+764319366+764347231+764415212+764661303
1940+766188747+768657497+770424381+770898640+771359177+772809748+774682279
1927+776277704+777792406+780170281+783124282+785589462+788850114+793957253
1913+798807939+801824601+804386537+808218204+813099765+818294209+823382025
1900+828243563+833088508+837863932+842410558+846524372+850521476+855412699
1886+860920865+866218015+871126811+875172644+878108302+880792548+884043119
1873+886640410+887161927+887742323+891446009+896298936+898829647+899184746
1859+899893753+901479097+901850859+900274687+898249040+896579192+894617676
1846+891659615+889387667+889708600+889764750+887249301+883768743+880862840
1832+877097964+872177966+868844642+866863383+865343500+865330898+864817783
1819+861999604+858339746+855161217+852435104+850032585+848228105+847122411
1805+845660358+842883346+839535460+837189720+836350980+835347154+832807481
1792+831192313+832545148+834073502+834441763+834569814+834265264+833441367
1778+832800130+831417680+827811591+823848652+824670099+829018382+832739430
1765+834666500+834507434+834362930+835554108+836642159+837861692+837736651
1751+834949908+833805637+836749487+840211772+841714012+841431305+841357653
1738+842164817+841405891+840009159+842833428+848595386+854379327+857721193
1724+858251951+858084833+856746071+853680541+853982991+859630270+865823850
1711+870686788+872890125+872083800+872130988+873072855+870773183+869703405
1697+874107207+881674485+891003746+897786473+901049226+901381431+897493965
1684+896252518+905627987+916279767+922446182+924612343+925955446+927119879
1670+927962399+934198336+943870094+948829928+950260196+953955060+958696038
1657+959542129+953100148+947977187+956263204+962650996+964095336+970276033
1643+978359297+980455796+977180371+971549195+970075660+980116379+991886666
1630+996126291+994452872+992839874+993045288+996010491+999830396+999763885
1616+998826009+1004047617+1010340403+1012220426+1012296109+1014145256
1605+1016090809+1017713609+1020805113+1023018601+1022423922+1022208076
1593+1024035940+1025035846+1024149779+1025123151+1029525763+1033597570
1582+1035309424+1034537126+1029548867+1026049895+1031083102+1034658106
1570+1031072740+1029055005+1032640651+1036079972+1034388421+1024796617
1558+1018828615+1029178505+1040977006+1048883911+1053829813+1057427921
1547+1058979099+1057274736+1052357748+1044808813+1046812756+1057529788
1535+1060567873+1057761106+1060545679+1065315782+1064419633+1059593591
1524+1054249323+1052025963+1055747712+1058854688+1060840288+1064429575
1512+1064833542+1059224070+1050707224+1051541623+1064886751+1073363270
1501+1073741823+1070981684+1070371813+1072369875+1070819887+1064331069
1489+1061757371+1066789107+1071430529+1071915219+1069583272+1066529574
1477+1062683415+1057261573+1052193081+1052313851+1055941434+1054694037
1466+1046782371+1040018477+1037264079+1030720651+1019811648+1018916619
1454+1027167141+1030227139+1024789055+1014152117+1005940662+1001314363
1443+995662674+988344987+979147068+967984272+960152000+955751559+950550114
1429+946300828+944341902+942463560+941750211+942260246+944349323+953487453
1416+964881637+970248309+970901867+970875823+971035240+972550782+978645225
1402+987525501+994078660+996809394+997682369+1000844655+1007268573+1011713962
1389+1011951301+1011364184+1011661943+1011999749+1013531534+1017542641
1377+1022668263+1026845857+1030325086+1032528912+1031892156+1030391037
1366+1029430267+1027743406+1026942613+1028927303+1031218924+1032098340
1354+1032289542+1030849613+1026213512+1019747447+1014805746+1013340052
1342+1013116785+1010791979+1006950580+1003609135+1000896254+999123069+999059568
1329+1000965285+1002730769+1001776510+1001531539+1005306147+1008325539
1317+1007487779+1007906729+1012024253+1016072606+1018860820+1022009523
1306+1025027725+1027889591+1029950663+1030195774+1031594117+1034764244
1294+1036583496+1037539785+1039163425+1042460203+1048673946+1055419847
1283+1059965703+1062903671+1065328804+1067909643+1070941287+1073306141
1271+1073037436+1070135033+1067706400+1067741826+1067846143+1066113425
1260+1064352282+1062683275+1060199752+1057968831+1055274993+1050663817
1248+1046391006+1045354344+1046563165+1046941158+1045783445+1044063189
1236+1041536399+1038634417+1036752994+1035179833+1032913066+1031176777
1225+1030918504+1031117197+1030156148+1028038926+1027047841+1028160816
1213+1029275541+1029009147+1028648727+1028936055+1028135892+1026275963
1202+1026231645+1027953161+1028443593+1026595986+1024383758+1023200701
1190+1021382639+1018759303+1017761217+1017968872+1017433213+1016889782
1178+1017027495+1016752069+1015581405+1013722666+1012011091+1011504277
1167+1010530695+1007223485+1004626964+1004927664+1004797792+1002386241
1155+999368250+996135882+992667366+991208533+992359244+992332430+989971007
1142+988665010+988558383+986073459+981376799+978104105+976076008+973157992
1128+970353046+968782965+966577879+962531346+959251371+958100729+956344207
1115+952264699+947893033+944519032+940816816+937627296+936651824+936078289
1101+933224194+928647813+925678830+926115632+927946857+927432761+924884058
1088+923903195+924076123+924216497+925426228+925631502+924132623+924771969
1074+926858176+928070427+929376845+929920485+930631313+932814906+933773085
1061+933486178+934207368+936383329+938932873+939934670+939127575+939268929
1047+942161880+945185683+945665332+945106919+946351726+947652053+946018051
1034+944728437+946328623+947240314+944357235+940647458+939528042+938382162
1020+936408743+936735838+937901042+936588113+934305384+933577613+934069935
1007+934872618+934461370+932777170+932938337+935008091+936292104+936902746
993+937648300+938117378+938852220+941324191+945625356+948933476+949926451
980+951495902+954994873+959181989+961921895+961230600+958920216+957103554
966+954899937+952804279+952553357+953107009+953601291+955348642+957517182
953+959031814+959356178+955549435+950192985+950170511+954430929+957077789
939+955769552+951454105+947553126+947417514+949997302+950688877+947312916
926+942243513+938924612+938160505+937049630+935128161+935047857+935448394
912+934125384+932693506+932481511+931727835+929943939+928846436+927319903
899+924332786+922535867+925469285+931877590+934177263+931460041+930010450
885+929878198+929489703+929221209+927660229+926836892+929977614+934585570
872+937197285+938658007+942169441+947987478+952104233+953055481+955040451
858+961765909+969647889+973057386+974376545+978705295+986840367+996057259
845+1003422834+1009173450+1014517298+1020215685+1025905251+1029398832
833+1029924759+1029351014+1030364922+1033852412+1038123052+1039620251
822+1036441442+1033228818+1034891735+1039021231+1039973670+1037036051
810+1034875352+1035475422+1036388794+1037194978+1037913927+1037009447
799+1036228747+1036491711+1035065154+1031285015+1025791692+1019918346
787+1016419584+1014184463+1009771349+1003928458+998868366+995886291+994117797
773+989480856+982856565+978979600+978026742+978625551+978942074+975238528
760+968141869+960374427+948010652+935356399+937601602+950845983+956251302
746+953778281+952455411+952609297+953317184+953406169+952412074+953411770
733+955273099+950837092+940528228+932441184+927688374+922678201+919084434
719+920089591+924286788+928358035+931898804+935985243+939646502+940482861
706+936957845+934067974+938012780+943829137+945033337+945017095+947298284
692+950637419+952540265+951997395+951741852+953957161+955236973+954289856
679+957835875+966547074+970034493+962902688+946637094+927453275+925373159
665+940211426+950241153+953339658+954906588+956503134+955426495+950992518
652+947335810+951132261+958629247+952846286+939907575+941167365+949195109
638+945464819+937249303+937977564+944771144+943225987+926003124+909701964
625+912095662+922007209+919478249+914353677+918341960+926566507+935930564
611+933819643+916690876+908677134+909434519+900130673+889670234+891722555
##END=
