##TITLE=Sample description
##JCAMP-DX=4.24
##DATA TYPE=INFRARED SPECTRUM
##DATE=13/9/2023
##SAMPLING PROCEDURE=Instrument type and / or accessory
##ORIGIN=Default
##XUNITS=1/CM
##YUNITS=ABSORBANCE
##RESOLUTION=4
##FIRSTX=4397.6552
##LASTX=599.8556
##DELTAX=-1.9287962
##MAXY=1.8531451
##MINY=0.48021224
##XFACTOR=1
##YFACTOR=1.7258759e-009
##NPOINTS=1970
##FIRSTY=0.49729338
##XYDATA=(X++(Y..Y))
4398+288139713+285872346+284750465+285178745+286359181+287672442+288318177
4384+287679885+286095396+284955729+284663435+284401739+284033949+284034502
4371+284975656+286715280+288357134+290130033+292467560+293622336+292067081
4357+288764053+285865801+285503244+287222664+288471896+288343561+286843823
4344+284622976+283554298+283291013+282034909+281055592+281903759+282794301
4330+282021457+280352321+279457047+280280244+282176523+283457286+283778625
4317+284265011+284578079+283872943+282647334+281425178+281076832+282202960
4303+283142043+282627924+282012633+281555378+280451646+280408113+282208365
4290+283325394+282887392+282352742+281907143+281590518+282041971+282604578
4276+282252278+281259302+280962742+281960000+282861750+282335854+281109658
4263+280504727+281002510+282559129+283838580+283399197+282447284+282495099
4249+282913502+283027764+282863597+282299920+281913947+281998594+281525660
4236+280545480+280220238+280704224+281164725+281052674+280777941+280493555
4222+280132931+280511911+281762179+282537665+281561301+279280413+278242627
4209+279453749+280662021+280557395+279909122+279612493+280370038+281917072
4195+282676879+282191943+281929937+281842786+281021039+280343376+280812891
4182+282231729+282749784+281602692+280974951+281301367+280928759+280132413
4168+280304298+281300400+281719234+281043245+280378723+280371592+280160457
4155+279719692+279869682+280225090+280378723+280644494+280897262+280736152
4141+280210033+279865071+279584968+278769973+278379510+279507884+281025183
4128+281322174+280605037+280240442+280691169+281134524+280898799+280596731
4114+281030588+281631202+281485236+280672745+279925457+279745111+280278517
4101+281014891+280774781+279735734+279015264+278992056+279364750+279110825
4087+278609329+279162128+279798952+279844022+280481416+281435262+281326353
4074+280251631+279377908+279575160+280671622+281451736+281173394+280482832
4060+280327645+280877663+281145178+280359798+279662345+279991403+280404522
4047+280167018+279747908+279476836+279017422+278639289+279248554+280577495
4033+281504541+281856082+282271359+282990499+283363729+282852770+282192082
4020+282027725+281937017+281921199+282312180+282697877+282906508+283036587
4006+282609171+281981758+282104930+282599743+282954755+283304102+283358738
3993+283149934+283417639+284186373+284667734+284678251+284724978+284982961
3979+284946473+284378445+284060628+284451298+284883981+284868820+284775400
3966+284805274+284785761+285073980+285727761+285957822+285330357+284597834
3952+284763744+285622341+286234696+285430477+283668560+284058262+286811048
3939+288289443+287257787+285237853+284054740+285119705+287133959+287638148
3925+287312475+287315169+286479901+285304697+286037756+288685863+290869550
3912+290954404+289373853+286852388+283684239+281604022+282000787+284320252
3898+287630101+289547257+288361261+286240706+286825899+288160037+287835883
3885+287425839+286826054+286598187+288623146+289494296+287583841+284985188
3871+283170431+284053255+285841488+286233764+288001656+291452757+293212153
3858+291624780+285806676+280407975+284339298+290901599+294295578+293371813
3844+289576475+286422140+285128961+285757203+288168930+290122988+290875663
3831+291644777+292599901+292913141+291347906+287541258+286326251+289357310
3817+291744102+294464113+297975100+299399325+297608951+294204507+292151384
3804+290858326+291489158+295100195+297064976+297681372+299318132+300681953
3790+301149086+301023755+300347163+299991581+299816243+299521133+300861954
3777+303808763+305727818+305286450+304210726+305038931+307106802+309384685
3763+310897736+310460788+310164988+311507156+312031687+310878983+312116162
3750+319975562+329089857+339422716+356968464+375282531+387958926+394456196
3736+396251613+398293650+401818935+404091292+403843566+403755224+407325612
3723+414037384+421809374+429764058+437493706+443338075+447518954+456364906
3709+472030727+487781748+499847169+510175435+522904946+537612362+548852756
3696+553836732+553985720+550532443+544529278+541184270+542246732+542452393
3682+538769798+531716120+522031879+512053358+508183198+507172402+503295922
3669+500698029+499858808+496314839+490601637+484679562+477185725+467463909
3655+459672096+452941916+442597108+432870284+431102116+431803229+429476685
3642+425031226+421008176+417208780+411899717+405533511+398902829+391455580
3628+387691515+388316441+387734166+384056233+378231481+374190368+372602754
3615+370070859+366348651+363170210+361450565+361450876+361424836+359297253
3601+356137530+354008566+352412939+350692603+349537654+348013033+344248381
3588+340444012+339938061+340860272+340889697+339486332+337430687+335797001
3574+334751290+333403216+330352662+326211671+324856898+326554233+327610409
3561+327333362+326563246+325200564+323184083+321497420+320757005+319661976
3547+318387187+318578931+319296206+318974228+317716639+316195437+315016762
3534+314383132+313658880+312304901+310997614+310377833+310205430+310200008
3520+309823394+308784831+308016339+307759633+307168275+306499937+306383033
3507+306279736+305651011+305124062+304925239+304376498+303839224+303988142
3493+304385167+304022298+302604773+301292859+300956134+300978237+300889480
3480+300802967+300583906+300351860+300508100+300947949+301169669+300933616
3466+300245282+299239217+298714721+298948563+299116995+298989972+298663677
3453+298231667+298018408+297989398+298271867+298846855+299025820+298757925
3439+298599094+298453698+298070592+297866312+297930756+297844382+297810260
3426+297803353+297398420+297088357+297145721+297137605+297147102+297515807
3412+298369983+299024646+298535169+297669768+297758249+298538380+299279037
3399+299874988+300213025+300102061+299673955+299465600+299781983+300143712
3385+300197415+300289350+300693730+301198852+301363346+301178130+301255318
3372+301821948+302491323+302875880+302730311+302295850+302009927+301793353
3358+301463708+301272241+301497622+301848748+301770145+301086679+300337009
3345+300043350+299752455+299182854+298668477+298194265+297786396+297640689
3331+297545267+296857623+295404560+294117822+293808622+294153739+294315609
3318+293989418+293208112+291670402+289920884+289191710+288886655+287625836
3304+285933975+284613530+283431004+282751390+282859608+283078100+283749218
3291+285402934+286634466+286576274+286403111+286941698+287944758+288988518
3277+289737602+290104304+290414401+291149187+292038866+292391477+292690420
3264+293540037+294192869+294391519+294622184+294601773+294419977+294813409
3250+295481195+295519046+295109520+295126788+295549507+296034978+296536784
3237+296801053+297201669+298048351+298668788+298969941+299260664+299454479
3223+299774627+300555000+301524249+302122411+302292914+302307247+302381637
3210+302643592+303075739+303816879+304961571+306132890+306928251+307426362
3196+308095253+309134679+310079063+310895560+312092125+313125404+313301641
3183+312957249+312697643+313145953+314142141+315045392+315951165+316667784
3169+316808829+316779680+316937440+317477789+318446589+319393321+320493773
3156+322032139+322929934+322601774+322307563+322904653+323593195+323470973
3142+323023768+323455777+324325460+324238671+323522880+323007570+322888352
3129+323179455+323475152+323658572+323628940+322887385+321917445+321697003
3115+321804168+321444787+320958798+320576417+320132665+319770937+319340240
3102+318387360+317228370+316640397+316548566+316612976+316743210+316731779
3088+316881561+317530352+318167297+318326508+318273184+318422932+318920352
3075+319490851+319651719+319582440+319763960+320077684+320409816+320876465
3061+321023035+320713421+320791852+321161904+320996270+320548374+320461205
3047+320762393+320854085+320282827+319387554+318797405+318608908+318124300
3034+317012245+315897461+315194898+314747865+314237356+313430839+312519645
3020+311717445+310985181+310680782+311017092+311167634+310431191+309325283
3007+308760552+308780652+308763453+308701565+309033731+309845186+311172642
2993+313056885+315392305+317991199+320443074+322268848+323345780+324128640
2980+324977635+325486176+325229954+324423714+323477293+322520407+321560068
2966+320881956+320656022+320349274+319623503+318977475+318679430+318509203
2953+318262513+317924476+317926859+318563148+319274760+319323697+318819749
2939+318252256+317527451+316474003+315574516+315428947+315659164+315367094
2926+314674511+314284566+314225994+314039120+313456880+312683932+312170798
2912+311978019+311923486+312048506+312134259+312160817+312654231+313452286
2899+313989803+314318032+314647677+314966581+315343886+315840477+316229558
2885+316347533+316325879+316411286+316688229+316868507+316790801+316735820
2872+316760547+316539587+316116660+315930029+316161108+316592150+316922348
2858+316936611+316551364+315974614+315320021+314631238+314383408+314648471
2845+314855099+314758157+314583682+314702312+315245976+315890278+316354440
2831+316943035+317804084+318337767+318281508+318095774+318133314+318428078
2818+318883882+319349357+319713849+319916574+320050815+320418104+321125952
2804+322020846+322982912+323856117+324415702+324637388+324824330+325171658
2791+325523371+325736492+325795548+325773963+325808637+325824835+325609504
2777+325321889+325369894+325746818+325964981+325759217+325483758+325419729
2764+325451744+325543747+325668629+325671599+325572826+325558460+325671150
2750+325902299+326192849+326272247+326151613+326191606+326447620+326527295
2737+326197822+325862997+325907652+326125332+326236192+326236986+326317213
2723+326693067+327144002+327230583+327070406+326976468+327042052+327382887
2710+327865629+328136839+328194203+328260823+328259684+328053746+327926447
2696+328098366+328293425+328417616+328701018+328876598+328593162+328183808
2683+327970307+327837966+327620977+327266190+326928153+326784621+326710507
2669+326490583+326135174+325851807+325650670+325226121+324651444+324347459
2656+324356887+324453104+324485637+324483185+324483219+324297555+323862023
2642+323464480+323293458+323306098+323481541+323623103+323470455+323251981
2629+323412400+323865718+324082051+323821546+323380869+323340358+323919663
2615+324538442+324690297+324708980+325029992+325460309+325655609+325695291
2602+325883580+326340041+326963621+327635206+328211022+328657226+329083019
2588+329425995+329685014+330010964+330345340+330615272+330901540+331214539
2575+331496179+331681809+331758963+331867440+332060116+332167384+332143174
2561+332136958+332144210+332095929+332132917+332410482+332883796+333226185
2548+333153107+332917503+332853819+332853646+332868082+333126238+333578693
2534+333957033+334140177+334119801+334068377+334176543+334371257+334515202
2521+334689470+334968831+335252163+335551313+335865659+336079712+336247349
2507+336509235+336916517+337369938+337720512+338057824+338515010+338876186
2494+338991674+339049384+339202826+339605964+340296129+341004874+341476116
2480+341643028+341688201+341817711+341904085+341822339+341766770+341809560
2467+341828486+341898145+342132643+342397465+342392008+342153192+342053729
2453+342080805+342143350+342424990+342791899+342999908+343164714+343407225
2440+343740151+344196749+344533302+344473589+344252180+344201930+344341248
2426+344536064+344625098+344627170+344775813+345091367+345324450+345424880
2413+345511427+345613480+345829606+346242551+346640785+346765839+346801653
2399+347151743+347690641+347922618+347832238+347840078+348067980+348211753
2386+347927902+346965698+345116267+342292096+338751961+335000017+331156795
2372+327127874+323277296+319746243+316292793+313335969+311526289+311217297
2359+312608437+315450636+319531810+325216969+331257398+334322941+332992584
2345+329426996+326982029+326244342+326683224+328316288+330347205+331810317
2332+332919645+334638944+337018363+339184661+340972100+343198662+346223039
2318+349402136+352028417+354011018+355836067+357917337+360147457+362262193
2305+364240684+366156079+367865052+369258713+370579538+372078395+373573212
2291+374730889+375678381+376706756+377840673+378978699+379944426+380771905
2278+381610989+382333791+382929431+383634136+384570783+385629826+386584743
2264+387452492+388315440+388983018+389550167+390367769+391279344+392019966
2251+392742629+393474893+394030058+394416859+394697222+395046518+395719760
2237+396528970+397175068+397763386+398364242+398752321+398988305+399447978
2224+400061680+400559964+401030032+401551558+402025529+402370715+402664442
2210+403117968+403655691+404016211+404343784+404813817+405357170+405978816
2197+406504591+406937360+407626109+408433869+409167203+409994614+410794741
2183+411437420+412155041+413011841+413846194+414676713+415567324+416446780
2170+417367299+418440606+419600700+420746290+421772800+422608499+423379927
2156+424291087+425375134+426449718+427505169+428714478+429970617+431236564
2143+432684377+434127010+435354830+436565243+437880128+439187587+440534279
2129+442060385+443621615+445011166+446363107+447863139+449404786+450896529
2116+452558223+454529704+456533372+458333900+460067774+461912059+463952888
2102+466273906+468835087+471416057+473835089+476192024+478649045+481219827
2089+483912175+486665583+489499943+492589592+495947308+499533376+503290085
2075+507138488+511159328+515309366+519423522+523665910+528346765+533260841
2062+537984210+542717629+547855221+553431661+559299100+565193581+571079047
2048+577167896+583355033+589289196+595001845+600873843+606946563+613100374
2035+619331337+625595663+632173436+639003459+645273103+650878414+656367133
2021+662058577+668345144+674908481+680682880+685551541+689970960+694289534
2008+699024334+704244709+709546933+714369040+718231533+721450623+724497447
1994+727256864+730157049+733943632+737960915+741147817+743344507+745096719
1981+747209901+749295246+750510080+751527300+753029127+754530817+755541889
1967+756464343+757964788+759536309+760399015+760854337+761278644+761494494
1954+761527648+761726713+762380201+763367305+763805428+763363852+763496193
1940+765040431+766834293+767861114+768105697+768607504+770440599+773047920
1927+775112337+776464417+778064879+780057115+782198340+785773840+790561963
1913+794436130+797622410+801857131+807346816+812725296+817193687+821339167
1900+825875800+831197503+837024673+841961508+845489901+849329255+854769347
1886+860313461+864734054+868747676+872934323+877247371+881645723+885749069
1873+888249674+888664657+889052909+890996796+893559082+896073916+897725974
1859+897814179+897725076+898458204+899091385+898999174+897658146+894532441
1846+890212693+886843580+886315250+886247352+884734957+883193897+881658708
1832+877903829+872049859+867574976+865447842+864221818+863792399+863260961
1819+861392086+858417579+855000668+851356788+848403901+847039457+846042752
1805+844011696+840942562+838348157+837843864+837790817+835537006+831295240
1792+828685916+830011057+832187647+833119770+833122671+832607189+832466420
1778+833057329+832524441+829481691+826116584+826670747+829951172+832427257
1765+833052978+832458822+832758525+834410790+835638610+836167285+835700429
1751+833591599+832369996+834564337+837921777+840405529+842210305+843889025
1738+844806160+843244862+841340070+843902839+848428767+852619558+855795684
1724+857639970+858525746+856975016+853230705+853774368+860614545+867951762
1711+873035858+874605859+873226220+872355501+872299208+871162149+872239323
1697+876876386+883605081+891413437+897052455+900190593+900611378+896908372
1684+895190695+902777123+912271037+918285184+920762650+923223953+926567856
1670+929448217+934843067+941918157+946540577+949749099+953988033+957317430
1657+956423089+949612544+945291276+953274522+960428422+964689321+971734641
1643+978647965+981445371+980190682+975892209+974257280+980975614+987884655
1630+989683767+989344072+990598899+993160495+996630936+998899184+997119964
1616+995721261+1000694981+1006841815+1009185627+1008534556+1008695770
1605+1010841830+1013913865+1017514300+1020739744+1022111095+1022046789
1593+1022822672+1024733059+1026648074+1028588990+1030974591+1033777937
1582+1035058942+1032310646+1025786542+1022771007+1028816513+1034714827
1570+1035138789+1034580897+1036143507+1037642710+1036124996+1029108410
1558+1025304904+1033603669+1041366368+1046542952+1051942637+1056784636
1547+1057876661+1054724640+1050758401+1049546883+1055229140+1062463647
1535+1064596514+1064582424+1065756367+1065319005+1062011227+1058928140
1524+1058108466+1060682010+1065633005+1066286217+1064412784+1065983544
1512+1068611863+1067388809+1060546284+1055223753+1060606170+1068007900
1501+1071875987+1072592054+1072254915+1071364373+1068809270+1065407072
1489+1065732538+1070624614+1073741823+1072098122+1068294617+1065860044
1477+1064140641+1060393221+1054348199+1051856711+1055760164+1057586352
1466+1051758146+1043982945+1040244505+1036855015+1031565707+1028415137
1454+1026619478+1023247256+1020116993+1015790338+1007636002+999745658+993875940
1441+986705876+977988260+970675564+967087907+964419665+958836042+951913601
1427+948114930+947293736+948675931+951342308+950848998+950362732+956631617
1414+965554998+973676594+980918077+984380437+983626795+984770140+989687290
1400+993779999+996773846+1000729102+1004196159+1007934875+1011704052+1011440958
1387+1009200823+1011426798+1016421516+1020718539+1025412173+1029309409
1375+1029188948+1028082970+1030132399+1032725076+1033401634+1032708292
1364+1030221570+1028402980+1030728626+1034054501+1035895954+1036700571
1352+1034005252+1027331124+1021852352+1019750429+1018165301+1016040240
1341+1013873942+1011782725+1009792215+1006997779+1004496621+1003711137
1329+1003462203+1003557245+1005022879+1007491228+1009919100+1011714897
1317+1012387518+1013267008+1016920145+1022216291+1026019037+1028050507
1306+1029946388+1032559028+1035481247+1037265992+1035633965+1032334821
1294+1032838285+1036696357+1038072060+1037566593+1042520834+1054087798
1283+1064843722+1069011098+1067992842+1066926512+1068337303+1070514445
1271+1071432754+1070738859+1070040613+1070161626+1068992449+1066338573
1260+1064072398+1062163738+1060401924+1059154972+1058352634+1057680842
1248+1056550069+1053699546+1048560814+1043500202+1040763924+1039435536
1236+1038766922+1038836615+1038887866+1038610819+1037390943+1034960653
1225+1032922138+1031717872+1030927415+1030932802+1030647536+1029028079
1213+1026977753+1024850205+1023254854+1023920637+1026112629+1027123909
1202+1026735035+1026225838+1025110191+1023573689+1023760114+1025253515
1190+1025603363+1025074964+1024700526+1023485139+1020817795+1017668261
1178+1015508801+1014616118+1013185365+1011091455+1010804255+1012147631
1167+1011904913+1008365262+1003878636+1002362442+1003958000+1005331699
1155+1004533367+1002207238+1000182399+999070344+997143310+994052487+991561138
1142+989899893+987858891+985011546+982353872+980413024+977935558+974041845
1128+969844147+967615063+967730896+967443074+965506855+963735716+962260620
1115+959866524+957371444+955557551+953821363+950857908+945409044+940332891
1101+939472740+939853464+937135145+932799648+929621518+928212316+928038808
1088+929495946+933604265+936873501+935270898+932552509+932451665+933154815
1074+933374463+932781897+932786663+936057280+939433162+939216760+939217175
1061+942460647+945413464+944491080+941544962+940307127+941660036+944768403
1047+947851145+947913655+945463058+943617806+943475932+945628623+947811498
1034+946833787+945454907+946558536+947862197+946912322+945935302+947002737
1020+947153589+945345567+944505033+944749132+944103104+943859419+947079130
1007+951592555+951572041+946452511+940884015+938406341+938621362+939098371
993+940590598+944970024+949275612+950754508+950978024+951252446+953755952
980+959971167+965472111+966557229+964348038+960368399+957939905+960029326
966+963558271+964402328+964565268+966615595+967604633+964476718+960010400
953+958546907+958863740+957245112+954370276+952634088+951788028+950486716
939+949803666+951684904+954515949+954479686+950770739+947073397+945546220
926+943736264+940737237+939086215+939980280+941649192+942374652+941862485
912+939419969+935415603+931971478+929945396+929312560+930317140+931359157
899+929837782+926004783+922979923+923280730+925221785+925673722+925248930
885+924703885+924147996+925622401+928845635+931648360+933662769+935026176
872+936135538+937975264+940847268+944009719+947474290+952617580+959215729
858+966124563+974015252+982195352+987587370+989724796+991922176+997828848
845+1006602274+1014447652+1021713380+1028601423+1032541345+1034991459
833+1037893440+1040201957+1042564211+1046663413+1049779309+1046917251
822+1037693892+1028101067+1028121789+1038266289+1044685681+1042342560
810+1039849829+1041574896+1045628580+1046812608+1045572355+1047547186
799+1048820386+1043543994+1037793493+1036744639+1036368681+1033671774
787+1027532468+1017600087+1011045039+1011386184+1010369241+1004973631
775+1000586469+997468638+993002735+986547495+980375518+978102298+977844798
762+975915209+973383315+972601699+974247057+976617738+977247811+976397607
748+975531792+973991975+971097523+967830981+965302678+964217699+963154478
735+961958569+961435696+957654362+951210727+947160082+942680018+936410444
721+934510901+935804132+933764028+932562179+937691587+944427258+947351618
708+947990670+949873773+953662774+957867932+962397589+968551193+973467306
694+971394670+966469922+968247208+972781009+967973614+958640293+958182070
681+964884656+970428908+973204764+974116443+974047578+970309552+961808476
667+963365492+978172475+985750959+980943219+975996576+978261784+978206665
654+973426692+975198590+982695017+984633793+980173484+972072402+961766480
640+956375706+959202537+967375108+978104991+981981230+978256051+978583383
627+979241291+970800238+959035590+953149571+957670525+967152627+969090850
613+961598084+952107485+946774454+957587846+984103667+1000762187+1003467176
600+1009641431
##END=
