##TITLE=Sample description
##JCAMP-DX=4.24
##DATA TYPE=INFRARED SPECTRUM
##DATE=13/9/2023
##SAMPLING PROCEDURE=Instrument type and / or accessory
##ORIGIN=Default
##XUNITS=1/CM
##YUNITS=ABSORBANCE
##RESOLUTION=4
##FIRSTX=4397.6552
##LASTX=599.8556
##DELTAX=-1.9287962
##MAXY=1.7766806
##MINY=0.39464751
##XFACTOR=1
##YFACTOR=1.6546627e-009
##NPOINTS=1970
##FIRSTY=0.41494277
##XYDATA=(X++(Y..Y))
4398+250771810+248805609+247099146+245450480+244982353+246629182+248709339
4384+248698929+247404776+247194046+247737964+247828740+247362018+246422234
4371+245498408+245658130+246919179+248107408+248967529+249459683+249073398
4357+248250344+247815700+248285142+249135374+249143227+248594338+248075456
4344+246873502+245323844+244779224+245050039+245716162+246412868+245948560
4330+244996402+244875890+244834320+244386960+244274264+245182727+247148550
4317+248306161+246812589+244403440+243374267+243514699+243852840+243571795
4303+243104028+244048171+246264366+247527126+246887749+245837467+244939649
4290+244023243+244428331+245663263+245698583+245246018+245125866+244718959
4276+244420496+244638863+244988549+244706009+243786073+243466069+243651656
4263+243664462+243825751+244015517+243885350+243466376+243037891+242925808
4249+243273188+243724349+243478227+242552492+241986474+242535435+243320504
4236+243036396+242073900+241363164+241504011+242481186+243406435+244042677
4222+244648157+244915028+244537731+244123997+244419560+244720886+244473593
4209+244545476+245113510+245464331+245020141+243847617+243242948+243570930
4195+243687516+243468897+243322161+243266614+243490673+243823338+243548002
4182+242748777+242498746+242793444+242901655+242983660+243314524+243822798
4168+244299030+244263980+243620695+243423311+244152419+244457725+243743477
4155+243076687+243188320+243531036+243356652+242964838+242620898+242357683
4141+242802468+243568823+243435703+242633668+241980675+241610366+240994746
4128+239559152+238506312+239146860+240539353+241430543+241479912+240766545
4114+239999110+240103718+240939272+241968373+242832871+242546764+241500048
4101+241327880+241840620+241864647+241536953+241632916+241771332+241567230
4087+241793809+242697247+243494725+243258473+241844132+240597493+240870830
4074+241677530+241542338+241573263+242631777+243361173+243093906+242328794
4060+241404247+240589046+240346094+240915425+241597884+241780751+241920103
4047+242295725+242533652+242646420+243417403+244593277+244241610+242436932
4033+241382399+241168662+240885473+241049788+242001910+243128181+243692109
4020+243403859+242503772+241659392+241763533+242733701+243677844+244435194
4006+244841182+244280406+243517113+243867105+244572078+244450575+243988932
3993+243763325+243607583+243605169+244236243+244887759+244425143+243570732
3979+243364703+243598703+243952892+244232839+244701596+245606132+246184613
3966+245774518+244887669+244542468+244793759+245028570+245168030+245361289
3952+245810594+246247202+246137676+245670468+245233194+245589292+246818406
3939+247665451+247667216+247172397+246504419+246315194+246954642+247629879
3925+247922218+248364391+248463542+247601260+246950662+247741332+248938981
3912+249093715+248481679+247594830+246333799+245474543+245627223+246578642
3898+247996820+248448016+247227655+246289186+247353319+248106021+247134574
3885+246287943+246168854+246626606+248187990+248842243+248095899+247607095
3871+247447733+248063461+248732610+247923406+247904207+250126742+251941542
3858+251052063+246917702+243738650+246831951+250471115+251539192+250814551
3844+249762647+249271556+249079054+249151855+249826209+250623129+251253752
3831+251736756+252049285+252310140+251774525+249950954+249686929+251523882
3817+252001393+252041972+253014518+253274473+252086135+250750827+250553768
3804+250028149+249883070+251980572+253661045+254449662+255688773+257014661
3790+258176360+258730382+258573325+258778796+259071134+259037400+260052632
3777+261654361+262106476+261761995+261890108+263021224+264570180+265761111
3763+265888702+265110045+265663419+268283136+270321112+270808871+274112019
3750+284808263+297593399+313988684+337783313+355848642+363389716+363246708
3736+358491125+355378228+355412269+356273417+357162229+358348981+361031269
3723+366293937+373269102+380567962+387977231+394951639+401924607+411909249
3709+425252712+439783108+455315426+473243078+492614862+507069755+513128623
3696+513046636+508724761+501694122+494764309+489196136+485255088+481830670
3682+477175193+471200186+464859084+457827184+452756803+449866811+444585196
3669+439268602+436460633+433072058+428024875+421975013+415009611+407591264
3655+402106555+397452195+390534305+382809410+378579823+377263535+375543221
3642+371621697+366349555+361729344+358079031+354191692+349601235+344735208
3628+342261381+341593096+339252552+335126241+330758546+328022333+326455618
3615+324078043+320922711+317767776+314997919+313412220+312730895+311474080
3601+309332666+307105340+304873366+302802484+301611985+300352162+297510890
3588+294714646+294306244+294354946+293018179+290946343+289091936+287610216
3574+286430578+285095540+283263521+281262450+280066404+279951079+280016675
3561+279830440+279113202+277748103+276142574+274580236+273339378+272319373
3547+271215327+270350560+269718424+268915704+268185227+267731383+267389766
3534+267170589+266912256+266246313+264982671+263545924+262708893+262496020
3520+262256851+261733862+261482337+261619743+261375729+260659319+260116536
3507+259750370+259102041+258450417+258154603+257831285+257480447+257356872
3493+257147601+256608186+256111656+255927330+255798262+255725534+256001230
3480+256459973+256509774+255914488+255211604+254957486+255026486+254963681
3466+254490277+253925413+253953168+254426086+254507082+254054732+253691070
3453+253812843+253943802+253699355+253659497+253933842+254015918+254208655
3439+254615472+254682834+254749980+255166324+255179599+254734220+254479471
3426+254126147+253516776+253453792+254090466+254743910+255240927+255598249
3412+255615486+255570908+255972394+256578144+256676917+256440089+256660545
3399+257279046+257622302+257664520+257944665+258290154+258204602+258243758
3385+258952297+259636125+259597617+259185307+258915969+258842807+259096512
3372+259844226+260821563+261505409+261545411+261112136+260811458+261047332
3358+261636151+262174720+262430009+262393321+262282246+262179709+262043491
3345+262026777+261788886+261127968+260948937+261337905+261275785+260542967
3331+259718220+259224139+258766494+258008605+257315879+257197240+257356188
3318+256653899+255005683+253431710+252042603+250785697+250160333+249767240
3304+248696047+247074957+245743467+245133358+245015386+245140131+245410297
3291+245528594+245579044+245910808+246239439+246461660+247214363+248680125
3277+250184018+250933946+250934505+251070579+251589353+251816653+251708857
3264+251889382+252427860+252760274+252718920+252856057+253354947+253690998
3250+253588731+253228851+253047353+253450928+254179279+254896824+255763573
3237+256634735+256981629+256836189+257037517+258020348+259064831+259483697
3223+259488722+259633531+260094220+260650367+261223121+261859093+262687316
3210+263881615+265195616+266180410+266455206+266162273+266360989+267680574
3196+269489844+270885886+271693072+272524537+273651745+274437516+274764292
3183+275341044+276223462+277073929+277778218+278158468+278292327+278407706
3169+278674253+279254481+280122653+281184246+282332671+283321067+284081334
3156+285136263+286723330+287961811+288051434+287591484+287599013+287994501
3142+288555187+289379556+289759680+289218176+288567236+288606357+288922200
3129+288849002+288642307+288522875+288357137+288242244+288063880+287410364
3115+286233662+285281108+285139991+285219835+284838179+284048536+283014860
3102+282130190+281780828+281459636+280873968+280533450+280542726+280735121
3088+281145504+281711359+282273882+282884405+283552708+283840795+283618844
3075+283401000+283619529+284182899+284739082+285154526+285315095+285093649
3061+284586816+284229800+284451462+284960204+285289826+285364752+285209658
3047+284705005+283742509+282807606+282388559+282130586+281461725+280238392
3034+278745073+277602663+277093921+276731088+276112082+275280418+274406429
3020+273728815+273277906+272776693+272071972+271267794+270385339+269627612
3007+269268110+268965433+268444047+268137138+268335926+268739375+269555063
2993+271534214+274497223+277626528+280351430+282371881+283655047+284200531
2980+284246226+284357498+284540509+284028237+282724466+281553060+280885532
2966+280245038+279315611+278325450+277508501+276782149+276400764+276654378
2953+276944519+276760770+276559640+276769217+277320105+277834503+277712819
2939+276844468+275752490+274922231+274551544+274484291+274260719+273773806
2926+273511222+273561744+273291919+272345039+271299151+270992854+271109548
2912+270757089+270432132+270998996+271852525+272223500+272353900+272555066
2899+272856770+273263588+273685570+274132282+274686051+275169182+275369375
2885+275466221+275889104+276591970+276996121+277156600+277480926+277604447
2872+277420049+277347554+277270809+277039546+276718084+276316994+276064136
2858+275955169+275706255+275354354+274888262+274185793+273661993+273732975
2845+273995469+274068288+274293265+274901518+275599143+276087622+276420090
2831+276800448+277200079+277554358+277972738+278490161+278900635+278944834
2818+278829166+279002001+279449415+279968802+280522247+281062689+281642287
2804+282313021+282883036+283325804+283851764+284490745+285043902+285306846
2791+285401873+285543098+285605885+285441245+285219799+285179328+285235306
2777+285248112+285306360+285455636+285627588+285599509+285197807+284783569
2764+284790143+285071639+285369417+285664943+285910075+286053947+286101875
2750+286117238+286145012+286102595+286015187+285974320+285889200+285670022
2737+285565378+285788301+285947304+285783853+285711934+285941450+286181142
2723+286289389+286341171+286311110+286178584+286022410+286043123+286340594
2710+286583438+286565481+286543021+286631096+286706346+286696512+286566976
2696+286384830+286265344+286173181+286039701+285953445+286047878+286213310
2683+286210302+285962793+285437733+284743495+284253898+284095887+283945980
2669+283556940+283129284+282944418+282745395+282178910+281597907+281380711
2656+281247555+280921122+280649568+280751727+281012222+281079043+281002117
2642+280901327+280782328+280661671+280572354+280493394+280335760+280264346
2629+280522842+280784561+280745369+280737804+280948138+281200042+281446110
2615+281722436+281976663+282214896+282491367+282734985+283013599+283385745
2602+283699624+284024293+284533161+285259207+286084512+286817186+287390624
2588+287773667+288031604+288298204+288494904+288501154+288532601+288849921
2575+289298920+289694228+290074371+290366349+290489203+290618522+290743844
2561+290644783+290512059+290455720+290353489+290459628+290812862+291123140
2548+291376232+291546095+291546797+291534496+291697298+291959414+292061465
2534+292025389+292125044+292376173+292608246+292674545+292617072+292678832
2521+292876054+293122698+293495960+293923904+294107726+294058988+294308460
2507+294960264+295352420+295204927+294969576+294955761+295152623+295564987
2494+296062184+296512714+296989666+297502461+297921706+298210856+298608145
2480+299200909+299623918+299618065+299334264+299038467+298811581+298620159
2467+298514812+298602958+298876619+299123227+299215588+299173316+299100821
2453+299284571+299708534+299989976+300019875+299941400+299940085+300149987
2440+300405547+300558983+300723281+300944349+301084620+300906238+300537172
2426+300505220+300884030+301339729+301696115+301858774+301849498+301857567
2413+301956718+302166692+302510308+302748919+302771109+302875465+303176359
2399+303497425+303763053+303957285+304055481+304119817+304218158+304387138
2386+304445314+303876127+302390318+300180768+297509575+294604238+291641284
2372+288458629+284969066+281578005+278524544+276123356+275086709+275419896
2359+276637718+278994166+282858847+287941458+292857826+295306492+294336089
2345+291409210+289193933+288813520+289736140+291213123+292849992+294232363
2332+295228702+296657109+298774946+300916414+302865163+304849123+307167766
2318+309806467+312235482+314194479+315916197+317661799+319610493+321681159
2305+323490052+324882635+326115316+327404624+328746776+330129237+331519659
2291+332727953+333734522+334819980+336006480+337013446+337782232+338442772
2278+339081734+339890181+340943183+341932534+342614327+343060498+343488298
2264+344124811+345015388+345933847+346572485+346910374+347291885+347987655
2251+348885185+349615968+349892943+349980477+350350173+350877682+351247883
2237+351550073+351988032+352453511+352728181+352923853+353204935+353577873
2224+353992921+354375873+354749280+355077010+355350059+355734812+356303423
2210+356956974+357493958+357874425+358270705+358684529+359117192+359708172
2197+360410282+361072046+361618035+362186862+363031619+364013946+364824410
2183+365519243+366321098+367167080+367841092+368541580+369493756+370500937
2170+371569933+372692350+373537539+374310937+375357166+376356747+377213500
2156+378266646+379530270+380926600+382404592+383719223+384822944+385827857
2143+386753592+387770175+389038374+390478039+391949871+393373217+394799914
2129+396265911+397627083+398860844+400205050+401828211+403642291+405490664
2116+407350564+409192488+410893746+412535748+414367947+416425068+418551857
2102+420659229+422772978+424957762+427360985+430078178+432979661+435977359
2089+439062231+442241877+445655092+449331197+453161837+457067403+460954526
2075+464949788+469397489+474213337+478991254+483739344+488629470+493739332
2062+499245907+505058598+510859114+516572564+522254351+528076552+534421256
2048+541280789+548071772+554577279+561283970+568374082+575420319+582374987
2035+589383328+596057960+602316787+608730833+615527436+622205381+628228659
2021+633779468+639445045+645415514+651303924+656630459+661481429+666260210
2008+670923288+674959651+678215053+681470670+685416545+689598582+693040650
1994+695623228+698410124+701652269+704218421+706111029+708321497+710684556
1981+712364633+713421453+714458389+715614054+716686868+717547511+718075093
1967+718408875+718966355+719765544+720745133+721814129+722330543+722178097
1954+722284291+722906251+723249614+723369713+723632747+723513153+723542043
1940+724779479+726554438+728076882+729541474+731262328+733303059+735687515
1927+738473474+741686441+745002360+747740337+750284155+754118794+759366441
1913+764561495+768963556+773432330+779063901+785279609+791041581+796501687
1900+802293270+808595719+814713087+819844454+824088305+828360614+833649398
1886+839117861+843622008+847716583+851437320+854484368+857590133+860704111
1873+863100958+864801640+866375667+868231244+869732003+870348415+870233936
1859+869425381+868328721+867091429+865119932+862954996+860997836+858240118
1846+854490420+851052602+849210353+847956636+845756110+842802719+839629737
1832+835523130+830527135+826360011+822928173+819719961+817882755+816686241
1819+814491478+811387514+808287585+805458471+802874596+800702384+799045577
1805+798096031+796971849+794592941+792514531+791954961+791321042+789649971
1792+788384870+788862885+789508908+789051497+788414048+788448485+788656477
1778+788700281+788354251+786779575+784709305+785604314+788762959+790760248
1765+790905778+790240375+790729773+792834264+795130465+797288629+798566265
1751+797709225+796427554+797491866+799616530+801372830+803080644+804398697
1738+804820373+804771311+805749603+808665747+811754077+814657613+817397463
1724+819642297+821312720+821611848+820383779+821126053+825591441+830704652
1711+835046628+837521643+837891232+838934003+841495184+843571721+846000340
1697+849640531+854496400+860396265+864916551+868043425+870511164+871507034
1684+873685731+879898989+886336595+891180936+894935173+898548131+901428036
1670+904089791+909360852+915566114+919816521+923696116+928629576+932270343
1657+933343950+932879407+935878690+943378807+947525470+948928392+951844608
1643+955524351+957704416+958172201+956965096+956538305+960445204+964981051
1630+967745469+970623862+973493177+974323273+975271162+977039710+977056856
1616+978838732+985348886+989896260+990875200+992407802+995298514+997407112
1603+998643467+999422700+998967162+997287446+996426370+998889859+1003536727
1589+1006265771+1006924113+1008288924+1010340894+1012090638+1013672950
1578+1014538349+1014063071+1013784187+1013921216+1014567599+1016744494
1566+1018411459+1018576873+1016795285+1010605657+1008897123+1021411246
1555+1032894485+1038446736+1041832105+1045289015+1047889100+1049983000
1543+1051107470+1049577678+1052850946+1061663281+1065777668+1063718061
1531+1061716449+1061544984+1061226187+1061293332+1060953282+1059973982
1520+1060629515+1061262281+1062028618+1065416725+1068558440+1068908288
1508+1067339520+1066650703+1070560267+1073741823+1072065637+1068554261
1497+1068699215+1071819172+1073089388+1070720927+1068237482+1069380323
1485+1070800608+1070271729+1069577149+1068693235+1066906028+1066033642
1474+1064897212+1062313554+1060881598+1057516473+1050224853+1044831316
1462+1042888133+1037629680+1027686319+1023399313+1026736629+1027015225
1450+1021220184+1013616468+1009001515+1004799162+997625550+990003030+982948220
1437+973415585+963322588+956173111+950445649+946305686+944758315+943983044
1423+943002879+943269228+946504528+953608761+960518905+964303977+968344447
1410+975036441+979835035+979567101+979076839+982918826+990026228+996579321
1396+999270974+1001774087+1008107660+1013895208+1014504848+1011815788
1385+1011811105+1015849486+1020268981+1022098478+1022185508+1023911838
1373+1028520090+1033219262+1035877702+1035989011+1033712622+1030978679
1362+1030618241+1032310277+1033180142+1032982812+1032841821+1032046594
1350+1029660121+1026717249+1024021849+1020520633+1015717716+1010614519
1339+1006762878+1004306666+1001718180+998518398+996254905+997181973+1000115767
1325+1001055659+1000819065+1004128716+1010697946+1015067515+1015826792
1314+1016836351+1020064303+1023319992+1025302440+1027610240+1029326627
1302+1029554576+1030795830+1033181366+1034302090+1033597279+1033209968
1290+1034624561+1037196260+1042166392+1051041981+1060010076+1063444004
1279+1062169825+1061331444+1062509083+1062816424+1060162234+1056747182
1267+1055103560+1054460779+1052592522+1048863357+1044903937+1041315042
1256+1037313837+1033629411+1031616561+1031398626+1031297980+1029151127
1244+1025564105+1022731533+1020928981+1019084786+1017199167+1016707679
1233+1017055582+1015959642+1014902605+1015844659+1015492866+1011784593
1221+1008565286+1008492089+1009771455+1009844364+1008436615+1007212867
1209+1006536082+1006223337+1007550972+1010665310+1013121810+1013152933
1198+1012688823+1012840621+1011870110+1009591992+1007246512+1006686222
1186+1008815280+1011041454+1010212511+1006621959+1002473567+998259398+995164656
1173+994522019+993912307+992158817+991157471+990973325+990317432+989272427
1159+988599964+988198532+987158859+984061235+979720340+976777684+974697544
1146+971870519+969140322+967711248+967395910+966759973+964538050+960568112
1132+956671443+955727156+956588232+955417149+952258071+948433231+943951489
1119+939647336+937164612+937807825+938701681+936431848+933378675+931611209
1105+929755199+924540261+915962575+910534096+910116527+910526892+910033820
1092+908084224+904876084+902965177+905170242+911114847+915502931+915936567
1078+916093624+916970981+917238770+916753983+915471520+914497190+915166483
1065+917586025+920572268+923061188+926288275+930931757+934116771+933454754
1051+931175628+930058794+929810313+929421705+929410178+930970805+933357638
1038+934624828+934333913+933351875+932681861+932430642+931899675+931383620
1024+932178198+933646393+933506122+931288089+928516539+926394037+924740976
1011+923518670+923208951+923448787+923536609+923058882+921872022+920639557
997+920850287+922939000+925197810+925859323+925951540+927937301+932136052
984+937647598+942603753+944849955+945924714+947226342+947391684+946471244
970+945288634+944437356+943797602+940997954+936485593+934656096+936002535
957+937641979+938857585+939809580+939846323+938103928+935082167+932878471
943+932411406+933151879+933683279+931890165+928506020+926206001+924302442
930+921643353+919652116+918329451+916869182+915879868+915396954+914344456
916+912069364+908905315+905540839+902667345+900749378+899382406+896858905
903+892889687+889839108+888573359+888427181+889010165+890386142+892734503
889+892986875+889058795+885610026+886330903+888830414+890157977+890250842
876+890767113+893525767+897214084+899063177+900184837+903778199+910914851
862+919886332+928384409+935342031+942136472+951889348+963206740+971417936
849+977477308+985577483+996351804+1006849475+1014534890+1020841230+1027281357
835+1032470504+1036298010+1038970499+1039502692+1040781049+1045548735
824+1048194208+1043611099+1036676604+1034125941+1037330191+1041735061
812+1043408078+1044211950+1044240984+1040919230+1036262132+1035224403
800+1037692503+1036960603+1030234676+1022745077+1018796969+1016171885
789+1012664904+1011618170+1012463252+1008275956+998457016+989865353+985308973
775+981878864+978101933+974175510+967977381+958842215+951541949+949458279
762+950949383+954036561+955863104+953292413+948220988+944441967+943254314
748+944551331+945558945+943326575+940955303+941486847+942666431+943225713
735+942984724+939932344+934377572+928255449+921744719+916686405+915203442
721+914794374+912266982+909178652+909308044+912858035+917860226+924644509
708+931089751+931870857+929168109+929657723+932658375+934190040+935147655
694+937802205+941287861+944062941+947771646+952581479+954190304+951767520
681+948263350+944478062+940937004+940829802+945416801+948862976+945468241
667+941508029+944669844+948550231+951326104+954733735+955632850+952291140
654+950146088+951663920+954376755+959851990+967108020+966313730+958073356
640+954016676+952068378+945878750+943682258+947599604+948596267+945236185
627+942108663+947193778+959424478+962245739+954797278+950530301+949657410
613+947960043+949309147+956752925+967868954+980546258+987913741+981838303
600+975167634
##END=
