##TITLE=Sample description
##JCAMP-DX=4.24
##DATA TYPE=INFRARED SPECTRUM
##DATE=13/9/2023
##SAMPLING PROCEDURE=Instrument type and / or accessory
##ORIGIN=Default
##XUNITS=1/CM
##YUNITS=ABSORBANCE
##RESOLUTION=4
##FIRSTX=4397.6552
##LASTX=599.8556
##DELTAX=-1.9287962
##MAXY=1.5586908
##MINY=0.21494952
##XFACTOR=1
##YFACTOR=1.4516439e-009
##NPOINTS=1970
##FIRSTY=0.23398201
##XYDATA=(X++(Y..Y))
4398+161184164+160814285+159122455+157667777+158152245+159914401+161152681
4384+161177410+160062310+158825795+159359330+161759529+163690842+164071613
4371+164551021+165926277+166503480+165082831+162504093+160022913+158794744
4357+158975890+159119580+158476867+157159525+155670768+154896097+154332157
4344+153642266+153824880+154701370+155244954+155410324+155321962+154387486
4330+152554163+151151509+151151180+151399809+150889330+151003651+152145266
4317+152512004+151621524+150201244+148769386+148073171+148371011+149210567
4303+150003129+150480751+151214464+152014797+151734737+151104638+151520690
4290+152264145+152436218+152530112+152782980+152625227+151817226+150992781
4276+150837748+151115745+151290774+151409869+151615108+151532977+150635783
4263+149149295+148178470+148545496+150011321+151516933+151741758+150685949
4249+150049414+150391158+150215266+149122308+148687471+149498994+150533102
4236+151080023+151505806+152286482+152669726+152133019+151713426+152158343
4222+153173257+154000361+154111767+154028200+154126005+153918087+153679220
4209+154007967+154512124+154735799+154631640+154599140+154953212+155114619
4195+154767507+154493144+154647756+154767025+154434992+153832487+153695161
4182+154654900+155509812+155118838+154631486+154657056+154502618+154202962
4168+154467974+155408856+155868082+155186444+154406271+154338039+155070921
4155+156266858+156530064+155517008+154819531+155089131+155910148+157052800
4141+157936967+158260418+158102296+157551423+157484372+158185976+158354559
4128+157613116+157472957+158755962+160716859+162488130+163327460+163136049
4114+162801635+162872658+162798658+162069030+161551231+162182766+163664708
4101+165122967+165894333+166121344+166395574+167178559+168255175+168741245
4087+168502090+168811304+170589853+172380812+172582643+172222259+172858218
4074+174079222+174435788+174025331+173892686+174055079+174207309+174100820
4060+173952901+174387276+175124777+175652768+175757677+175384708+174963718
4047+174982955+175554573+176460852+177676128+178693844+178566332+178175049
4033+178719794+179244542+178785531+177670831+176774736+177111634+178205167
4020+178665102+178801483+179281106+179621822+179477948+179111753+179339801
4006+180472547+181363387+181330210+180990848+180690925+180449820+180323150
3993+180322144+180872144+182019609+183000350+183527357+183865404+183830236
3979+183405449+183359852+183773594+183996756+184066353+184270873+184767556
3966+185325296+185555602+186167357+187090285+187109111+186771987+186908245
3952+186667695+185758952+185469581+185305731+184356257+185162103+188141629
3939+190208430+189945974+187641189+186168814+188150211+190362714+189478279
3925+188219890+189252120+189510634+188017402+188931502+192982471+195812805
3912+195992669+194839476+191069153+184271940+179677274+181095552+186641950
3898+193413869+196453630+193391820+190324979+192858203+194493565+192492378
3885+191980687+191772184+192697329+197743903+199279428+195467100+191356183
3871+188883359+191154578+194262807+193957874+196542238+202467375+204005219
3858+198139907+186256806+180130598+191429188+203954756+209057747+207459831
3844+202187920+196285736+191334688+191022611+196074461+200608769+203601660
3831+206843889+208771968+208697054+205883185+199249187+196907201+201197632
3817+204514036+210339848+217332507+218564761+214017478+209844561+209102584
3804+206451744+206063624+212498275+217494632+221338946+226257186+229264428
3790+230348066+230704652+230750270+231279103+230852776+229933256+233158178
3777+239421732+243255041+242594877+240473343+242105708+246782042+252088937
3763+255771207+255660673+256529443+261798481+265668005+264991992+269228696
3750+290687259+316951844+344946395+383619302+414306594+426881538+428020873
3736+426454020+432075476+444274432+454487228+458526475+460335665+465341507
3723+474171974+485828608+498363148+508484545+513137229+514668360+523738742
3709+542401748+559950999+571620813+582623935+598850147+616086972+629284592
3696+638712319+643290110+643195918+646971148+662030966+680027895+693273432
3682+701329013+705252963+706279876+707807886+715304393+724576092+732499788
3669+744299886+757975856+767948697+773663853+778229161+782377052+784637411
3655+787660830+787079337+775302397+766551833+782485862+809259428+827687530
3642+833040371+830180042+827153995+829055324+835756004+841932593+842824007
3628+847641917+862408690+875407086+876877858+869260717+865748190+870069765
3615+878328430+888331738+896281219+903544998+912999250+918991643+918459011
3601+919563774+928042603+937900148+942948815+944091272+944627927+944970533
3588+946948890+953599313+959981448+961474229+962930960+968050661+971556948
3574+971313954+970620777+969827168+967663382+966471161+967971990+970787153
3561+976673365+986411178+995450559+999368267+998531791+996423109+993091656
3547+987765997+985531342+990974680+1000790589+1007900803+1009814860+1009947156
3534+1010127081+1007508761+1001838279+1000582332+1006582199+1013180064
3522+1016736854+1016825215+1013228351+1009233449+1008703363+1012284215
3510+1017797436+1023755668+1026319707+1019075966+1006993374+1003543176
3499+1011284730+1021587694+1024766321+1017780766+1007162460+1003886767
3487+1012804610+1026175093+1031206269+1025285156+1015982087+1009165618
3476+1007407424+1010123796+1011731956+1008418242+1002793090+999879384
3464+1002831769+1010592539+1016208246+1012805432+1005002042+1002149104
3453+1005047783+1007486588+1004653852+999192284+995134396+993641451+996150469
3439+999472642+999014658+996632597+995588603+995762780+994956113+992929387
3426+992023929+991738315+989797076+986591924+982818830+980210446+980176941
3412+980381174+981372036+985343615+988632365+988023444+985382294+983407960
3399+983159957+981503182+975861278+971319374+971644980+974813835+977219135
3385+975616478+973211095+972371908+970068437+968299239+966703890+961742845
3372+957780463+957588301+958293057+960030885+965141553+971495357+971320359
3358+963090109+955306756+953705248+956706331+958135222+955486517+953003613
3345+950350555+946307778+945411025+945767756+942397625+940136116+942050585
3331+942667143+940882261+941529778+945440342+947965621+946047703+941734586
3318+937572242+932575310+926116227+922226276+920688164+917712949+916219676
3304+917559795+920554719+922858191+917983946+912621661+917387261+923941438
3291+921045716+913917764+913217033+919458578+924076279+924038586+923365775
3277+923910971+927094361+932505425+935561446+935736773+935909718+934676109
3264+929572338+923816205+923506858+929130039+933911487+933367359+928378885
3250+919852838+911932426+909049186+910483005+913776928+914425596+911120011
3237+908222400+905992672+903595912+904086416+907987208+911200900+910833247
3223+909701631+911323012+914050553+914276219+911640653+908021370+904415964
3210+901910641+900489387+898408379+898850925+904249753+908640145+906548626
3196+898491402+891021174+891322145+897029909+899117651+895404258+893694105
3183+897203183+899384952+895775770+889220360+884284279+881699875+880366817
3169+879863092+880388086+884793260+891695463+891326087+881387325+872138784
3156+868851184+867809735+866290429+864803068+863352415+861298425+859872243
3142+859826256+859380425+856916655+852164359+848355131+847724202+845311346
3129+839018147+833839811+831506612+830773689+832128919+834304365+833055563
3115+826677698+818291172+810858719+806046229+805337368+806212112+804356278
3102+800494247+798784668+800087998+800179480+796245183+790770312+786032715
3088+782897612+782757105+783316590+780974193+778165928+777359590+775480516
3075+771050706+767968981+767740687+766450168+762896252+759151653+755047285
3061+750663791+747360917+744767397+741728292+738436668+735708307+733877272
3047+732746477+731091098+727322356+722716398+719719011+717352635+714123505
3034+710235359+706110955+703399756+702719883+701504093+698086333+694730409
3020+693251260+692022167+690225787+688783633+688195899+688966474+690902622
3007+693241077+695549476+697710715+701115665+707253411+714870798+722993225
2993+732354600+740703843+745127247+746766038+746029420+741519050+735185119
2980+729205701+723360221+719096704+717034912+714809208+712560018+712983512
2966+716196383+720014972+723364327+725646940+725765193+724391240+724227738
2953+726194681+727373599+725767164+722859041+719859026+716317756+711375188
2939+705610925+700572604+696311140+692391790+689174895+686536127+683766582
2926+680860512+678260176+675359198+670412318+663138398+655751070+649579326
2912+644230099+640278762+637875843+634940005+631493420+630051759+630274099
2899+630712662+631732595+633409777+635672435+638517530+641208732+643607463
2885+646648005+650678505+654690488+657806744+660065132+660947431+658667405
2872+652385784+643311543+632898086+622175692+611396513+600080678+588563237
2858+577627742+567188170+556793888+546374518+535963648+526026118+517650555
2845+510585755+503629722+497566788+493661849+491108034+488607392+485890404
2831+483319590+481481411+480478067+479634651+478694826+478067100+477774546
2818+477715461+477720101+477081041+475422213+472939391+469701309+466034109
2804+462570771+459284033+455978860+452732812+449059535+444916735+441145693
2791+437739306+434321299+431290448+428791489+426371366+423790287+421106763
2777+418621149+416646158+414990327+413350510+411634608+409707329+407826038
2764+406529976+405652686+404707112+403749960+402904615+401909852+400573141
2750+399001606+397464809+396202991+395054458+393775354+392411789+390858239
2737+389202737+387945682+387170097+386531859+385810351+385054106+384360847
2723+383602221+382640799+381563792+380517458+379522079+378574289+377651052
2710+376560291+375360227+374346905+373239925+371598711+369653859+367677431
2696+365663515+363707247+361855889+360267150+358996586+357528400+355622349
2683+353578254+351609341+349932487+348675884+347606186+346399265+345053151
2669+343883534+342982634+342023429+340806490+339617246+338765700+338008162
2656+337009128+336030933+335379925+334927895+334574039+334349132+334218089
2642+334074419+333897964+333897615+334084931+334238393+334467467+334858154
2629+335153602+335294110+335551495+336239765+337365653+338501294+339242716
2615+339618108+339963013+340519151+341274739+341995015+342399026+342490693
2602+342428241+342255788+341891975+341332613+340796348+340191984+339154745
2588+337837413+336566090+335248820+333770657+332264223+330868570+329465895
2575+327962316+326621970+325477379+324194148+322774105+321444127+320111789
2561+318685874+317503015+316659332+315870691+315270762+315027275+314830228
2548+314499817+314189074+313997201+313936842+313945793+313832960+313561101
2534+313365491+313457425+313804013+314339519+315059857+315786456+316413485
2521+316970958+317433603+317953547+318652307+319468172+320318013+321017492
2507+321552588+322094663+322606908+323024838+323390356+323590257+323548724
2494+323464941+323377853+323157709+322898538+322661744+322396249+322026544
2480+321406516+320602662+319795256+318999635+318221464+317543500+316964162
2467+316410385+315937927+315502710+314928485+314314041+313768229+313206445
2453+312696601+312317514+311968729+311624727+311313307+311026174+310831405
2440+310760207+310677635+310378307+309952986+309743764+309663800+309387219
2426+309025746+308877211+309017781+309364533+309709869+309869285+309943891
2413+310068899+310220369+310414153+310673160+311016278+311467611+311901739
2399+312241389+312606865+312879011+312943106+313110385+313347383+313265037
2386+312681307+311317926+308989141+305899266+302265488+298259419+294111363
2372+289846799+285569138+281578568+277669092+274175966+272328179+272201981
2359+273187649+275661110+280147644+286400050+292744534+296139670+294987668
2345+291054480+288204354+287939127+289249785+290820416+291941850+292895758
2332+294046570+295729028+298137819+300738135+303053206+305526030+308475110
2318+311209548+313038242+314246292+315628457+317394472+319236305+321131619
2305+323086264+324831770+326291005+327652969+328948169+329971448+330740955
2291+331567762+332587346+333681803+334633596+335234573+335502510+335653591
2278+335853862+336156187+336542398+336928445+337250131+337529155+337801547
2264+338078169+338414780+338785491+338999209+339034931+338977201+338839690
2251+338803475+338907891+338948110+338980527+339138546+339315433+339422990
2237+339527673+339630857+339661898+339672944+339707496+339758821+339917046
2224+340167820+340371684+340573946+340843300+341106475+341341215+341540295
2210+341751837+342049625+342397445+342834345+343413416+344100003+344793364
2197+345318399+345701162+346159639+346720520+347251057+347785742+348366865
2183+348858601+349273103+349717004+350118941+350425085+350790397+351360557
2170+352081983+352875059+353629908+354227702+354777579+355378904+355988441
2156+356661252+357414582+358199199+359087534+360092891+361080304+361990607
2143+362910928+363919364+365049050+366239834+367229136+367926912+368585228
2129+369401380+370465124+371770917+373124915+374391085+375510466+376424915
2116+377425139+378791702+380289738+381828014+383516611+385186894+386782408
2102+388454580+390279086+392273909+394520143+397067511+399661073+402169516
2089+404902846+408052977+411506829+415014388+418452638+422119141+426200597
2075+430358753+434488578+438941053+443666619+448313965+453086750+458465500
2062+464347606+470249339+475967245+481589317+487247727+493009034+498989356
2048+505286784+511632089+517737315+523830059+530144939+536510773+542857310
2035+549146814+555152018+560847629+566324841+571667786+576965360+582212061
2021+587148224+591229146+594800554+599024448+603770420+608078323+611841851
2008+615381478+618732351+621717544+624345842+626876294+629407074+631531359
1994+632565663+633013547+634262267+636408560+638849049+640956705+642109591
1981+642697079+643296597+643737254+643830173+643656653+643213081+642449527
1967+641751341+641823895+642445257+642469852+641579012+640393730+639464335
1954+639055130+638756130+637977343+636764510+635251445+633883323+634148776
1940+636150333+637996354+639298863+640767911+642694163+645239602+647999785
1927+650179132+651972391+655055882+659582101+664268783+670384602+678534211
1913+686287343+692205952+697508042+704248222+712212896+719994770+727479123
1900+734748157+741286978+747336773+753534631+759197230+764120500+769660247
1886+775851781+781310229+785229744+787894955+790001174+791473917+791869491
1873+790504735+786221263+781348989+781157403+783728012+783635791+780396149
1859+776332595+772599411+768759881+764187428+758697610+752149592+744207912
1846+734795376+727597294+725786708+724367014+720110888+715110754+710149790
1832+702921899+694333522+689318030+687070154+685317299+685192312+685086746
1819+683348508+681065648+678877391+675845308+672688608+671876891+672660112
1805+672090116+668962814+665310642+664525860+665699563+664544912+660058480
1792+658248427+663182168+668258223+669299548+668351183+667439115+667721157
1778+669067600+668226073+663632803+659722157+662295557+668490705+673789799
1765+676170710+675832990+676494222+678561845+680336421+682254297+681653752
1751+677621240+676139914+680324760+685706918+688948818+690704712+693816904
1738+697173895+695870483+694573641+702606557+713686461+723043894+730052935
1724+734698310+737577773+736517683+731990807+733847299+746136587+759412959
1711+768059888+771296163+771687712+773841561+776377843+776475566+780374962
1697+790495209+805562623+822828560+835029076+843218102+848626046+849590301
1684+856748391+877367623+896906236+909063475+916318220+922922244+927404611
1670+930469830+940522903+953420537+959309869+961106824+966056783+971566556
1657+970551304+960413236+956143889+969582367+977594507+979456172+988631872
1643+1001377010+1008618944+1008191508+1000927073+997492724+1008175413
1632+1019080893+1021471330+1019700244+1017307918+1014039534+1014261587
1620+1016323050+1013148201+1009874644+1013924319+1018124193+1019245873
1609+1019580759+1018792815+1016294308+1015489941+1018383446+1020855757
1597+1020389561+1019889941+1020489337+1020020841+1018097996+1015983483
1585+1013647574+1010755219+1007599504+1002767469+993957121+987207990+989826229
1572+992471813+991148117+994566453+1004273471+1013101475+1014278422+1004294987
1558+999489230+1014146126+1026310920+1029897684+1028353660+1025690666
1547+1022040916+1014101042+1001131881+989424414+998745961+1020593629+1032257490
1533+1037892742+1046430615+1051981037+1051424919+1049246188+1045083762
1522+1040113272+1040829607+1044329159+1047724008+1049941172+1047051526
1510+1037107509+1021761953+1018478788+1035464202+1047479290+1047794303
1499+1043171675+1043485292+1050230481+1052896842+1048133624+1047070003
1487+1056811512+1067064137+1070369146+1069928982+1069971356+1068147959
1476+1061994693+1056013796+1057951094+1064209803+1065015977+1059865726
1464+1056812005+1056618447+1048825487+1031546575+1024238206+1032116736
1452+1037164993+1034329465+1027964164+1022595391+1017241318+1009972449
1441+1001050171+989804877+979199382+977115582+978115806+974094544+968273618
1427+964926234+964342195+967021120+968673050+966668661+971137067+983748595
1414+993307550+995531037+994126863+992703885+992753814+996780906+1002108618
1400+1003144318+1002874225+1006681810+1015002968+1025381976+1032853025
1389+1035685762+1037379819+1040341977+1042509868+1044144389+1048387047
1377+1054246816+1058552132+1062487742+1067629452+1071693252+1072348982
1366+1068469542+1062474685+1060383905+1062024092+1062918627+1062524778
1354+1060664345+1057295446+1054597141+1053444173+1052404285+1050808115
1342+1047749384+1042419290+1037261813+1034524172+1032832413+1030428427
1331+1027958662+1027257437+1028386918+1030048456+1032420991+1035590092
1319+1037886501+1039911092+1042640932+1044382866+1044950973+1045510623
1308+1046948301+1049979768+1053268929+1055085263+1055737133+1055651153
1296+1055064733+1055276603+1057055327+1059963367+1063205473+1066503009
1285+1069978911+1072624742+1073553357+1073741823+1073538904+1071131632
1273+1066143734+1061029944+1056480814+1050118059+1041450928+1033188404
1261+1027262775+1023704096+1021218318+1018547604+1016132367+1013978601
1250+1011620109+1010348395+1010865917+1011286044+1010425095+1009457884
1238+1008872942+1008626827+1009823072+1012408791+1014268239+1014215107
1227+1013495652+1013377891+1013447858+1012826372+1011774166+1011404461
1215+1011506126+1011287686+1011509411+1012321169+1012588716+1012593972
1204+1013569806+1015351076+1016243147+1015531986+1014171419+1012681759
1192+1011685969+1011800691+1012288978+1012286678+1010967664+1007664379
1180+1003515748+1000981519+1000787304+1000771291+999118540+996442243+994082436
1167+992082399+989716927+987885236+987558890+987186064+985102921+981864018
1153+978652297+975385802+971562039+967348862+963093640+959786249+958385196
1140+957541904+954716640+949649577+944337140+940179887+937526008+935939117
1126+933889397+930659035+926883476+922450053+917044737+912649664+911117630
1113+909880407+906420272+903015240+900744699+897665273+893913119+890627161
1099+888383555+888214963+889416956+889675553+889540629+891520629+894276501
1086+894958674+893930939+892861816+893885116+896774680+898628461+899623758
1072+900699122+902126700+905925498+910080616+909888537+907578660+908242848
1059+911929470+915837899+918571188+920473666+921599124+922042162+923105044
1045+925303155+927025626+926777870+925461894+924293734+923405440+922986298
1032+922669396+921706865+920072016+919063745+919712905+920056742+918753823
1018+918081176+918328276+917014928+914584088+913031769+912703863+912914830
1005+912113091+910000631+908572232+908601467+908830828+909157420+910569888
991+913172852+917015256+921830210+925817063+927523768+928068553+929285000
978+931665171+935098124+938539782+941020797+943058528+945329316+948341321
964+951045292+951328689+950098446+949842642+950630667+951489398+952199656
951+951856968+950707532+951692482+955623165+959596551+961438507+961319104
937+960108160+959149324+959175685+959281292+958724434+957500515+955780836
924+953652855+951242052+949601537+949215736+949214997+948758327+946992414
910+944436094+943389390+943515938+942271652+940048823+938749763+938734243
897+938515721+936460416+934513593+934509897+934531659+934152264+934452988
883+934555638+934060700+933131428+931469890+930645485+931877370+933451943
870+933642462+932186717+930314705+930537743+933212727+935843694+938042216
856+941413578+946076363+952538730+960579119+968343420+976329609+985855963
843+995969230+1003441101+1007338608+1012028574+1019021356+1025340998+1030709688
829+1036897610+1043382149+1047520268+1049475057+1051126741+1050857879
818+1048045016+1045030055+1042334952+1039779372+1039507307+1042667539
806+1044431645+1040936117+1035722880+1031082185+1026285545+1022844133
795+1023980020+1030014869+1032916094+1026032204+1015794689+1007674808+998724773
781+989481406+983748841+980118389+974364391+965801800+957219828+949703038
768+943629017+940890308+939540088+936871674+935214406+934683007+932783895
754+930681618+929509845+929349874+929987127+928389561+924273861+921598631
741+921442849+922106134+922701259+923161543+922005208+917859862+913547402
727+912300735+912734659+910974084+905332015+898935016+895250529+893689999
714+893124273+893644340+895423392+897952530+900720063+904077383+906748342
700+907968238+909492307+911606984+913769784+916401326+919266746+921505260
687+923251300+925945335+929281879+930868031+931549053+933720229+935159797
673+932780117+925804581+916649903+917084566+926085022+928999714+925910598
660+923440505+923924111+924990606+925845723+927059706+928135399+930287605
646+933188091+935378565+938338013+940241395+939561768+935023805+920993980
633+907959697+913110194+928370345+934696721+930127142+921906910+915750605
619+914561587+916353532+920340632+928337661+937489136+939059849+932253563
606+929227680+936532354+948943015+959691810
##END=
