##TITLE=Sample description
##JCAMP-DX=4.24
##DATA TYPE=INFRARED SPECTRUM
##DATE=13/9/2023
##SAMPLING PROCEDURE=Instrument type and / or accessory
##ORIGIN=Default
##XUNITS=1/CM
##YUNITS=ABSORBANCE
##RESOLUTION=4
##FIRSTX=4397.6552
##LASTX=599.8556
##DELTAX=-1.9287962
##MAXY=1.6931232
##MINY=0.28654909
##XFACTOR=1
##YFACTOR=1.5768439e-009
##NPOINTS=1970
##FIRSTY=0.32789671
##XYDATA=(X++(Y..Y))
4398+207944945+206368687+204729151+204004337+203949829+204649884+205730982
4384+205716278+204693997+203821101+203647675+204012426+204429548+205140547
4371+206110929+206180840+204675381+203151116+204005508+206425576+207645683
4357+207143227+206077532+205715031+205859313+205500081+205408057+205835424
4344+205741529+205103522+204400480+204196795+204636730+205064097+204677271
4330+203306152+202222957+202101241+202166238+202098122+201687709+201219254
4317+201626190+202449926+202299010+200998275+200210165+201273535+203074212
4303+204114089+204572376+204963397+205114030+204890084+204516659+203968351
4290+203089086+202355767+202556485+203679597+204698495+204444839+202956030
4276+201673005+201291868+201428836+202137907+202976121+202793150+201504134
4263+200514152+201079300+202622408+203511198+202930194+201842878+201499238
4249+201802054+202527965+203202335+202995342+202381943+202196799+202132879
4236+201546432+200920956+200980434+201241046+201401847+201659265+201455995
4222+200574406+200122280+200407538+200502888+200312036+199810336+199123114
4209+199570306+201227494+202500182+202563194+201842424+201028648+200469775
4195+200252444+200499316+201065295+201497330+201530461+200894174+199929406
4182+199564844+199629236+199779491+200395744+201170209+201354219+201073913
4168+201202698+201826284+202181660+202219498+201978599+200889676+199478339
4155+199110885+199326459+198767888+198297468+198923832+199288810+198630807
4141+198178530+198644453+199312718+199298203+198755358+198882668+199956546
4128+200466317+199935170+199517745+199606821+199597447+198948175+198303856
4114+198340163+198422227+198309243+198205557+198078890+198392270+199356944
4101+200069133+199886352+199511055+199293251+198772538+198395351+198816443
4087+199488129+199659949+199394234+199316461+199754883+200003437+199713492
4074+199506084+199357927+199181212+199546265+200164673+199855734+198751068
4060+198286789+198607806+198802740+198627972+198412172+198339823+197977907
4047+197594181+198368494+199993496+200997897+200846357+200137079+199726118
4033+199818784+200117650+200375597+200142503+199332525+198916121+199356906
4020+199855034+199825059+199465827+199353580+199743827+200289602+200740121
4006+200914870+200749041+200605194+200541123+200246340+199755432+199432034
3993+199693780+200656072+201625150+201732162+201257602+200937172+200677807
3979+200309541+200084424+200113492+200607140+201539968+201872475+201168489
3966+200339762+200084367+200671230+201500013+201858848+202106060+201769773
3952+200132581+198656605+199331883+200814908+200803681+200808595+202141630
3939+202966255+202239040+200558265+199551331+200561005+201900220+201311146
3925+200206045+200646037+200757376+199337780+199304780+202349190+205332174
3912+205698701+203654347+198954356+192397328+188615593+189950101+193982829
3898+198976374+202061778+200761307+198260840+199235342+199888128+197906238
3885+197344039+197089003+197158971+200624717+201861060+198763787+195308700
3871+192978635+194208721+196463697+195865758+197128372+201552026+203016907
3858+198370384+188080818+181723185+190598371+201416608+205909814+204358692
3844+199522640+194257615+190078092+190101037+194377479+197478343+199266546
3831+202106627+204258825+204319286+201598482+195253437+192401410+195757556
3817+198183161+202318477+208075015+209438762+205527808+201184119+200101055
3804+197880364+196570104+200963613+204798363+207554188+211546243+214001823
3790+214386456+213971696+213174098+212894189+211882076+210226551+212135090
3777+216455645+218111719+215644704+211896176+211542330+214459410+218422567
3763+220721258+219339953+218849725+222048339+223232971+219988468+221655560
3750+238993516+260434431+281758016+307949593+324633062+324964946+313942022
3736+300948227+298029616+304824424+312068731+315243116+316569441+320270681
3723+327983613+339047814+351053121+360952441+366280006+369103814+378838099
3709+398564616+422358145+446678038+469233694+486577188+496533207+499866144
3696+496992552+486412191+469565011+456556039+455647403+459253482+458747983
3682+452121838+441048111+426888017+412578387+408144602+407723624+402838734
3669+402030004+405609245+405924345+402294868+395756041+386544265+377300094
3655+371333710+363431514+349035737+338562652+342169071+348952653+350247642
3642+347247874+343317434+338729350+333237241+327593291+320084668+310041916
3628+307064186+311196025+311528910+305637407+297155038+292846749+292526848
3615+290636358+287377794+284424860+282496174+283248903+284061735+281482946
3601+277287679+273921100+270678544+268099905+267781138+266794143+261625187
3588+257042697+258450236+260840724+260573101+259083139+257773805+256432644
3574+254555762+251316532+245414256+238806066+237658251+241338550+243616093
3561+243562587+243104999+242153347+240012149+238037215+237385751+236194636
3547+233945954+233174759+234316621+235209267+234572035+233043329+231946903
3534+231431822+230330066+228111359+226027825+224957916+224618983+225155459
3520+226183939+226343984+225313992+223797703+222149416+220959285+220669794
3507+220092853+218801606+218662445+219904250+220447927+219795726+219048175
3493+218571971+218066793+217712003+217565604+217237935+216800684+216551431
3480+216466192+216328033+216003463+215876644+216154663+216082031+215495696
3466+215075323+214677913+214142136+213975760+214187496+214247749+214073019
3453+214156954+214172773+213425921+212630516+212385383+212426736+212958298
3439+213744292+214110309+214085380+214008646+214026714+213990785+213729852
3426+213215962+212564177+212288331+212793585+213683868+214348638+214674870
3412+214626845+214234368+214050623+214403996+214840094+214851245+214550924
3399+214556500+215279235+216403859+217422569+217984730+217952751+217788151
3385+217733587+217583861+217573220+217928597+218549291+219239348+219622716
3372+219433357+219027536+219014779+219437704+220027307+220618764+221102263
3358+221402621+221582530+221994172+222685042+223077670+222715017+221973628
3345+221601865+221595968+221578845+221550079+221484988+221219594+220833467
3331+220539554+220229140+219666015+218839273+217881347+216964017+216176757
3318+215669614+215300365+214461848+213217209+212224601+211722882+211269055
3304+209897654+207703933+206494126+207055607+207809848+207606333+207175262
3291+207213799+207421170+207142736+206681765+207160199+208070195+208268343
3277+208269118+208497524+208895407+209641257+210046113+209689962+209467282
3264+209906197+210621088+211232522+211579658+211490525+211197368+211167978
3250+211262554+211291490+211361306+211511372+211965936+212637906+212843046
3237+212621066+213035788+214238621+215061318+215159182+215199288+215327902
3223+215504863+216131189+217156532+217879476+218351257+219404062+220860929
3210+221684666+221831368+222029836+222678257+223880220+225627788+227705312
3196+229347324+230249099+231106496+231967844+232455086+232815886+233370374
3183+234074285+234827374+235709134+236514216+237077946+237655775+238234285
3169+238719636+239344375+240297728+241599502+242923522+243802201+244628508
3156+245845799+246946931+247594274+247983198+248444490+248897466+249078660
3142+249223188+249227063+249005120+248857984+248795633+249054298+249704080
3129+250235831+250417403+250291888+249933582+249590774+249278698+248716915
3115+247973748+247321699+246761711+246168781+245328885+244132232+243134427
3102+242827188+242672379+242091904+241336415+240946224+241086273+241499484
3088+241954954+242385118+242801466+243183378+243400312+243457635+243651247
3075+244143516+244551226+244596813+244693694+245123631+245525823+245621286
3061+245496887+245416014+245724424+246261296+246412099+246027730+245512933
3047+245090688+244508758+243685210+242881375+242110444+241294778+240376295
3034+239090473+237604235+236505295+235846499+235197530+234369238+233664458
3020+233212408+232689219+232074743+231476086+230662214+229599544+228616102
3007+228080042+228058194+228063656+227821528+227727633+227888037+228366812
2993+230002586+233175005+236898547+239919634+241781396+242847657+243621063
2980+244076761+244197910+244370070+244386286+243633367+242336866+241251478
2966+240481455+239628688+238791286+238176054+237545796+236844512+236260843
2953+235809133+235558954+235802745+236509397+237013932+236786111+236228448
2939+235935858+235660428+234962603+233962265+233100010+232739776+232736469
2926+232693150+232475063+232094531+231589996+230994287+230468433+230239668
2912+230165050+230193193+230665881+231412695+231873250+232020311+232150191
2899+232502014+233087611+233595681+234043988+234609287+234871203+234706754
2885+234743420+235242417+235907905+236521927+236890515+236741507+236393143
2872+236509340+236929997+237132510+237106844+236919942+236454114+235845384
2858+235459881+235299798+235111289+234684490+233899895+233145880+232917342
2845+233099745+233424523+233926809+234606112+235244874+235829999+236513101
2831+237185373+237663071+237994879+238332546+238623038+238783518+238963049
2818+239183952+239389773+239690585+240066052+240410164+240763102+241239288
2804+241849133+242545654+243372472+244156405+244709494+245190045+245635064
2791+245934176+245979120+245723932+245450166+245324840+245166798+244899780
2777+244640680+244550149+244678026+244817602+244673887+244267613+244015752
2764+244199724+244513161+244530512+244351907+244330758+244500858+244620816
2750+244602955+244590425+244687703+244787400+244701821+244524350+244446577
2737+244371336+244274209+244306944+244310459+244029624+243697608+243676232
2723+243818304+243812180+243732724+243734407+243684605+243581959+243696493
2710+243967235+244129114+244196171+244069825+243637336+243253024+243109762
2696+243060660+243122709+243244028+243220932+242971603+242672946+242545881
2683+242399690+241990089+241417023+240916589+240709275+240563065+240022299
2669+239309410+238827347+238447552+238042412+237670253+237331470+237143245
2656+237180025+237154907+236908300+236749011+236823344+236954038+237053660
2642+237047593+236914764+236758309+236586981+236489722+236575074+236629468
2629+236599720+236739107+236974393+237134249+237372370+237759933+238045852
2615+238145927+238341391+238771744+239390907+240076920+240531597+240716590
2602+240947717+241372589+241946544+242720347+243633235+244362415+244710591
2588+244784187+244860675+245130133+245512800+245934157+246456741+246979193
2575+247317409+247475507+247513345+247554566+247743660+247967322+248049877
2561+248063278+248071027+247911643+247711265+247784503+247969968+248086846
2548+248241674+248417482+248445643+248240030+248096409+248388943+248882573
2534+249133943+249235303+249402984+249517896+249483725+249388318+249338554
2521+249411073+249638761+249949004+250194326+250255846+250160155+250166619
2507+250368924+250607461+250871097+251143105+251403358+251720538+252064272
2494+252409631+252737281+253054234+253444424+253919229+254448164+254933024
2480+255179008+255090367+254766648+254476552+254477781+254695225+254848504
2467+254834877+254691124+254518869+254471222+254567007+254652813+254613558
2453+254548032+254683658+255088609+255505486+255726975+255924385+256224120
2440+256476189+256602611+256697678+256844077+257035591+257189871+257208374
2426+257099567+257011380+257057061+257164583+257258006+257400531+257563241
2413+257645153+257775695+258090323+258364052+258373672+258330410+258518937
2399+258820146+259008711+259190000+259518879+259848645+259993854+259921391
2386+259419465+258133680+255860655+252476461+248163996+243461737+238786070
2372+234367859+230080227+225541756+221023242+217290930+214938487+214511102
2359+216149749+219644999+224988648+232068260+239146417+242718192+240995553
2345+236276398+233186704+233026035+234381278+236334931+238194292+239528574
2332+240781511+242835882+245509134+248119240+250691169+253544934+256824232
2318+260330519+263559525+266113933+268203440+270389695+272850775+275437106
2305+277882178+279921656+281629458+283259809+284897038+286483371+287969061
2291+289350026+290654200+291903527+293061831+294021629+294682769+295207867
2278+295909945+296814801+297753449+298573954+299159060+299626173+300210636
2264+300897292+301530743+302020253+302311728+302511785+302951172+303661981
2251+304224709+304516374+304736218+304985528+305325841+305690497+306021738
2237+306388568+306729429+306975923+307226178+307463694+307542072+307581819
2224+307772236+308023058+308278094+308604251+308893723+309010412+309114210
2210+309490150+310139440+310760285+311197404+311587065+312071056+312666897
2197+313306964+314017244+314809096+315561618+316292348+317068741+317878057
2183+318663313+319371080+320158264+321165142+322169865+322949073+323672754
2170+324554438+325597377+326741355+327843715+328847758+329860419+330952007
2156+332164894+333405905+334431040+335303690+336401023+337761519+339084291
2143+340289279+341471813+342652646+343849809+345101214+346442017+347877470
2129+349291643+350616872+351992564+353504147+355096924+356741184+358427403
2116+360174707+361975535+363754401+365620434+367727480+369906913+372030250
2102+374231871+376575431+379048532+381641723+384325596+387174542+390327059
2089+393758464+397297940+400884665+404675510+408864843+413428584+418128216
2075+422837902+427836570+433353513+438937777+444151867+449504606+455627861
2062+462201388+468794912+475570329+482543856+489448775+496338008+503570276
2048+511120743+518573989+525690551+532623481+539865576+547353711+554632813
2035+562049582+569781565+577021204+583338750+589383115+595806728+602314862
2021+608119614+613185149+618427513+624261900+629874477+634597469+638808158
2008+642952547+647014304+650929776+654558875+657868035+661051019+663880498
1994+665678340+666809088+668646469+671309401+673874658+675741447+676899940
1981+677819386+678683418+679351797+679867464+680471659+681010308+680945897
1967+680638961+680895926+681470636+681885907+682079972+681855667+681497247
1954+681635142+681963170+681897247+681589101+681162415+680879823+682235405
1940+685145927+687223942+688309860+689992412+692878212+696343411+699328399
1927+701514144+703364452+706153863+710245407+714928066+721423310+729550756
1913+736251178+740997040+746360326+753829070+762067421+769680410+776547756
1900+782512289+787643936+792909396+798197838+802384638+807158849+814508523
1886+821803614+826744448+830587117+834473709+837900805+840142268+841229621
1873+840670106+837285800+833581176+834457984+837972323+839445010+838464025
1859+836803397+835542390+834299527+832027976+828436072+823496524+816845468
1846+808989955+803517956+802710851+801931945+798064933+793005786+788339758
1832+782307337+774958873+770479728+768489786+766303814+764740408+763280195
1819+760912708+758406192+755735851+752044684+748417551+746998465+747071419
1805+745965165+742482730+738684816+737755315+738743632+737758187+733908714
1792+732189799+735853220+739521556+740004488+739187328+738418326+738196289
1778+738868826+737883230+733047329+728409878+730697834+737190961+742390271
1765+743850483+741990423+741376173+743376774+745781684+748297498+748414225
1751+745221413+743791364+746361838+749430741+751136729+751664492+752716465
1738+754091704+751816826+749273040+754838556+763104350+769526110+773836592
1724+776210807+777109993+774326706+767752687+766806403+776463765+787570302
1711+793972785+794990889+793382122+793655340+794169874+790943495+790760997
1697+798059036+809130722+821077023+828638831+831319907+830406886+825493571
1684+825460459+837838209+849950603+855523754+857255673+860340453+863923965
1670+866763650+874595349+884420770+888645596+890879952+897793415+905509371
1657+906627872+898107835+892386508+901629507+906751024+907582850+916360607
1643+927366672+932370026+931885733+927390183+925365088+932377284+939585662
1630+941381614+940310665+939520495+940501177+945249836+949194111+947175441
1616+946357828+953303496+959341890+961016277+962108545+964501207+967452099
1603+969755100+971194522+972750974+973272009+972471481+972714761+973946814
1589+975880131+979333536+983104384+985951100+987447298+986052782+980950467
1576+978780598+983983839+986689560+985661174+989026732+994108408+995697141
1562+992344435+980528997+974545338+989639016+1004385312+1014174671+1023061065
1549+1030088684+1030606090+1024034792+1015260815+1010998038+1022007278
1537+1038715467+1045101318+1044138855+1045280792+1046953743+1045612600
1526+1043923244+1041800096+1040035215+1042739425+1046316663+1050155325
1514+1055012318+1056542990+1052131507+1042067946+1040698832+1057032424
1503+1069213538+1069901498+1064728194+1063922072+1068917867+1069400875
1491+1063781608+1061348651+1065483589+1070109397+1072701946+1073741823
1479+1072383670+1066908118+1057938186+1049488533+1049171240+1055316834
1468+1056639758+1049646537+1042644245+1040969253+1035883570+1022890361
1456+1017401881+1023830899+1026116739+1019496150+1009112651+1002728690
1445+999503446+993898770+986169584+977098650+966029157+957659715+952447478
1431+946204814+940255402+936597272+933788886+931513630+930360429+932532037
1418+941744796+953693441+963479323+970455080+974335246+976245959+977797572
1404+980539657+984010601+987097195+991903309+997633860+1002660348+1009258332
1391+1013940160+1011967304+1008428472+1009226656+1010464075+1010160542
1379+1011822833+1015514453+1019160184+1023844280+1029705543+1034412319
1368+1036667541+1035746356+1032161936+1029534007+1029880179+1031041167
1356+1031790514+1031931508+1031006996+1029533402+1027610745+1025100071
1344+1021816615+1015397349+1006444276+999913727+996492452+994268151+993559931
1331+993972631+995195535+997339096+998849053+999674378+1001933077+1005461250
1317+1008382658+1010903916+1013680928+1016138909+1019417980+1024206782
1306+1027728378+1029042229+1030085433+1030765757+1030678136+1031015463
1294+1031415992+1030823137+1030721909+1032816632+1036563364+1041184864
1283+1046129553+1049730604+1051233229+1052695029+1055162157+1055478770
1271+1051818372+1046906266+1042891078+1039642096+1035411599+1028947049
1260+1022494293+1018468823+1016610501+1015160343+1013066225+1010214747
1248+1005932993+1000829998+997250039+996683947+998269428+999141096+998512255
1234+998135087+996859868+993481458+991712268+993402910+995118348+994667923
1221+993174825+991780837+991838596+994849665+998129871+998463493+998597986
1207+999781729+999462773+998853362+999731909+1000137276+999761695+1000265796
1194+1000057291+997180487+993355735+990904483+990198909+990616145+991378797
1180+990935781+988296588+984709825+981458574+978774776+977211597+976848188
1167+976363063+975024188+973825929+973171536+971326671+967910537+965173139
1153+963405613+961283976+958701936+955977541+953526062+951436102+949450319
1140+947701768+946614187+946148719+945292776+943177263+940056423+937060322
1126+934078887+929516961+924850328+923245946+922590268+918717586+913051976
1113+908844613+906486273+905261100+904854448+904960893+903589662+899163890
1099+893404536+889637467+889800158+891388211+890889629+890213917+892819468
1086+897043312+899117321+898997041+898486893+898400104+898740531+899166763
1072+900519548+903279097+905302302+905103097+904003269+903825533+905579301
1059+909270392+913763749+915937020+914290378+912730978+912651599+912639200
1045+914738459+918690975+921680423+923487564+924173482+921901099+916304436
1032+912276320+912823210+913853940+913196296+914346927+917768126+919463228
1018+917214508+911961069+906854747+903795369+901187020+898505491+897197461
1005+897449133+897768996+897183323+896520614+896655107+896880470+896110258
991+896232957+900433213+908058298+915731615+921567325+925571476+927529892
978+927693566+927685779+927649869+926244920+923541088+920917771+919113200
964+916514982+912212287+909304034+909122896+909545802+910082713+910518622
951+909762472+907781602+906374385+907041857+907124790+904836682+902593859
937+900669085+897795154+894873367+892615349+890184433+887253272+884768681
924+882667910+879287308+874238593+869446086+866820047+865382439+862655625
910+858643915+854368209+850754381+848817284+847517646+846074594+844909599
897+843618655+841599078+838134938+834373539+833707428+836171608+837313621
883+836101603+836569793+839397608+842121776+844450179+846478449+848362399
870+851653718+856296310+860681106+865592002+873283917+884144830+896682776
856+909189424+920799986+931066608+941510209+955246717+970682182+983243866
843+993167340+1002335949+1010148672+1016283758+1021754623+1027427566+1032488906
829+1035996214+1039153040+1041332661+1039305298+1035166277+1033325268
818+1032740427+1032664222+1033813265+1034548021+1033672574+1031235761
806+1029706072+1030709132+1031157591+1029487513+1025700410+1018473510
795+1010312951+1006645976+1006933483+1004612263+997362758+989133101+983105821
781+978711953+973169495+965027382+956523146+949950261+944528990+939261716
768+933623776+928972187+928209460+928441173+925985007+924518822+925726456
754+926365955+925737644+924732165+923345360+921822475+920800893+920096755
741+917919931+914718879+913349915+912621434+909801028+906310125+903291495
727+899352134+894985104+892144285+890477005+887845900+884475353+883718975
714+886489033+890550261+895911808+903408373+910583033+914026232+914723793
700+916629818+918766348+918380637+916980753+916054805+917480771+922222096
687+924696406+922335647+921343550+924235096+927067598+927360019+926369811
673+924583082+918753042+911078969+914565335+925084537+929356991+929659466
660+930140811+930442077+928293754+923868814+920599193+921133382+923246702
646+922343056+920043382+923113495+931920585+937671094+932779022+922153603
633+918315848+925051121+935281153+941065530+940284054+936620028+932273863
619+927934352+926382739+927561795+926565161+921953112+923050672+937149756
606+956239873+964579982+952579022+929133064
##END=
