##TITLE=Sample description
##JCAMP-DX=4.24
##DATA TYPE=INFRARED SPECTRUM
##DATE=13/9/2023
##SAMPLING PROCEDURE=Instrument type and / or accessory
##ORIGIN=Default
##XUNITS=1/CM
##YUNITS=ABSORBANCE
##RESOLUTION=4
##FIRSTX=4397.6552
##LASTX=599.8556
##DELTAX=-1.9287962
##MAXY=1.8583173
##MINY=0.47019154
##XFACTOR=1
##YFACTOR=1.7306928e-009
##NPOINTS=1970
##FIRSTY=0.49820599
##XYDATA=(X++(Y..Y))
4398+287865060+288589586+288470493+287516133+287370436+288451844+289061893
4384+288772375+288662151+288976241+289198584+289291055+289833757+290434111
4371+290031510+289492528+289442797+288468582+287066315+287215353+288223595
4357+287427037+284843728+283977947+285067449+285178104+285015393+285521503
4344+285715829+286349452+287315470+287474582+286905792+285519867+284090548
4330+283948828+285023538+287125517+289320535+289464597+287647262+285752025
4317+284766273+284765946+284484453+283136963+282733208+284190062+284984828
4303+284235608+283992033+284459208+284342216+284207006+285006215+286080598
4290+286362780+285120125+282953244+282075495+282549627+282819049+283363662
4276+284028970+283675239+283252284+283022915+281995319+281313653+282059274
4263+283271209+284192851+284733883+284854422+284179489+282835356+282200735
4249+282635348+283303668+283436210+282553725+281958451+283228056+285196650
4236+285830272+285230056+284338445+283384206+282825989+282663330+282100791
4222+281239952+280942013+281344976+281717924+281781551+281783842+281965598
4209+282328851+282277880+282019341+281978478+281404987+280342951+280013035
4195+280923691+282184428+283030578+283619343+283567925+282884261+282699371
4182+282933544+282352821+281178201+280821078+281440098+281972365+281956764
4168+282183773+283073559+283650167+283532038+283248238+282715885+282182258
4155+282517443+283198231+283033437+282828348+283742810+284538885+283765178
4141+282343763+281344235+280266409+279323913+279384286+280085273+280974438
4128+281942523+282513276+282503633+282483640+283007486+283527441+283210061
4114+282372727+281777298+281453272+281042268+280623876+280505731+280865006
4101+281409878+281461296+281293575+281548721+281720541+281567353+281821691
4087+282442485+282777756+282946631+282848977+281783652+280591761+280772535
4074+281574396+281665369+281585934+281995353+282153914+281430214+280629696
4060+280608964+280963900+281321660+281810102+281973243+281617997+281676631
4047+282321050+282345072+281562136+281170091+281492740+281836483+281948102
4033+282002810+281936065+281585400+281111750+280907574+280889717+280544992
4020+280294236+280927135+281893119+282680188+283372651+283544747+283517574
4006+284040163+284446862+283930834+282947510+282273041+282152933+282364961
3993+282730970+283452861+284373023+285074716+285489525+285399534+284739152
3979+283966375+283404319+283165100+283685347+285062059+286236644+286570159
3966+286225124+285452985+285424882+286360008+286812357+286441871+285669473
3952+284570001+283675446+283854153+284433189+284136663+284391827+286473246
3939+288149721+287408991+285027550+283616312+284928674+287002223+287108797
3925+286215326+286305851+285888837+284170844+284231768+287294599+289876806
3912+290122155+289225447+286746956+282095745+278638510+279063858+282127637
3898+286296346+288654109+286831075+283938393+285036953+286848294+285907917
3885+284864203+284329870+284745076+287711097+288780021+286397048+283793195
3871+281983678+282276744+283314500+282782164+283853740+287010024+288191101
3858+285233862+277417913+271678217+278814807+288405316+292342073+290599628
3844+286342547+282524675+279868044+279930242+283232378+285782866+286806950
3831+288561208+290019697+289717729+287306550+282467488+280875338+284685254
3817+287700110+291227327+295479777+296048894+292408852+288815752+287949609
3804+286104516+284939023+288329445+291778604+294438490+297375169+299137555
3790+299723719+299205125+297750011+297324956+297349304+296469024+297694460
3777+301614152+304006958+302439811+299193106+298776523+300872871+303309518
3763+304650534+303472246+302709440+305049484+306328335+303115691+300699294
3750+307543370+316648313+326035179+345254494+367167927+380560345+384524705
3736+382634651+382252094+386457947+391470964+393484691+393634780+395348433
3723+400311409+407999190+416378831+423894138+428375095+430441377+438672652
3709+455172466+471078641+481999075+490746774+503372494+519564760+532698913
3696+538838248+537411995+530634491+525070576+525533170+526966209+524142114
3682+517091434+507937794+497027381+486529901+483834680+482939005+477679262
3669+476260034+478331999+477056557+472643274+465927658+456287625+446553192
3655+440852551+434252550+422014485+412328371+412605990+415080418+414745629
3642+412177869+408484963+403819030+398159337+391564743+383282945+373548719
3628+370382638+373800474+374368386+369874273+363031437+359203664+358574725
3615+356574498+353718478+351738364+350058806+349530293+349525988+347692140
3601+344677524+342495146+340678586+338829240+337767428+336120587+332231822
3588+329349558+330694190+332660941+332549701+331203347+329927285+328870983
3574+327554248+325212930+320659270+315028129+313270943+315652935+317678991
3561+318134836+317870442+317085732+315619597+314257608+313451752+311926243
3547+309971201+309513221+310216412+310437171+310032538+309614922+308928916
3534+308023116+307165669+305740070+304195274+303365758+302889319+302801601
3520+303298119+304038332+304440761+303926679+302749562+301684581+301173599
3507+300662788+299370712+298513093+299185460+299829449+299503511+299103149
3493+299099946+299126878+298802628+298135461+297635705+297753972+298082079
3480+297961368+297584528+297197563+296790692+296843729+297458582+297794783
3466+297253011+296291728+295822900+295778300+295485907+295430011+296083161
3453+296503567+295810915+294483572+294007339+294559064+295088438+295875489
3439+296916431+297444875+297663464+297548194+296893494+296326822+296246922
3426+296251399+296053853+295875730+295917024+296261111+296828024+297415567
3412+297900685+298002145+297494675+296895698+297069619+298043438+298996283
3399+299299525+299225135+299291259+299438214+299700266+300097012+300043079
3385+299392064+298848570+299051111+300085371+301168398+301317247+300802958
3372+300464174+300463416+300606238+300861919+301180211+301115086+300813772
3358+301013902+301392119+301371972+301221367+300911340+300115885+299428088
3345+299541498+300058474+300515971+300733183+300386960+299673506+299131149
3331+298695761+297810797+296711239+296100415+295704324+295412412+295432456
3318+295014495+293670656+291976805+290641059+289737945+289117238+288653661
3304+287624722+285832425+284085158+283213419+283746650+285065296+286090448
3291+286818039+287582171+288045576+287851714+287661366+288155938+289081489
3277+290029202+290744482+291416574+292288829+292975593+293328704+293550048
3264+293824912+294319880+294820083+295170817+295319838+295051139+294729334
3250+294757609+294781442+294676641+294772659+295230570+296161305+297259244
3237+297832391+298074950+298506515+298811686+299138243+299988733+300740312
3223+300876005+300911822+301339702+301948700+302399275+302866623+303307831
3210+303509923+303875260+304719482+305622561+306141052+306761863+308121166
3196+309852900+311251533+312108016+312776182+313412456+313522319+312947209
3183+312338383+312627230+314022453+315544553+316281564+316355230+316474185
3169+317029285+317749180+318352702+319168063+320439889+321224427+321008558
3156+321040587+322065170+323346054+323994692+324065673+324504883+325641808
3142+326544405+326347203+325470918+324853344+324725091+324833955+324843460
3129+324507776+324012808+323801933+324016596+324315843+324348905+324072974
3115+323577041+323175198+323087549+322946828+322331975+321281390+320107890
3102+319001409+318087447+317516608+317259343+317365211+317866654+318537058
3088+319152703+319635652+319944439+320070316+320237108+320381204+320317938
3075+320437237+320827853+320986379+320783288+320793861+321352853+321962368
3061+322245635+322359286+322340792+321973526+321481072+321304430+321408680
3047+321555531+321339766+320700805+320312531+320318592+320039458+319176811
3034+317880774+316326749+315190546+314888269+314617056+313769528+312853843
3020+312313070+311956584+311591660+311185995+310667504+309957597+309089750
3007+308359455+308223659+308762744+309319153+309413793+309584718+310620907
2993+312602571+314979017+317491983+320077548+322134601+323354733+324176396
2980+324814255+325168399+325213894+324637614+323320396+321870861+320759903
2966+319989417+319271968+318441143+317897271+317726656+317439256+316995775
2953+316854297+317216224+317635287+317632050+317534413+317681953+317898304
2939+318009682+317517813+316266031+315115020+314555787+314289224+314070256
2926+313908905+313776588+313537162+313047326+312369758+311766477+311262589
2912+311070518+311441434+311935232+312242228+312456443+312644484+312859560
2899+313215047+313810098+314386137+314872633+315316699+315363331+315274958
2885+315566353+316039383+316440090+316705930+316984031+317459782+317761509
2872+317581423+317368999+317487196+317581630+317136600+316243163+315723743
2858+315911061+316032909+315611435+314901838+314086546+313387108+313236538
2845+313796597+314675293+315292213+315578510+315893152+316194362+316358433
2831+316752390+317472800+318045775+318216734+318299630+318450235+318530997
2818+318774520+319215246+319416649+319396227+319654008+320270721+320860915
2804+321416394+321993294+322443560+323026935+323794942+324290599+324511840
2791+324927562+325587221+326085255+326308355+326478247+326598579+326479280
2777+326255180+326230418+326282284+326116113+325778431+325535665+325457073
2764+325379308+325405414+325746161+326141701+326330776+326343036+326192156
2750+326152481+326457721+326665806+326383778+326078401+326249567+326555357
2737+326695493+326908365+327141350+327079255+326880985+327048259+327568196
2723+327905947+327797599+327489880+327463809+327815749+328154705+328279205
2710+328247796+328160663+328182980+328334343+328497553+328627219+328646402
2696+328560440+328504475+328454813+328412142+328442312+328475374+328418617
2683+328245006+328151399+328181603+327922857+327289579+326689500+326356054
2669+326213370+326133401+326026500+325842902+325542553+325004053+324414754
2656+324228366+324304168+324220652+324085854+324111994+324203225+324279543
2642+324262255+323988321+323639308+323536333+323581036+323580175+323562439
2629+323512432+323405635+323385177+323460945+323581071+323824698+324016837
2615+323995140+324027720+324390095+324952772+325357921+325597966+325882508
2602+326145249+326284764+326424555+326847338+327599846+328255132+328627425
2588+329064707+329686000+330226636+330463306+330467163+330652346+331129371
2575+331492779+331580256+331638735+331858219+332162357+332511817+332925576
2561+333165587+333066469+332751793+332460467+332474347+332767670+333012571
2548+333126360+333193828+333225994+333309029+333395059+333326696+333162625
2534+333113893+333401706+333941377+334404385+334721713+335024439+335334741
2521+335557049+335740992+336019920+336239783+336317548+336507139+336843512
2507+337179300+337498557+337754306+338040397+338441827+338755194+338970305
2494+339288081+339715926+340092043+340396903+340806048+341256520+341619308
2480+341960159+342205817+342345436+342458467+342426404+342264330+342143240
2467+342092063+342069436+342127949+342380186+342695620+342770595+342575838
2453+342353288+342317988+342429572+342555312+342848360+343417580+343918403
2440+344090361+344227810+344552233+344760386+344692575+344564665+344527884
2426+344685756+345067520+345456827+345602094+345525431+345470707+345506489
2413+345485240+345490406+345833047+346452550+346904365+347062857+347178712
2399+347317986+347406393+347596466+348003234+348364645+348435316+348330309
2386+348010673+346993495+344961962+342043399+338371914+334074452+329712657
2372+325714889+321762927+317695557+313705538+310222852+308173790+307890833
2359+309273968+312570438+317453755+323518735+329808468+333372122+332158534
2345+327923236+324878416+324301998+325043658+326437091+327923477+329182078
2332+330512520+332565233+335349929+338021180+340014278+342022150+344925835
2318+348235565+350957615+353038224+355066863+357238945+359442366+361675853
2305+363715720+365298813+366712048+368405348+370222906+371795116+373105755
2291+374208206+375289064+376577731+377905831+379021128+379909261+380650783
2278+381356592+382089573+382799824+383548717+384407541+385223901+385952578
2264+386724786+387591325+388494818+389382571+390221111+390923682+391545905
2251+392286670+393110606+393789552+394351058+394866862+395182916+395463014
2237+395970897+396534745+397017763+397547618+398119008+398546406+398863803
2224+399302944+399916798+400479682+400778653+401043323+401581754+402211382
2210+402723535+403213200+403680479+404102021+404569920+405097778+405681773
2197+406243348+406710764+407164818+407716543+408538103+409607837+410590920
2183+411329067+412036666+412826026+413542855+414212054+414945242+415812573
2170+416871217+417949319+418934227+419871126+420787327+421710451+422614839
2156+423548983+424546014+425642955+427072652+428684158+429963905+431039803
2143+432292824+433506654+434552314+435737524+437160127+438626158+440081307
2129+441657959+443240363+444588232+445883649+447422486+449150157+450914058
2116+452635082+454318497+456168257+458181950+460081061+461958235+464030234
2102+466123620+468128187+470307948+472846916+475498020+477968797+480418153
2089+483115234+486000424+489007945+492132251+495270781+498520035+502062336
2075+505906296+510001424+514187784+518276988+522332236+526669786+531513462
2062+536693719+541946712+547297755+552938299+558702792+564167796+569590646
2048+575467344+581612396+587784069+593941485+599940960+605952283+612347539
2035+618896742+625159750+631255656+637348670+643336711+649216266+655084044
2021+660841958+666551588+672640125+678718811+683963367+688463403+692682412
2008+697229080+702376240+707308220+711291936+714855556+719016705+723400749
1994+726573753+728786439+731598101+735037737+738047634+740253708+742137080
1981+744384688+746979311+749319974+751056427+752297085+753046356+752979474
1967+753022869+754792177+757344094+758631383+758822731+759235250+759916744
1954+760341593+760975491+761795709+761983336+761596371+761097270+761634117
1940+763924292+766277630+767548939+768405938+769622351+771272084+773006815
1927+774674319+776045435+777647090+779974529+782155943+785285553+790459714
1913+795198074+798179731+800983265+805178510+810634112+816051417+820575424
1900+824352984+828329880+833322406+838742329+843236511+846859298+851382065
1886+857270162+863023117+867670005+871606125+875772303+879869050+882597781
1873+883219350+881805047+881310147+885087225+890144634+893523657+896098649
1859+897821257+897984639+897299288+896289859+894910546+893403256+891053775
1846+886592518+882757168+883165004+884831337+884460008+882123339+878705813
1832+873606248+867472458+863762194+861907062+860416165+860818421+861434893
1819+859825454+856968814+854115617+850835781+847705620+846375970+845813913
1805+843679750+839759886+836001613+834568919+834740773+833489645+829681366
1792+827262455+829406950+831553993+830878078+829713395+829440425+829456887
1778+829578184+828285522+824114385+819712915+819970800+823971736+828307426
1765+830178194+829275941+829293092+830778547+832215374+834557071+835356556
1751+831975811+828614146+829809964+833136087+835730985+837282152+838771809
1738+840201748+839135700+837316729+840780680+846646253+851414645+854262537
1724+855426739+855806610+853612866+848458474+847372450+853643999+861357610
1711+867396553+869807681+868103257+866836632+867007246+864752957+864265703
1697+869436213+878206712+888402120+895203146+898012053+897949993+894876520
1684+894673394+902761709+911649096+916594026+918188380+920837279+924218368
1670+926408048+931693587+938080303+940930537+943642186+949424209+954528939
1657+954604018+947894326+942941544+949150413+953802329+956827448+965240944
1643+973622479+977088910+975447856+969215154+967616116+978234170+988223836
1630+991182142+991309018+991611124+990995272+991790004+993776902+992408266
1616+991514623+997354298+1003598433+1005746441+1006727216+1009778372+1013618888
1603+1016200492+1017179959+1016532009+1015754291+1017386184+1021084808
1591+1024735354+1027202067+1027651575+1027556108+1030190749+1034200708
1580+1033633485+1026581118+1021232279+1023856451+1026284523+1025624175
1568+1026413534+1028798281+1031022814+1030105959+1020172223+1011635020
1557+1021513445+1034398324+1043884273+1049619802+1051215327+1050078677
1545+1046356359+1038230436+1029180769+1034194922+1048078760+1055103783
1533+1056387008+1058766796+1062269663+1064299130+1063293282+1057952846
1522+1053585816+1055402031+1056124026+1055368693+1058113887+1060088111
1510+1056362280+1048220239+1047314267+1059491064+1069556979+1071766496
1499+1068180904+1066056384+1069516340+1070913630+1065092277+1058654453
1487+1058305303+1060891729+1064409957+1068655966+1070390077+1065479587
1476+1055077471+1047049632+1049341322+1056051083+1056188566+1049317972
1464+1044026372+1041820230+1033083000+1017718666+1013132530+1018297736
1452+1018179470+1014156492+1010562428+1006985790+1002532936+996485038+987777427
1439+976889917+965596018+958017686+952985487+948000951+946550968+947168198
1425+944663876+941454366+939775290+940502107+949159091+961805302+971031507
1412+976670192+979456781+979722794+979261783+981179320+985396056+988364350
1398+990003889+992557322+998084628+1006906234+1013137696+1012219669+1008664246
1385+1009122708+1012417973+1014674260+1015317112+1016386949+1018931083
1373+1023782612+1030557602+1035014589+1034917055+1031935261+1027609696
1362+1024835091+1025695878+1027227966+1025992198+1023510813+1023210292
1350+1024024655+1022865481+1019968891+1017603224+1014789013+1009866056
1339+1005477397+1003036789+1001083573+1000361853+1001063460+1000734423
1327+999376532+999390859+1001045414+1003623092+1006777774+1009998649+1012826567
1314+1015078307+1017225006+1021007181+1027435982+1033576935+1036240093
1302+1036093104+1035553846+1035601235+1034665507+1033042981+1033099669
1290+1036141458+1042533477+1048737249+1051571159+1055199181+1062363340
1279+1068331474+1070699208+1072406594+1073741823+1073674390+1072069566
1267+1067840432+1062313402+1059252327+1059737515+1060742811+1058941750
1256+1054922905+1051292954+1048540460+1046882805+1047447893+1047390792
1244+1043426087+1038777408+1037418966+1038535779+1038937277+1037421790
1233+1035890805+1035098415+1033363960+1030890772+1029361784+1027583108
1221+1024538358+1022324777+1022296054+1024107861+1025570036+1024345495
1209+1023163592+1025028367+1026790649+1026008316+1025450323+1025985310
1198+1025747331+1024445371+1022339586+1020092943+1018782923+1018921922
1186+1019896981+1018840162+1015274545+1012399032+1010573311+1010013389
1175+1013029486+1017037378+1017278594+1014289430+1011138536+1009290774
1163+1007915113+1005472232+1002355640+1000497202+1000043354+998972967+996721226
1150+994469142+993343168+993208991+992258247+989196483+984465149+979521666
1136+976196025+976086162+977978489+977527879+973360737+967844728+962610780
1123+958472842+956343501+956881794+958161231+956957424+954523635+953605540
1109+952608784+949115560+943260181+937098288+933718576+932626216+930856357
1096+929834598+931281825+932440792+930811172+927933661+927484015+929933164
1082+932355382+933040526+932346978+931734984+932392645+934287659+936559374
1069+937915336+938103515+938029194+937721096+937400944+939923037+945479961
1055+949014858+948008735+945472935+945419829+947871458+949466156+948094352
1042+944863627+943776226+945889725+948208761+949171834+948146907+945231099
1028+942608305+942436175+944598372+947462176+949336456+949670866+949973523
1015+950449412+949375167+945776418+941223895+939832736+941815364+942452568
1001+940220390+938398251+939357674+942110030+944784622+946150365+945791227
988+945053734+946443861+950819295+955150714+957491791+960076771+961975917
974+961300967+961212870+961953049+960277555+957918087+956787636+955247559
961+955040094+958166397+961355175+962239037+962497197+963662501+964068615
947+961625665+958034218+956479882+957426218+958022921+956225441+952733112
934+949382054+947460798+945891791+945778898+948252844+948014383+943943534
920+941318880+940385563+939746636+940172863+940454098+939220397+937052827
907+934566070+931561890+928616877+926559377+924288626+922744967+923608785
893+923426047+920265235+917854039+918136031+919938126+922226993+923238626
880+922786019+924389259+928816421+931835617+931583242+931887345+935038377
866+939719084+944483412+946498138+947571005+953062907+960470348+967140917
853+975915548+985280889+992990849+1002453793+1014134589+1022769188+1026625476
839+1029849589+1035231559+1040423491+1041804525+1040504562+1040313628
827+1041411361+1042514397+1045386673+1052433875+1060476041+1061004071
816+1053913407+1047479095+1044898455+1044891292+1045471877+1045309528
804+1044930071+1044179973+1042209192+1040853161+1041000563+1037437908
793+1030162164+1026865039+1026329708+1024336679+1024854722+1025254774
781+1017410499+1006080575+999650052+997766886+995770345+990575864+984191628
768+981163685+981871697+981126077+976020244+971170506+970122780+968801808
754+964000630+960695240+963305980+968188161+970108591+969029524+966611646
741+964344477+963133231+960718797+957515968+955680673+952572485+948677210
727+948236519+949703584+947871871+941780580+936399849+934717191+933997676
714+933436032+934816929+937517419+940828458+945016333+949862627+955856454
700+961477849+962619183+960125882+959742430+964218979+971003473+973339591
687+967185068+960321224+959922136+961745308+963788550+968044547+971487903
673+971874593+966904591+957349693+956280683+962159136+963554429+964902608
660+967598828+969378950+973623444+979212672+981769067+983101059+985918645
646+989892993+996137610+1004179432+1005033056+998318060+996083195+995540769
633+988315514+986757459+1002097617+1017038756+1007625819+987008525+985858651
619+1010759699+1030481696+1023279447+1006186925+985061715+973077849+989791189
606+1021392079+1030190060+1007181890+984350878
##END=
