##TITLE=Sample description
##JCAMP-DX=4.24
##DATA TYPE=INFRARED SPECTRUM
##DATE=13/9/2023
##SAMPLING PROCEDURE=Instrument type and / or accessory
##ORIGIN=Default
##XUNITS=1/CM
##YUNITS=ABSORBANCE
##RESOLUTION=4
##FIRSTX=4397.6552
##LASTX=599.8556
##DELTAX=-1.9287962
##MAXY=1.7504928
##MINY=0.34103987
##XFACTOR=1
##YFACTOR=1.6302735e-009
##NPOINTS=1970
##FIRSTY=0.36586398
##XYDATA=(X++(Y..Y))
4398+224418777+223744718+223729581+223930119+223614121+223472410+223634449
4384+223498533+222942621+222405355+222337827+221971503+220955560+220102534
4371+219674385+219947753+220852641+221590207+222244121+222798643+222300717
4357+221070984+220028041+218974605+218282887+218674237+219402992+219493407
4344+219378660+219240185+218406865+217977619+219041731+219800539+218940786
4330+217596725+216659389+216393261+217023173+217790024+218037890+218048493
4317+217802784+217120718+216507460+216409823+216313868+216378454+217111340
4303+217085912+215648712+214642495+214991416+215623430+215404721+214246355
4290+213497637+214162374+214834587+214617340+214268218+213633809+212984520
4276+213136596+213417605+213467858+213733822+213432778+212236388+211678063
4263+212372450+213246389+213508862+213280190+212961724+212636001+212509920
4249+212963406+213368869+212905384+212297006+212368977+212714096+212996896
4236+213032726+212805133+213084021+213861165+214074901+213818864+213992547
4222+214141333+213893942+213952220+213814933+212748025+211401131+210688262
4209+210696744+210514706+210012466+210055315+210778769+211524945+211915327
4195+212479355+213411664+213830070+213293206+212836009+213022928+212902843
4182+212324025+211466100+210100066+209191815+209508946+210184577+210521232
4168+211454327+212954449+212934121+211465734+210711478+210931375+211093761
4155+211022083+210920919+210768769+210782516+211118330+211476684+211804766
4141+212183959+212171510+211675266+211426047+211525384+211437125+211400400
4128+211464290+211223882+211040090+210953933+210969819+211619967+212248270
4114+212157288+211829518+211383929+210740764+210488419+210942654+211559660
4101+212007205+212417421+212574597+212564798+213198641+214234692+214203889
4087+213003953+212261579+212966697+214565369+215852321+215836471+214711449
4074+213710240+213454952+213911875+214893578+215532319+215038305+214046512
4060+213752103+213817858+213548384+213655563+214470822+215209613+215078797
4047+214298582+214153709+214898477+215564128+215803987+215713370+215517384
4033+215939281+216754741+217015769+217168723+217568062+217846804+218331220
4020+218893457+218995043+218856220+218707562+218538851+219046941+220768422
4006+222338942+222286422+221176024+220214027+219838544+219929892+220038113
3993+220169240+221001755+222353566+223462850+224193231+224506158+224379364
3979+223976661+223624011+223949442+224993646+225988493+226504041+226703409
3966+226825870+227106642+227918189+228894682+229078128+228633014+228043978
3952+227063244+226258771+226846619+227763060+227474959+227736170+229747836
3939+231570445+231856829+230937462+230164048+230753999+231712924+231390729
3925+230997642+232017606+232787876+232848897+233887178+236207841+238246599
3912+238919233+238443810+236101942+231303787+226907164+226116036+229215342
3898+234708944+238322281+237185230+234643920+235333609+236083606+235238404
3885+235478099+234575332+233890688+237413792+239147338+236628477+233803672
3871+232166666+233617741+235925132+236178482+238197151+242273991+243471460
3858+239439077+230329286+224992220+233962201+244630118+248948811+247151283
3844+242657298+238568356+235352274+235150365+238979083+242659327+245255405
3831+248136039+249985063+250142733+247787337+241460250+238358403+242170962
3817+245750077+250774363+256972828+258747450+255269225+251195693+250134305
3804+248082312+246494553+249793446+253765009+258146148+263239406+266166673
3790+267178740+267403408+267332224+268047597+268097978+266903106+268616781
3777+273201547+275815028+274794223+273176009+274896503+278617640+282397878
3763+284963208+284597816+284990501+289406428+292711499+290617515+290044401
3750+301880977+317111668+334360004+363997738+392747694+409383412+416051797
3736+417107499+421388954+431580736+441337878+446020811+448345514+453741718
3723+463131348+474411554+486241347+497002313+504087933+510305410+523835040
3709+543522186+562944008+581061658+600303234+622774437+644057989+658825761
3696+666226027+665453929+657933304+651412407+653246752+659680341+662660805
3682+659482545+651924336+640614076+628257364+625716584+628728856+628528574
3669+630265521+633064641+630925230+625625182+620582451+613561982+602838639
3655+594975289+588344965+574207542+560689758+562722777+570212617+571874467
3642+568026517+562851143+557579759+551465750+545193761+537265589+525960155
3628+521167028+523995251+523511474+517732146+509721638+504400494+501887282
3615+498714543+495535005+492817050+490661296+490954187+491574630+489589141
3601+486328619+482925545+478778562+475504440+474897927+473966203+468886911
3588+463913427+465217161+468294255+468254550+465750222+463125388+460976325
3574+459006813+456780314+452354223+446319589+444477054+447212411+449599744
3561+450359886+450007400+448719900+446522576+444104825+442420234+440687968
3547+438639813+438363374+440243348+441178362+439018403+435543707+433546116
3534+432882093+431491490+428860587+426788376+426362438+426364522+425858553
3520+425238732+424957540+424957723+424313955+422285909+419674566+417824975
3507+416597801+415334248+414695744+414675855+414110657+412885639+411777947
3493+411170301+410332027+408470700+406220398+404481295+403057824+401835768
3480+400826937+399603199+398272666+396937198+395590542+394463472+393398409
3466+392417474+391550098+390458126+388912285+387222466+385782798+384147126
3453+382426779+381229731+380151836+378981660+377774704+376318035+374980592
3439+374140966+373380677+372303148+371405060+370967387+370116902+368396298
3426+366511279+365003059+363969878+363423618+362743289+361523024+360578760
3412+360197903+359520206+358289558+356886963+355711779+355213231+354896392
3399+353890669+352485186+350882455+349229344+348485069+348456258+348118031
3385+347364287+346366497+345373022+344658325+343932184+342927411+341937262
3372+341304279+340891175+340211723+339049701+337723372+336590379+335608128
3358+334539117+333408098+332621157+332135149+331134215+329468709+327979099
3345+327298075+327189927+326750316+325697538+324589955+323484822+321960844
3331+320215928+318662445+317045675+315342658+313884783+312544305+311136263
3318+309614515+308096022+306758213+305507146+304102906+302466394+300748459
3304+298863056+296768743+295105157+294465191+294390021+293996605+293406435
3291+293195551+293093472+292583261+292072521+292443214+293340424+293355304
3277+292218016+291073012+290828016+291212621+291110816+289799515+288050467
3264+287232192+287292591+287376188+287291915+286934694+286315276+285894987
3250+285937672+286016918+285451226+284640154+284332401+284002656+283005506
3237+281936769+281682779+282058737+282445590+282731261+282740438+282351354
3223+282012140+281952582+281817891+281427911+281053105+280940588+281206570
3210+281916990+282635507+282828678+282839719+283005378+282872661+282539589
3196+282976915+284141095+284712216+284520362+284790859+285549886+285908222
3183+285744958+285271272+284975273+285250652+285832394+286425855+286818210
3169+286978165+286958587+287106129+288030724+289119715+289709794+290479534
3156+291270954+291021443+289934170+289291169+289725515+290495218+290842312
3142+290941173+291059101+291118714+290725133+289947862+289672154+289964698
3129+290012520+289585139+288953472+288428655+288346064+288592541+288726062
3115+288795546+288853843+288646322+288159547+287514389+286978750+286673794
3102+286302315+285612808+284729912+284226483+284258821+284316497+284503068
3088+285209137+286094044+286699935+286902703+286878354+287023574+287417959
3075+287988459+288720596+289268666+289363962+289251281+289194739+289099918
3061+288987712+289259544+289925760+290476188+290576274+290188068+289775695
3047+289958026+290520482+290865199+290870756+290869531+291173665+291456557
3034+291393763+291575582+292252822+292648450+292552056+292431642+292660935
3020+293648470+295107954+296168190+296536708+296507258+296666463+297419019
3007+298743593+300555179+302611870+304756839+307321913+310538671+314513853
2993+319765641+326420498+333721720+340896257+347578023+353607795+358937421
2980+363496741+367080719+370001368+372877815+375525134+377829070+380030416
2966+381617974+382209935+382309930+382429740+382850486+383961286+385732234
2953+387361801+388370339+388995279+389453646+389819038+389721456+388504592
2939+386343207+383871346+381316417+378820937+376760425+375627907+375141242
2926+374290940+372951523+371250041+368545065+364974980+361526863+358551409
2912+355757590+352738042+349548669+346867494+344926976+343191784+341448550
2899+340088256+339358752+338992738+338611004+338563182+339482913+340947114
2885+342070052+342871838+343834383+344873048+345564602+345759436+345479853
2872+344886759+344196265+343213977+341631575+339734454+337984090+336181151
2858+333936955+331251613+327990799+324077259+320035974+316346517+313033566
2845+309965356+307111723+304837383+303453416+302462975+301224723+299983490
2831+299157428+298439514+297553711+296690649+295976317+295331872+294645766
2818+293990061+293457219+293093216+293157198+293610903+293996605+294262587
2804+294600266+294880946+294973902+294807677+294430805+294358231+294781737
2791+294999239+294532189+293860598+293567121+293470381+293017480+292260957
2777+291706891+291363490+291005118+290517027+289733869+289013012+288772823
2764+288724362+288558630+288283270+288000561+287784046+287607236+287402421
2750+287107318+286719532+286271183+285850693+285521095+285277981+285108100
2737+284864932+284567379+284596719+285027647+285305439+285105084+284811169
2723+284717243+284713258+284706330+284640172+284449652+284335563+284625310
2710+285001597+284906996+284671999+284746291+284821461+284643061+284310629
2696+283963060+283806579+283812282+283692654+283404004+283176447+283009509
2683+282655598+282239111+281957097+281514068+280784600+280142221+279740487
2669+279373084+279050341+278860716+278515689+277789201+277063664+276816382
2656+276861133+276750463+276394266+275970504+275770003+275855428+275898936
2642+275645220+275272570+275138263+275229136+275292003+275308199+275344925
2629+275405342+275552099+275872155+276296977+276603944+276826016+277169508
2615+277415857+277316411+277304071+277795764+278452073+278940767+279410121
2602+279922891+280309378+280561997+280925799+281436869+281874652+282176263
2588+282386727+282596826+282897267+283131660+283150617+283124878+283100656
2575+282983185+282944485+282966879+282881271+282772447+282562495+282143687
2561+281768058+281610827+281490285+281344058+281338995+281422665+281488091
2548+281544285+281468110+281269273+281226916+281416303+281656327+281833063
2534+281969967+282131402+282349965+282670204+282987408+283117785+283228565
2521+283555312+284041082+284527619+284946737+285346826+285746165+286202411
2507+286744503+287143239+287274128+287360284+287640635+288017160+288191538
2494+288242523+288494447+288901098+289267715+289630109+289995464+290253476
2480+290440139+290565617+290419098+290049118+289813298+289783245+289801745
2467+289856221+289957130+290054565+290198251+290305265+290176826+290046686
2453+290142824+290244427+290347347+290579382+290746594+290791821+290910699
2440+291154562+291435662+291599584+291590188+291613203+291750179+291854726
2426+291942418+292098388+292231031+292340386+292543464+292736964+292867250
2413+293103544+293454257+293727716+293899115+294208020+294648764+294985035
2399+295315621+295820274+296312095+296496747+296407062+296253268+296074447
2386+295759309+294983920+293194563+290054803+285851022+281282179+276829197
2372+272408079+267876619+263475225+259405587+255977286+253743675+253126140
2359+254531403+258015807+263096909+269555725+276103769+279569801+278307638
2345+274209336+271177650+270662522+271611960+273149502+274876485+276416203
2332+277865559+279976050+282632911+284934873+286802069+289062132+292344572
2318+296170566+299432752+301736396+303704865+306054576+308719865+311189715
2305+313282913+315137733+316959720+318727122+320239034+321652707+323154858
2291+324546119+325759838+326977507+328219891+329252670+329910075+330396448
2278+330954079+331579676+332227247+332820634+333333697+333886355+334518423
2264+335234108+336021342+336666061+337023117+337244385+337549195+338024892
2251+338634330+339249251+339649486+339856532+340216549+340763175+341207356
2237+341500649+341775333+342126941+342508969+342710238+342769650+343028173
2224+343589679+344191366+344502611+344436764+344320171+344593831+345240817
2210+345836617+346170566+346397135+346698290+347103935+347621824+348258828
2197+348919890+349539126+350123556+350709484+351403086+352198290+352877523
2183+353445793+354198733+355124461+356003061+356820239+357598077+358391344
2170+359345736+360400159+361377219+362362249+363345963+364161203+365071831
2156+366289572+367490021+368488871+369533459+370800960+372177341+373534234
2143+374794058+375915826+377108926+378621204+380323490+381963440+383485407
2129+384838132+386121391+387606395+389235449+390879420+392579513+394178258
2116+395654633+397370082+399424781+401499918+403441496+405437040+407647270
2102+409994897+412363912+414777788+417243799+419799020+422574449+425513489
2089+428507772+431643840+434998580+438558062+442366343+446387190+450359265
2075+454344428+458737943+463504381+468328001+473090564+477956558+483207980
2062+488876784+494827474+500895781+506911769+512916460+519183440+525823527
2048+532537869+539120993+545638417+552230719+559066225+566094371+573181271
2035+580156624+586888442+593551270+600183569+606552189+612691864+618916579
2021+625043787+630594132+635972640+641823957+647756732+653202586+658234641
2008+663006234+667516050+671554520+675017956+678431742+681944243+684663514
1994+686240907+688201315+691736411+695519757+698388344+700864922+703154745
1981+704640809+705471697+706470474+707635751+708518337+708685202+708187751
1967+708140660+709239980+710850059+711829752+711637513+711151689+711554446
1954+712521561+712788531+712094381+711154029+710210971+709101340+709072311
1940+711215451+713749577+715042378+715601690+716562151+718434228+720870881
1927+723239238+725406363+728176673+731303966+733678026+736961435+742527502
1913+748268843+753178930+758510421+764653422+770783627+776460840+782182511
1900+788257436+793472004+798002294+803852733+809878958+814777492+820555467
1886+827056841+832649890+837475301+841542289+845466688+849876764+853234393
1873+853629765+851287147+850182781+853925471+858944657+860880642+859861756
1859+858051980+857023150+856537764+855323496+852911119+849188391+843745536
1846+837172868+832930314+832981499+832770103+829765070+826022161+822539494
1832+817524330+810362297+804294757+800864957+799100590+798771540+798127845
1819+795913044+792972725+790032406+786908696+784118935+782725736+782012941
1805+780168358+776247908+771925724+770334291+770883074+770105272+767012712
1792+765329364+767760168+770332682+770625683+770152509+769797574+769767959
1778+770320837+769500551+765624340+761872656+763662396+768947162+773524104
1765+775186977+773930152+773924448+776035122+777520967+778532833+777637597
1751+773875237+771773264+774150835+777782159+779907092+780385312+781323690
1738+782795934+780894097+778287142+782784819+790126880+796477621+801323653
1724+804194360+805076727+801952724+795077988+793634482+802420414+812967497
1711+819606852+821130281+819544113+819403645+819422730+815785044+815103544
1697+821737196+832457286+843968485+850703997+853069868+852862347+849005074
1684+849380703+861598117+873814362+879367632+880508047+883166115+887042180
1670+889821996+896358687+905239971+910470553+915245657+924437272+932473116
1657+931657291+921168999+916422486+928277214+936569060+940789458+949895154
1643+959968697+966231984+967122613+960991531+957034666+966941490+978802214
1630+983656362+984164196+983731385+984148255+989722731+996618380+997530361
1616+997463747+1003975212+1010849436+1012780010+1012435604+1014095260
1605+1016061737+1016994046+1019828484+1023798073+1026048995+1028257653
1593+1031258299+1033245542+1035384515+1038265898+1039934840+1041360359
1582+1043631244+1042327693+1034410819+1029872120+1035555840+1038667193
1570+1037357427+1040706353+1044823795+1043579254+1037102230+1023904904
1558+1017650099+1031750923+1045737750+1053192492+1056992291+1060292225
1547+1061425035+1055905840+1044608816+1036777933+1046078939+1061351474
1535+1066175350+1065332104+1069405600+1073741823+1070805160+1063577097
1524+1056762979+1052530516+1053781565+1057603227+1062155527+1067860160
1512+1071269120+1066886611+1052838069+1045077018+1056594652+1067371777
1501+1068863179+1063903442+1060984401+1065637682+1069312588+1064753780
1489+1058312952+1060452656+1068097881+1072562361+1071652062+1068749620
1477+1063810430+1055488824+1047945750+1048563780+1054164726+1055088991
1466+1050004800+1043732957+1038032930+1028879193+1015205110+1010917439
1454+1020142398+1027005508+1024940974+1015356253+1004901744+999436074+997710681
1441+992997731+980126970+964868912+958616447+956885862+950152398+941109441
1427+936582880+935043437+934643166+934680677+934564194+940686721+953305796
1414+965370092+972696285+974461237+974348117+976460912+982439096+989662552
1400+994447015+996016072+995312563+996976021+1004607280+1012084032+1013602270
1387+1012241026+1012946875+1015966020+1019939411+1023365774+1025182277
1375+1026296587+1030126074+1036008394+1038996682+1038054575+1034760709
1364+1031160827+1031047195+1033760762+1034013180+1032091527+1031293617
1352+1030542651+1029529908+1029256357+1027573887+1024091366+1019119052
1341+1011464906+1004503008+1002015169+1002098382+1002191979+1001360506
1329+1001555596+1004968943+1007929298+1007148060+1006068994+1008566778
1317+1014012047+1018674322+1019833310+1019157587+1020661493+1024452005
1306+1027396858+1028514971+1028741357+1029621018+1032643819+1036469942
1294+1037735103+1036243482+1035342177+1037457531+1042525635+1048437717
1283+1053785806+1059227785+1063982706+1066182004+1065303294+1062029830
1271+1059265954+1059185447+1059398964+1057726731+1055484583+1052536439
1260+1047077423+1040737504+1037121827+1036225714+1035349563+1034673255
1248+1034831857+1032760157+1028116674+1024736597+1023015738+1021052917
1236+1019288330+1018446035+1018063971+1017734116+1017297430+1016920119
1225+1016570010+1015545201+1014459482+1014879057+1016056326+1015293514
1213+1012456444+1010945957+1011551483+1012245852+1013055315+1013609582
1202+1013125366+1012273126+1010532158+1007951673+1006284266+1005965307
1190+1006524912+1007355361+1007067552+1005347351+1003120851+1000858009
1178+999461740+1000206197+1002239801+1001552817+996954085+993441072+993372410
1165+993719521+992509202+989958843+987052964+984841381+982560332+979728088
1151+978267105+978334377+977715982+975506374+972426903+970005678+968288255
1138+965776871+962930002+960977711+959125743+956274706+953479827+952017308
1124+950514719+947666972+945270317+944116813+941374363+936132739+932039647
1111+931720322+932250605+929405783+924402246+919861061+915653313+912667292
1097+911292594+909781084+908957946+910484081+912612743+912871523+910870532
1084+908555335+908093202+908915755+909597766+910535267+912402297+914950901
1070+917172501+918081338+918040536+917902700+919004360+921962522+924584174
1057+926109139+927203121+927058412+927146452+928629664+929464208+929786385
1043+931170151+932587918+932747617+932098218+931335334+931326925+932323508
1030+931750814+928428431+925736435+925670991+926469193+927009640+927964470
1016+927935953+924922145+920721125+917938823+917526852+918104664+917220031
1003+916172189+917233632+919058690+919376992+918676919+918934456+920917020
989+924789209+929218956+932328334+934680677+937227160+940562194+944457563
976+946274066+944926642+942890918+941667217+940790408+940773298+941673725
962+941665536+940996467+941728713+942888871+942780650+942348351+941817484
949+940682334+939811082+939136529+937414865+935048994+933452808+932138070
935+930380723+929084704+928095652+926265986+923544814+921325042+920809822
922+920790957+920379425+919864351+918465084+916259278+913463667+910250017
908+908354614+908083477+907911274+906392598+904159809+904139481+906432596
895+908096054+908594382+909230254+908970011+907182099+907118336+910132509
881+913219731+914995798+916547452+918919977+923538526+928856416+930313450
868+928998639+930123771+934194926+937894328+940383337+945020604+953286126
854+961767797+967970685+973224886+979586011+988192940+997818463+1004620735
841+1008695766+1014845421+1022940202+1028636646+1032137155+1035298889
829+1036020898+1034489645+1034515896+1035680660+1035384954+1034391953
818+1034767363+1036566756+1037671999+1037299733+1037396255+1038555462
806+1039635405+1040443260+1039722859+1036623791+1033022081+1029779255
795+1027066930+1025390676+1023273347+1019148813+1013973950+1008992788
783+1004419722+1000708986+996525661+989572904+982148508+977278419+972915725
770+968515227+966545167+964792646+960626505+955818862+951745732+950186912
756+951276872+951542672+951183495+952329614+953230699+951579745+948226577
743+945567925+943178143+940414925+939423241+939595444+937816160+934109007
729+930368438+927187473+924455918+921340398+917315017+914272692+912935944
716+912748678+914912219+918753844+922229710+926172390+931113993+933638173
702+931910587+930130498+932040671+935774221+937691706+939948625+945527854
689+949921917+950201463+948976738+949148795+952290054+955015760+954734020
675+954217557+953365098+946929754+933966858+928480860+935379946+940038565
662+940886052+944424073+949052785+947029858+944536901+952196239+961868925
648+959915171+952404637+953336873+959483019+954471657+940768983+935490726
635+939839088+945829483+951304513+955446743+957246428+953561724+946067130
621+946068593+955572952+961872947+955549260+945507964+944772939+954638522
608+968526415+978126929+980609430+977758247+968564219
##END=
