##TITLE=Sample description
##JCAMP-DX=4.24
##DATA TYPE=INFRARED SPECTRUM
##DATE=13/9/2023
##SAMPLING PROCEDURE=Instrument type and / or accessory
##ORIGIN=Default
##XUNITS=1/CM
##YUNITS=ABSORBANCE
##RESOLUTION=4
##FIRSTX=4397.6552
##LASTX=599.8556
##DELTAX=-1.9287962
##MAXY=1.8664221
##MINY=0.4871192
##XFACTOR=1
##YFACTOR=1.738241e-009
##NPOINTS=1970
##FIRSTY=0.50938702
##XYDATA=(X++(Y..Y))
4398+293047407+292213743+291915795+291398596+290352985+290136614+290654293
4384+290519361+290295343+290612288+290589313+289759456+288554635+288581381
4371+289859995+289696156+288410033+288754958+290331999+291199267+291174990
4357+290579403+289881220+289642938+289159549+288916431+289776738+289558275
4344+287251264+285889566+287270895+288347042+287178243+286806812+288015559
4330+288090346+287137969+287457674+288891433+288856115+286713714+285079065
4317+285476643+286287161+286151149+285749559+286149708+287745763+289431710
4303+289348488+287126174+284453835+283349862+283589756+283948380+284907168
4290+286487587+287342905+287685104+288111606+287579284+285921199+284680030
4276+284905145+285953740+286174380+285466973+285660250+286976171+287698854
4263+287226027+286137604+285360091+285064338+284332550+283972006+284621102
4249+284724676+284556088+285157418+285565901+285416395+285594361+286001472
4236+286091381+286598207+287801588+288515338+288203058+287757628+287867596
4222+287598795+286733585+286295390+285592030+284103406+283388764+284403857
4209+285650957+285034248+282951804+281424244+281610577+282961542+283854631
4195+283924497+284181382+284922685+285493891+285383785+284885120+284657879
4182+284772751+284725893+284297094+284062189+284333065+283974046+282591174
4168+282158123+283447880+284494794+284461550+284236846+283610193+282400554
4155+281558147+281465683+281962600+282879160+283974818+284908214+285035414
4141+284736798+285296757+285871358+284746125+283267599+283288619+283532148
4128+282505740+281332157+281324048+281840750+281975767+281941854+281973710
4114+282161740+283006017+283900322+283547425+282669201+282693015+283312434
4101+283366475+282549357+281480531+280717488+280902689+281911456+282270303
4087+282055389+282497956+282922297+282345124+281398457+281189287+281971670
4074+282793932+282630059+281840064+281866433+282923034+283429843+282754618
4060+281880355+281799996+282761476+283926074+284559037+284826895+284570576
4047+283763453+283187480+283320081+283994123+284334248+283393890+281875691
4033+281396331+281969646+282546339+283426757+284866998+285702256+285265158
4020+283911004+283076929+283762681+284560563+284344363+283802475+283601415
4006+283839303+284076968+283942345+283935573+284144691+283735163+283141497
3993+283999387+285854898+286464081+286031219+286564140+287677629+287616884
3979+286761806+286569746+286856773+286837536+286549138+286027464+285757651
3966+286328789+287145633+287702146+287976639+287866225+287563442+286951036
3952+286223432+286233719+286640830+286441810+285971125+286273153+287010821
3939+287404164+287732562+287506281+286618953+286859859+287955757+288002460
3925+287442998+287551561+287787323+287569014+287503263+288296533+289403009
3912+289884821+289789391+288544039+285703610+283960433+284748799+286111406
3898+287719257+288933542+288403107+287353946+288347351+289521482+288730818
3885+287889508+287543863+287602516+289183277+289770634+288702597+287810709
3871+286624799+286256985+287584342+288956379+290951658+293327215+293397681
3858+290311631+284675915+280236859+283242002+288710278+291995554+292178836
3844+290210098+288158103+287096855+287388597+288765520+289950692+290707923
3831+291630981+292607086+293152609+292381045+289559132+288038979+289700579
3817+291322609+293799631+296598432+296839595+294417952+291607801+290562155
3804+289604327+289267186+291788167+294286826+296121592+298378128+300123705
3790+300817362+300369463+299208671+298864295+299108509+299169237+300251642
3777+301902098+302344065+301588274+301256448+302605836+304427435+306061432
3763+306942142+305702002+304540764+306467222+309037136+309135858+309504649
3750+316003535+324537922+334950383+352811055+370202534+381340371+386932692
3736+387255877+386295786+387813779+390215225+391137083+391805022+394486619
3723+398550935+403489890+410334936+418566677+425485858+430338540+437199428
3709+448300025+460361263+471882910+485280162+501507592+515901249+524965180
3696+528568018+526967900+521591024+517099864+517119135+517687049+514803037
3682+509536541+503625629+496440802+489020024+485957394+483676204+477698118
3669+473625950+472207501+468453203+463117955+458263594+452584072+444503413
3655+436803582+430460545+422624546+414848967+411589066+410834716+408910246
3642+405073275+400265754+395077851+390119281+385864895+381404562+375609380
3628+372356165+372825632+371795657+367332512+361273638+357775969+356865838
3615+355138057+352465787+349723873+347557590+347223226+347241022+345563305
3601+343006902+340868187+338922870+337012871+335507222+333950789+331584354
3588+329759154+329575668+329404697+328973909+328598431+327394707+325376214
3574+323888225+322858044+320535843+316763577+314598391+315229022+316267809
3561+316449445+315746393+314228331+312514198+311568062+311444515+310925361
3547+309439326+308223395+307990565+307717443+307061780+306663328+306469143
3534+306116982+305443557+304218368+303060662+302764703+302772487+302554675
3520+302380824+302208790+301774264+300991590+299986887+299242996+299056594
3507+298786696+297964005+297448178+297830548+298452469+298565078+298083575
3493+297727026+297840080+297759944+297265959+297065842+297315715+297423557
3480+297145944+296719031+296414191+296426844+296804893+297088748+296708092
3466+295995747+295634740+295551278+295297256+294818187+294495619+294810918
3453+295489281+295652639+295439972+295484652+295385793+294908165+294646016
3439+294593483+294723958+295569623+296496556+296639957+296640129+296806848
3426+296372871+295505157+295342690+295821416+296066625+296279019+296863427
3412+297409087+297475027+297163843+296767448+296569765+296910919+297605432
3399+298104081+298291134+298312737+298338626+298353268+298562781+299469654
3385+300440478+300671389+300715451+301076802+301609054+301803137+301379790
3372+301206041+301742409+302089940+301920855+301775602+301850286+302068543
3358+301973902+301197743+300806115+301712096+302688201+302494016+301743952
3345+301334870+301283297+301184164+300670085+300049467+299939944+299807927
3331+298967577+298149344+297967297+297704531+296740908+295713710+295096624
3318+294295433+293381702+292946628+292356253+290705385+288586902+287201629
3304+286291104+284956598+283841017+284068756+285088941+285617679+285365166
3291+284970040+285417304+286855932+288306202+289195759+289521310+289565613
3277+290050374+290877625+291561509+292463410+293252839+293217829+293025769
3264+293457449+294339256+295083593+295405784+295449881+295210639+295054927
3250+295457562+295951513+296074032+295998216+296054932+296632482+297334266
3237+297261810+297145944+297946963+298892070+299546121+300236246+300873152
3223+301425464+302008775+302561945+303157326+304092934+304994869+305128533
3210+304717873+304536581+304961642+306013151+307557925+308895380+309262320
3196+309243598+310077981+311529726+312437936+313012469+313821443+314365800
3183+314478924+314606860+314968382+315442410+315778042+316195937+317144130
3169+318291549+319143078+319594680+319746722+320434584+321794465+322887260
3156+323731073+324563536+324940454+324728438+324431073+324597690+325309966
3142+326059584+326126073+325718979+325731358+326280516+326684626+326659491
3129+326755504+327090142+327016829+326571571+326205112+325674128+324970390
3115+324281740+323520840+323290547+323653612+323476605+322358470+320916910
3102+319770691+319169310+319120343+319319947+319347036+319071720+318576672
3088+318247383+318451307+319170990+320216121+321149226+321635427+321835099
3075+321773925+321601068+321973048+322695063+322872755+322510376+322228202
3061+322233380+322298771+322367146+322557799+322795465+322739057+322167714
3047+321581729+321253743+320775189+320201239+319654242+318995973+318293881
3034+317513435+316612597+315570724+314609912+314150869+313858374+313399434
3020+313052794+312819689+312411978+311711807+311109431+310737279+310013858
3007+309071358+308666356+308728833+308658401+308556765+309038919+310301999
2993+312309005+314922090+317650802+320007191+321819154+323147728+323963664
2980+324219503+324145642+323912571+323446739+322491928+320989125+319773023
2966+319531449+319456044+318685818+317793655+317462172+317485043+317446604
2953+317129557+316793135+316823791+317036150+317095266+316936331+316787135
2939+316788198+316612460+316068549+315442135+315184445+315259849+314995368
2926+314333293+313825386+313385135+312840332+312454841+312066025+311352342
2912+310821496+311142726+311903969+312350085+312625161+313051731+313414384
2899+313556311+313682328+313978595+314418093+314907620+315331310+315713851
2885+316191959+316656832+316823242+316627479+316561402+316951488+317167722
2872+316851189+316623159+316773624+316856127+316631423+316400547+316376406
2858+316224672+315697255+315209476+315075539+314971845+314617730+314221404
2845+314009388+314049953+314476695+315099096+315627165+316218672+316880061
2831+317373566+317721097+318094517+318460874+318536621+318388556+318520436
2818+318986749+319377520+319701048+320062227+320246194+320507828+321108832
2804+321634501+321953812+322546072+323645519+324674397+325069180+325204592
2791+325451001+325578870+325599787+325778336+326012469+326008629+325854220
2777+325925989+326092434+326021385+325939843+325825965+325414688+325148322
2764+325523628+326233504+326561490+326443771+326479056+326748097+326820895
2750+326581069+326397205+326611245+326947906+327109584+327254186+327349787
2737+327244173+327119426+327247637+327512460+327628052+327670675+327720773
2723+327843292+328130781+328300552+328177416+327803515+327430266+327608438
2710+328281555+328860237+329065018+328914998+328629566+328535097+328724276
2696+329018623+329175878+329125574+329064092+328969005+328631795+328235572
2683+328054794+328084935+328140760+328045124+327785067+327424266+327066413
2669+326838863+326675127+326328145+325790440+325236002+324770409+324602387
2656+324761151+324910519+324755013+324372026+324173931+324298370+324427439
2642+324335644+324084091+323822697+323629574+323529481+323538568+323675626
2629+323960543+324254445+324336330+324200506+324055973+324116941+324376209
2615+324659721+324862444+324979408+325109368+325311612+325539573+325925303
2602+326600066+327257581+327576240+327764253+328139559+328689677+329239966
2588+329679155+330013656+330283623+330593470+330966273+331147119+331116498
2575+331257499+331604859+331816944+331978417+332336064+332569683+332496336
2561+332493010+332646801+332760131+332820344+332833786+332799873+332783414
2548+332978868+333471824+333820692+333766411+333675130+333706026+333774709
2534+333988303+334375782+334688475+334709666+334678668+334910024+335249428
2521+335580706+336051510+336552079+336802226+336846357+336953583+337130418
2507+337199581+337252079+337523658+337972619+338428439+338908605+339367956
2494+339653697+339842636+340136126+340580630+341007748+341382746+341943837
2480+342534108+342714269+342559380+342352439+342233555+342398456+342720990
2467+342734329+342486617+342458841+342693387+342908009+343004296+343006319
2453+342977892+343045067+343239870+343455761+343646209+343801063+343880513
2440+343924816+344039620+344342917+344667851+344654375+344495097+344628554
2426+344956197+345175380+345279554+345404645+345569478+345693711+345678143
2413+345594612+345769664+346208064+346471859+346495828+346583439+346793912
2399+347047386+347268969+347352328+347422212+347727463+348221860+348596103
2386+348428355+347447964+345793564+343657250+341090114+338251399+335184723
2372+331584765+327611182+324194985+321425125+318727172+316882564+316842925
2359+318366987+321135442+325012018+330050141+335175739+337765609+336698670
2345+333693476+331705638+331400421+332030709+333421040+334995989+336241958
2332+337436389+339045320+341299558+343700216+345543451+347279222+349639622
2318+352194380+354229813+355985231+357977767+360042757+361952482+363724600
2305+365228774+366493260+367787372+369224749+370650159+371880903+372976612
2291+374138501+375472802+376837724+377943960+378748648+379468948+380240101
2278+381126811+382124279+382968058+383560285+384236693+385202683+386260296
2264+387130067+387821597+388498143+389171397+389851920+390588748+391308363
2251+391932342+392485648+393017627+393605532+394203519+394650526+395009373
2237+395401756+395929448+396658527+397295193+397671631+398050263+398576549
2224+399164798+399652919+399976481+400298226+400737518+401193098+401591242
2210+402110670+402843486+403619130+404337647+404814658+404983846+405271335
2197+405821967+406351854+406918294+407722468+408592479+409333388+410027593
2183+410757871+411505432+412207010+412893123+413685981+414519747+415307290
2170+416167666+417177478+418211602+419208384+420297990+421446403+422499593
2156+423548359+424694578+425888220+427077061+428208295+429390039+430697078
2143+431964753+433210139+434554693+435944578+437228094+438387481+439705836
2129+441282980+442829571+444116723+445356691+446958009+448758177+450356478
2116+451843232+453433784+455179670+457111683+459166695+461256717+463503549
2102+465919225+468221984+470349623+472564325+475070150+477738066+480253767
2089+482688611+485468827+488713470+492266312+496032131+499748813+503123586
2075+506283943+509563870+513265910+517639454+522481849+527266053+531804396
2062+536189771+540796420+546033907+551760954+557702281+563464854+568833946
2048+574415706+580431923+586398076+592345712+598716353+605441005+611892982
2035+617903713+623948391+630059043+636022179+642014530+648122164+654294127
2021+660293268+665845675+671248715+676798242+682485959+688276683+693850145
2008+698744866+702791522+706391103+710128187+714048792+717721822+720631551
1994+722953753+726031436+730452404+734435075+736533704+738097543+740953849
1981+744362638+746614271+748044652+749672751+751279590+752424472+753067550
1967+753716321+755121465+756678789+757296150+757393397+757902813+758516127
1954+758561253+758751015+759748860+760596171+760740259+760840866+761444374
1940+762721890+764367134+765782634+766761619+767537881+768419139+770003347
1927+772412783+774624158+776721141+779609063+782322653+784598288+788109742
1913+792461375+795944643+799252277+803978222+809055436+813089267+817178306
1900+822586832+828502098+833816463+838866519+843529576+847506829+852110769
1886+857743759+863227997+867531213+870662251+873909534+877717462+881489110
1873+884794206+886380746+886020013+886887829+889931016+892418017+892891976
1859+892318232+892358352+893221436+894160988+894619859+893648006+890964180
1846+887537766+885065990+884153665+883139772+881601308+879771171+877398631
1832+874183993+869658577+865269705+862350648+860593824+859856035+859021206
1819+857220764+854820381+852603999+850478761+847615871+844480992+842399028
1805+841359280+839687358+836505570+833659826+832841867+832718834+831136341
1792+829635938+830939378+832250224+831487609+830406919+829680378+828966456
1778+829047450+828690077+826069345+823143773+824069815+827800932+830999728
1765+832180340+831212259+830517951+832020891+833937782+834962442+834776246
1751+833549068+833702757+836068507+837719923+837373729+836374307+836949834
1738+839185075+840175445+840178394+842189446+845230850+848968757+852919606
1724+855626818+856774512+855665292+852349429+852252868+858379773+864690063
1711+868254736+869751229+869416077+868869491+870002576+871755355+874584845
1697+879398093+885232161+890840599+894784041+897438926+898434919+896029598
1684+895317117+902588012+911021757+916223582+918560734+920754004+923825858
1670+927580567+933576553+939805986+943757521+947292430+951991286+955336159
1657+955915732+953685359+952432052+957597049+962090301+964476488+968712631
1643+973667292+976840714+977852412+976606237+976110401+980461965+984897952
1630+986399178+987310268+988826650+990786610+994513064+997239204+995912173
1616+994893274+998215858+1001302799+1002666658+1004212460+1006941344+1010200148
1603+1012870806+1016259639+1020699329+1022521717+1021003895+1019854144
1591+1020494343+1021974377+1023968832+1026563229+1029823336+1032854797
1580+1033394113+1030359087+1028135161+1030615577+1032334820+1031818958
1568+1033284316+1036046666+1037556464+1036971199+1031818547+1026720759
1557+1032949232+1042101425+1047243928+1048195755+1048507865+1049378356
1545+1048235738+1045636883+1046078404+1050309610+1054207995+1055930392
1533+1056947302+1060561147+1065221118+1066628731+1063303129+1058692605
1522+1058017157+1060922223+1061956347+1063166243+1066949550+1069670958
1510+1068853891+1064195155+1061140789+1065922490+1071012940+1072710305
1499+1071105180+1068911361+1068915202+1067933336+1065092324+1064834393
1487+1066755262+1066307157+1064251391+1063530748+1064884594+1065505864
1476+1061400023+1054340286+1053150485+1056971168+1057207085+1052137346
1464+1046969881+1045718151+1043302474+1032757138+1021606648+1020700152
1452+1021796410+1019949265+1015178057+1009100872+1004615850+1000931779
1441+995693196+988150104+976757663+964525660+956511970+952057397+950527026
1427+949613397+946143022+942016059+940536711+943356737+952390355+962505624
1414+967720616+969511250+972059287+975468831+978245309+982583158+988740650
1400+993177460+996024027+999839362+1004797520+1009593554+1012424074+1012886786
1387+1013266996+1015143424+1016489864+1016606587+1017918531+1020406217
1375+1022175591+1024902692+1029979288+1034940670+1037228238+1035680447
1364+1031417763+1029220720+1031540727+1033819312+1032426169+1029511090
1352+1027414518+1024562121+1021006775+1019606706+1019136176+1016673590
1341+1013149243+1008733556+1002998519+998602308+996834374+997237969+999104660
1327+1001009344+1003103309+1005936778+1008157275+1009257236+1010753249
1315+1013315002+1016363470+1019824449+1022683772+1023658986+1024175671
1304+1025593365+1028068912+1032137514+1035922810+1036238211+1033966965
1292+1031498893+1028955589+1028177269+1032346136+1041170721+1052372440
1281+1062403011+1068227066+1071598205+1073741823+1072222835+1067057496
1269+1062733158+1063713377+1068433699+1069502456+1063856505+1057191654
1258+1054565847+1055093162+1055869973+1054390144+1050265032+1047617005
1246+1048396833+1048267422+1045436285+1042372935+1039421371+1035979183
1234+1032555237+1029597090+1028094973+1029422004+1031533046+1030047732
1223+1025629370+1022712850+1022564442+1023348042+1024439157+1026391435
1211+1027831487+1027730605+1027071410+1026466119+1026191181+1026201673
1200+1026002036+1025515321+1024847759+1023915134+1022702769+1021475797
1188+1020806521+1020973857+1020550784+1018102463+1014865674+1013309721
1177+1014225613+1015035342+1012885003+1008969541+1006275908+1005600802
1165+1005603957+1004769059+1002399606+999591512+998078697+997613996+997436098
1151+997250588+996368164+994357318+991263106+988852231+987725797+984756882
1138+980324324+977643585+975967891+974312291+973499887+973053086+971532315
1124+968574716+964921163+961869952+960810179+959501047+954528898+948907156
1111+946815728+945874599+943165398+940901010+939576928+937253698+935345585
1097+935838129+938021935+938820966+936574066+933712891+932459721+932026498
1084+930741439+929451510+929573788+930176404+930190944+929981019+930951500
1070+933524569+936267786+936697785+934492719+935041636+941087823+946123751
1057+944630344+940192094+938119045+938147506+937482345+937083070+940369923
1043+946347872+949064548+946256112+943247009+943924309+946004559+947557974
1030+947721606+945782289+944168867+943610759+943169787+943972795+944675813
1016+942574989+939731234+939677467+941162850+941535859+941174920+940971785
1003+940448448+938046007+934701820+933735111+934889182+936014107+937454021
989+940306966+943570640+946030688+948972102+953031034+956635620+958986214
976+961462859+964926101+966384669+963608603+960156813+959709806+960402742
962+959653570+958317143+956410265+954318631+954230917+956020042+958826422
949+961155275+960550396+958694404+958198911+957938991+957670636+958014498
935+956744252+953023558+949833403+948974433+948645042+946483799+943607947
922+942834429+943145578+941493270+938986725+938271362+938587930+937124218
908+932993414+929469752+928142035+926056916+923195947+921580535+920570209
895+919431979+918680955+919578810+921658168+922682142+922755592+922822184
881+923614562+925660727+927487298+928509077+929219913+928830308+928238665
868+930593648+935621895+939269550+942777301+950536764+959410452+964623798
854+968920704+975762149+984076770+992660432+1001564982+1009138180+1015152477
841+1021957094+1028145174+1030367111+1030267532+1032704400+1037365125
829+1039154182+1038727680+1039000836+1039983868+1037360187+1028686753
818+1028970402+1045059985+1057215520+1054039973+1047124186+1046702348
806+1051397226+1052719457+1047534915+1039979136+1033580652+1031217439
795+1033605478+1033609524+1027371930+1021539645+1020221530+1021041683
783+1019115053+1013775245+1009496924+1006673949+1001914262+995835088+990958747
770+986541825+983503164+983530596+982799735+978908207+974539841+972364470
756+974564598+978429310+977318376+973381998+972141721+973086485+975174484
743+976679755+974701142+970638438+968301903+965795563+958553129+950259562
729+946313239+944818597+941654709+937418976+935001037+932856390+929339243
716+926695468+928097183+935020308+942565799+946309947+949725869+955690034
702+961922142+964267043+962272725+962475791+967395133+969227053+964677154
689+958504574+952895724+951458210+956548043+962298442+965539759+969410917
675+973496253+975437215+974460836+970678352+967402265+964752044+959567227
662+955993845+959444468+967253583+971049372+968409232+965294241+969839819
648+986664104+1004525736+1011853416+1017292254+1018423214+1008683355+1007300705
635+1022153166+1026246936+1016001160+1017789462+1015915297+988893379+968132853
621+965803176+960890418+950879117+950716856+967591822+994062010+1011972403
608+1015582682+1013083474+1004005210+990869043+987097189
##END=
