##TITLE=Sample description
##JCAMP-DX=4.24
##DATA TYPE=INFRARED SPECTRUM
##DATE=13/9/2023
##SAMPLING PROCEDURE=Instrument type and / or accessory
##ORIGIN=Default
##XUNITS=1/CM
##YUNITS=ABSORBANCE
##RESOLUTION=4
##FIRSTX=4397.6552
##LASTX=599.8556
##DELTAX=-1.9287962
##MAXY=1.5867554
##MINY=0.22721072
##XFACTOR=1
##YFACTOR=1.4777811e-009
##NPOINTS=1970
##FIRSTY=0.2480965
##XYDATA=(X++(Y..Y))
4398+167884467+168465487+169185214+168479472+166654324+165083783+164948987
4384+165752348+166137002+165848302+165739330+165872422+165749454+166174926
4371+167904342+169799136+170758034+171339951+171902367+171752062+170759042
4357+169341952+167496677+165942260+165476817+164999223+163883639+162904725
4344+162123478+161492787+160881215+159897845+159351815+159921591+160338976
4330+159476295+158381372+158182304+157685663+156267967+156081110+157431660
4317+157804950+156782335+155862390+155482949+155521659+156200095+157130457
4303+157569945+157634660+157675428+157445666+156825966+156741487+157459974
4290+157661886+157201142+157112609+157503172+157970299+158092803+157588952
4276+156878935+156516998+156118288+155189752+154709980+155495281+156319816
4263+156330253+156271960+156358789+156157150+155561449+154609287+153751264
4249+154049261+155406687+156154407+155891299+155669664+155836435+156215473
4236+156727481+157213494+157275830+156731696+156329325+156624670+156987362
4222+156898738+156624932+156681591+157680903+159079269+159121014+158265402
4209+158346725+158858884+158966636+159083635+159420776+160016033+160460129
4195+159844544+158542001+158439775+159815332+160768280+160637689+160141482
4182+159481831+158841924+158454346+158084524+157807582+157895247+158234163
4168+158879122+159816269+160344875+159957186+159439914+159433652+159377094
4155+159072321+158891666+159213903+159815816+160048068+160312114+160799035
4141+160744796+160345087+160460462+161022918+161320925+160985589+160476394
4128+160630338+161238775+161541985+161797530+162490748+163180992+163371509
4114+163573602+164178338+164748367+165102770+165390270+165618197+165792470
4101+166112005+166824321+167698074+168225409+168576566+169170089+169748517
4087+169818920+169336285+168975529+169301416+170140099+171116905+171953127
4074+172670404+173158807+173217533+172856162+172004129+171334204+171510987
4060+172047730+172505741+172811210+172965326+173108551+173229008+173386452
4047+173904641+174866887+175820319+176167634+175729043+174862188+174150174
4033+174031390+174443159+174987061+175245481+175229912+175379651+175360694
4020+175090780+175601488+176793455+177650771+177797768+177301117+177086803
4006+178136492+179489714+179766122+179244827+178683319+178278971+177935065
3993+178021117+178881983+179709675+180159418+180646187+180921405+181245407
3979+182290660+183116698+182655480+181964621+182281242+183004025+183262505
3966+183402806+183979641+185109131+186117820+186007326+185370393+185293416
3952+185455861+185469776+186084525+186748965+186284077+186738317+188814886
3939+189805890+188979691+187095514+185851637+187328563+189580081+189675934
3925+189155345+189686925+189386014+188730105+190782192+194995932+197530735
3912+197333180+195995950+192457721+186118849+182053436+183469236+188083311
3898+193903610+197113945+195158922+192840349+195380435+197144639+195481572
3885+195277080+195220632+195562422+199519518+200528490+196924739+193951930
3871+193137125+195988509+199024198+198745733+200472930+205239386+207057476
3858+203003377+193051981+187172370+196963984+207833399+211859769+209942619
3844+204787022+199460207+195817836+196878899+202254780+206255316+208493786
3831+211173105+212978671+212881648+209752082+202839319+201082174+206492318
3817+209807884+214323241+220598770+222055811+217512986+212702586+211842910
3804+209674379+208886840+214752172+220251939+224597490+229305926+231722349
3790+232139361+232204279+232609069+234113019+234830740+234175960+236700377
3777+242305132+245452607+244421229+243234042+246048983+250600762+254922134
3763+258086206+258893105+262064982+269679796+275086069+275569127+281008816
3750+303302077+330669784+363831916+413444563+453175854+471380228+477052462
3736+477051050+481801857+493164959+503254277+507492198+508553907+511978374
3723+519748252+530718301+542633897+551940213+555664724+557250168+566492596
3709+584816923+603896219+617801404+627626777+640650063+656445495+666923713
3696+670575058+669459302+666684008+669649476+681303184+694040220+702656746
3682+707023292+706996188+702308262+698133060+703172939+710518707+712722146
3669+717576651+726985497+733506920+735351711+734125239+730581907+727708522
3655+730295617+733579360+730808100+727621078+735132779+747641525+756656631
3642+761507586+763602205+763348828+761746605+761122478+760457857+757221144
3628+761915200+774401843+781519160+781821422+777570312+774034644+775977123
3615+781246503+788285491+794400833+797296402+800070405+803361972+804698556
3601+805962378+808018276+808382007+808846653+812196463+814969981+812631907
3588+810844148+817712685+826101648+829066188+829700317+832102281+836431880
3574+841111336+842486076+837442728+829834387+829842212+836727124+840657661
3561+840169460+838874984+838929112+840528673+843023001+847438431+851497633
3547+850839626+848607065+849871290+853447211+856129818+857054351+857657907
3534+859665727+863244714+865636916+864666322+861868522+860024215+860055998
3520+859501891+857924836+858326481+860603409+862455622+863371846+862989078
3507+859963714+856987558+859381858+863531084+863117985+861447597+861748488
3493+861408554+858550334+855354520+855236341+856137078+853606046+850018832
3480+850900530+855048466+855711071+851373808+848214374+849872258+852867936
3466+853340165+851375825+848707496+847449563+847294036+846017065+843041232
3453+839143204+835899070+834621293+835161525+835971671+835992080+834577087
3439+831662964+830305084+832084130+833729349+832510701+829389505+825961125
3426+823411862+822648907+821445102+818235251+816051171+816585757+817017168
3412+815211097+812840595+811441412+811180291+811209815+811390834+812542608
3399+811872340+809397614+809519906+810546323+809058083+806309410+803379315
3385+801293005+802372017+805832583+806997426+803180550+798086139+795581083
3372+794614037+793292861+790571695+788321791+789386767+791649497+792152299
3358+791459928+791394507+790993023+789075873+787633292+785630150+782348424
3345+781778991+783173333+781355001+777442292+776186456+776676190+776940458
3331+778312697+778685301+776299633+775711565+777794165+776739272+771976487
3318+769428111+769638332+767715535+764018048+762146798+762489152+763852195
3304+764884661+765166837+764226412+763102711+765179502+769815639+774151209
3291+776036011+773434556+769164812+768335386+770194374+769533948+766293362
3277+765625272+768154852+770682576+772851812+774955144+775988578+776772427
3264+777406879+775769727+773360826+773133262+773011938+771435771+770288110
3250+768541169+765242584+762944198+762594423+763279050+764898940+767462480
3237+769175944+767419484+762506253+757610204+755482108+757210092+760892253
3223+761913345+758949934+754642599+750996739+749634906+750105602+750348815
3210+750808622+751811402+752576294+753578752+754368006+754558059+755659497
3196+756797315+756180852+754690273+752855889+751721297+752696086+753970314
3183+752829510+749271175+746086815+744985216+744814523+744998446+745294093
3169+744770075+743100575+740201457+736421688+732845364+730425654+728897887
3156+727755632+726795685+724104690+720070414+718398898+718091796+716026701
3142+714107373+713914577+712996981+709804797+706532913+705866516+706008008
3129+703810457+700994910+699321538+697069536+693954147+690961696+688334831
3115+686668881+685481935+682807396+678338805+674285775+672149935+670639592
3102+668024182+664874994+662434391+660338320+657905824+655237496+652907367
3088+651177931+649340198+647709056+647098078+646227109+644116880+642099461
3075+640827411+638477357+634532865+631355564+629779316+628345527+625762949
3061+621602913+616585096+612180959+609295352+607229693+605063562+603444479
3047+602815230+601815717+599426902+596500962+593663675+590025277+585145442
3034+580542258+578216445+577808387+576954196+575151715+573947184+573861193
3020+574071009+573830216+573082668+572097513+571960337+574135544+577581670
3007+580387012+583120076+586859672+592134335+600091524+611317088+624320932
2993+636585940+646563090+653285699+655576219+653954838+651079758+648083556
2980+643629204+638044333+633699366+631532267+631446436+633214835+635805843
2966+638787081+642461659+646400544+650055520+653347652+656446262+659411044
2953+661713140+662901457+663040004+662181618+660267614+656344096+649303333
2939+640769491+634035145+630514965+628424864+625407123+621717783+618129883
2926+614450708+610517791+606296407+602245232+598232455+593450833+587765571
2912+581983790+577190674+573116871+569284830+566645381+565907352+566425198
2899+567444274+569050571+571484801+575046404+579647531+584083249+587770250
2885+591227872+594988724+599616028+604802965+609115019+611427724+610833727
2872+606211383+597994041+588552929+579224630+569324115+558325187+546707054
2858+535199960+523801121+511566041+498475035+486066317+475521267+466714647
2845+458971510+451926149+445662419+440280145+435516028+431184936+427549079
2831+424774592+422667590+420829213+419246753+418365821+417906015+417518083
2818+417647152+417964862+417751657+417186821+416363405+415151533+413519020
2804+411341958+408885786+406318696+403409696+400250424+396877665+393339133
2791+390263312+387753294+385030919+381849100+378648728+375769292+373395966
2777+371502048+369798345+368043539+366213147+364386668+362721202+361433139
2764+360499491+359718062+358871615+357832776+356911227+356144158+354984397
2750+353582351+352492974+351459216+350113920+348690739+347394489+346194717
2737+345064965+343937109+342896253+342180125+341806916+341535388+340982653
2723+339994110+339006252+338434802+338080368+337557177+336869323+336359200
2710+335985971+335326512+334455723+333605223+332574672+331349531+330143850
2696+328845180+327415384+326109615+324859870+323388954+321797823+320382205
2683+318971386+317227349+315482284+314056703+312725927+311405940+310131753
2669+308870069+307658136+306533587+305525482+304581508+303576892+302649495
2656+302114628+301842455+301419433+300807689+300275423+299967434+299724119
2642+299408628+299125000+298950314+298874184+298905422+299051713+299255399
2629+299515936+299949364+300535072+301105676+301684648+302528917+303579191
2615+304486905+305313427+306290475+307216158+307748041+308083276+308696713
2602+309455797+309911792+310039065+310172712+310536523+310813657+310630864
2588+310180778+309677593+308955294+307890661+306661305+305491703+304376128
2575+303289090+302295243+301283024+300127902+298959591+297881184+296815038
2561+295791566+294824804+293709108+292536360+291681463+291116366+290569841
2548+290066838+289730292+289387474+288918028+288651280+288733742+288752155
2534+288573496+288544214+288767562+289084748+289367811+289533422+289659667
2521+289993632+290604952+291289418+291953072+292621908+293312364+294100669
2507+294919366+295641202+296328693+297106531+297948299+298612215+298923552
2494+298915466+298729022+298648354+298804426+298939888+298844962+298645934
2480+298478851+298175662+297489441+296539538+295689804+294985958+294156370
2467+293224617+292486810+291989392+291613904+291134939+290355507+289599570
2453+289153779+288734247+288173828+287612158+287062569+286541233+286198113
2440+285959881+285602099+285136787+284669822+284160385+283559087+283036159
2426+282770600+282660953+282579196+282571653+282652624+282696809+282632558
2413+282512927+282412214+282414533+282537188+282713024+282875569+283005485
2399+283184668+283452384+283717962+283938488+284039141+283920076+283647076
2386+283028394+281429338+278400283+274109807+269231465+264392408+259596528
2372+254412637+248829944+243445290+238725319+234778266+231846094+230606432
2359+231606369+234903502+240275229+247609884+255288285+259256151+257334100
2345+252080996+248484524+247931204+249067107+250907986+252514948+253508432
2332+254616968+256934371+260226180+263333301+265960347+268629865+271800592
2318+275146549+277768776+279529309+281143350+283050497+285190431+287400809
2305+289537153+291495181+293149778+294516249+295887218+297333692+298552561
2291+299466164+300417963+301590086+302685836+303423765+303888653+304208279
2278+304348157+304514897+304997391+305531472+305848012+306105181+306352468
2264+306599513+306947998+307305800+307488210+307465744+307468567+307644161
2251+307767340+307703956+307528443+307370294+307443863+307686088+307840385
2237+307887051+307905322+307937469+307958362+307865997+307778009+307894755
2224+308060084+308140892+308325662+308649362+308956565+309193022+309322151
2210+309445855+309824025+310440811+311025733+311385773+311629955+312086877
2197+312775437+313427333+313989466+314504530+314913636+315395646+316127001
2183+316830302+317343006+317821346+318354499+319009360+319770279+320484612
2170+321132253+321806616+322455366+323098631+323877418+324687624+325473974
2156+326401713+327405664+328321868+329266064+330335940+331462829+332661894
2143+333804896+334652593+335346437+336237331+337426939+338727101+339949097
2129+341078607+342179923+343364771+344668201+345980262+347296881+348677308
2116+350138524+351746837+353396896+354854684+356186589+357719962+359569795
2102+361507555+363465241+365642746+368069313+370651246+373387536+376270683
2089+379289391+382530743+386092910+389972706+393962937+397868950+401879187
2075+406199711+410834356+415789212+420928797+426135538+431557298+437309716
2062+443172649+448930673+454854187+461281955+467933012+474270473+480375247
2048+486773088+493609842+500494230+507107373+513577653+520068826+526558345
2035+532925895+539172363+545480904+551635773+557250249+562625223+568206181
2021+573622819+578495031+583278548+588223845+592796013+596763777+600669226
2008+604701323+608353677+611570788+614639510+617433358+619900863+622113459
1994+623812443+625257444+627153217+629281999+631161719+632895673+634479221
1981+635515600+636098505+636797612+637526405+637963625+637993310+637431540
1967+636740419+636678224+637036873+637281942+637151623+636406656+635582232
1954+635353861+635308687+634942093+634046439+632455832+630767657+630816179
1940+633302037+635993920+637386850+638329009+639813740+642027626+644721889
1927+647323827+649727162+653192366+657839958+662390951+667890798+675085515
1913+682026129+687976424+694216398+701539337+709347733+716978500+724640404
1900+732508576+739578702+745734216+752174165+757828411+762110255+767553554
1886+774193156+779904836+784464743+787873440+789848106+791043037+791896018
1873+791117332+787457678+783797540+784309135+786489746+786319537+783777292
1859+780097471+776206865+772748074+769102536+764246015+758223279+751236322
1846+742781373+735222643+731876786+729549441+725642782+721415953+716822166
1832+709961857+701748024+696424839+693981655+692569082+692309574+691483213
1819+689088187+686315475+683707890+680544101+677386603+676209943+676463724
1805+675713312+672906558+669450630+667956058+668261466+667127923+663421603
1792+661996365+666089608+670257106+671199144+670715178+670270941+670176963
1778+670599944+669580747+665627503+662198195+664472300+669947584+674418110
1765+676173481+675493896+675849116+677847135+679544627+680992049+680111157
1751+676414194+675457272+679721451+684664771+686947588+687256465+689070925
1738+692133476+691556701+690235444+696150085+705267316+713590051+719679821
1724+723431840+725539769+723574541+718145520+719620611+731202565+743132197
1711+751141134+754419633+754408420+755773077+757686516+756948809+759623672
1697+768940475+782799841+797937710+808150733+814687725+819453011+821313049
1684+828359297+846291255+863429927+874019426+879767729+886169442+892842521
1670+898170788+907222113+917173207+921675194+923611140+927694380+930978607
1657+928672154+919007350+914105977+925530710+933944518+938140371+948081220
1643+959192558+965028548+965080175+960456622+959542334+969323703+978570244
1630+981700879+982292739+982361226+983006487+988414615+994475909+994425250
1616+993342043+997812570+1002067956+1003307577+1004166850+1006572604+1009336605
1603+1010245246+1010572031+1012360677+1013753245+1013496479+1013536733
1591+1014417544+1014613647+1013714928+1011762607+1008663997+1005188749
1580+1000549466+993466837+989536784+992324420+993470870+991966255+994509225
1566+1000887786+1006864218+1006727729+995729567+992432595+1011654996+1027258802
1553+1032464535+1031843151+1029896638+1026258361+1018493121+1008025673
1541+1000380951+1010454821+1030250447+1040564707+1045443332+1053716375
1530+1060030321+1059942151+1056988340+1053211959+1050920914+1053621671
1518+1056386074+1057719916+1059485733+1058384699+1051034414+1037846365
1506+1033512409+1048069470+1060892659+1062996474+1056877825+1052680117
1495+1057083850+1061272443+1058921623+1056960509+1061691270+1067733850
1483+1071100841+1072789137+1073741823+1071900339+1066130820+1059874390
1472+1060485610+1066583366+1068053294+1063333988+1058999306+1056105028
1460+1049220115+1037021860+1030296589+1033850568+1036349736+1032291018
1449+1024575793+1019994025+1017877545+1013383061+1006255661+996915060+985968042
1435+978466264+973703881+966486456+958832699+953734739+949680700+948872409
1422+951609144+954600062+961309764+971791894+980667929+987592772+993405529
1408+995980605+995899695+998256727+1003465847+1008657221+1013932811+1018306859
1395+1021912789+1026872565+1030656528+1030562873+1029767570+1032816327
1383+1037399143+1039667843+1040647472+1041214566+1042292207+1048175629
1371+1056404870+1059908432+1058723181+1055972975+1053399835+1053190098
1360+1055541402+1057669337+1056736011+1053196713+1050469336+1049300702
1348+1048533552+1048340272+1047278200+1042780650+1035780222+1029446593
1337+1026040719+1025665614+1026029506+1024652427+1021311330+1018677689
1325+1019044243+1021194442+1024272159+1028966297+1033671728+1037113579
1314+1040725558+1044189997+1046194913+1047867962+1049632086+1050583078
1302+1051580454+1053258747+1054612594+1055616100+1056309682+1056075987
1290+1056071309+1057861568+1061597857+1065768057+1068581103+1070730334
1279+1072358936+1071164891+1067525808+1064829246+1063799038+1061815660
1267+1057300443+1050707951+1043592491+1037217156+1031023163+1025419093
1256+1020949938+1016529748+1013178326+1012426583+1012844039+1012590258
1244+1011348216+1009563765+1008118441+1007934276+1008460391+1008149094
1233+1007170595+1007019262+1007696145+1007690176+1007049432+1006923348
1221+1007063387+1007509157+1008338018+1008459988+1008378110+1009205116
1209+1010100932+1010662782+1011573521+1012189581+1011903856+1011857875
1198+1012233384+1011772287+1010225967+1008230327+1006726277+1005727610
1186+1004190244+1002354729+1000512358+998690477+997592428+996087974+993161428
1173+990838358+990738814+991265413+990413159+989012040+987719259+985404981
1159+982694141+980781509+979190337+976971006+973314659+969198103+966121596
1146+963473354+960995805+958628449+955518384+952383554+949576155+946065575
1132+942382204+939697420+937664673+935044181+931397111+927864024+925089215
1119+922200503+919039617+915862517+912186810+908099294+903903361+899657172
1105+896168372+893920242+892278492+890902461+890391996+891328226+892902699
1092+893095898+891500451+890688530+892027373+893568289+894392955+895307566
1078+897245528+900908409+903774857+903166058+901490911+902291055+906091313
1065+910444226+911944323+910811264+910847564+913027772+914815531+915974646
1051+918985973+922801881+923547089+922482275+922725730+923483604+924277697
1038+925350901+924717256+921568148+918788660+917831859+917666975+918501241
1024+919500795+919039698+917581709+915501529+912819891+910602818+909357470
1011+908564344+907970145+907064408+905787760+904823135+904297584+904568951
997+905838823+907926181+910694941+913316078+914967025+916199225+918452759
984+921017026+922844796+926001729+930464108+933336122+935025708+937247621
970+939419277+941346350+943374337+945021331+946139547+945841722+943902711
957+942981001+943928040+944647758+945101434+946343394+947003257+946070657
943+944821436+944224817+944176336+944859350+946817237+948539009+948254091
930+947367149+946424385+944624042+943073608+942491267+942399628+942723832
916+943669500+944284511+942884442+940523619+939592632+939547862+939101769
903+938367451+936888327+934980937+934007600+933411708+932239524+931331125
889+931555946+931994859+932141352+933169382+933984691+933269813+933383312
876+934824523+934787738+932366899+929566034+929542640+933007562+937034658
862+940212322+943213082+945991280+949906247+956495916+963994952+969343950
849+973259402+980435041+991273158+999819745+1003714788+1006925365+1012702628
835+1020303790+1026531421+1030477365+1035047436+1041191173+1044627377
824+1041941706+1037626061+1037420036+1039108170+1038874637+1038531637
812+1040185972+1041319112+1039763918+1038004877+1036645303+1033740618
800+1030826737+1029001710+1026146313+1021099577+1015840926+1012617282
789+1010648585+1007824891+1003132931+997361557+991928664+986390580+979520833
775+971818192+964862856+958267138+950924678+945029881+942158916+940172472
762+938182802+936442718+933619669+930124496+928199038+927701479+926859953
748+925431892+923982211+922442748+920545765+918355797+916755348+915518550
735+912683078+908904197+906114061+903444604+900410770+897138482+892238481
721+887401158+886347395+887219252+886582380+887120757+891677759+897255208
708+901701051+906047994+909046334+910816507+914338946+918213660+918441708
694+915593733+914350804+916766319+919875980+921704396+922619491+921922763
681+920119274+920810355+924846728+927596369+926825669+923241843+917766922
667+918294812+925018631+927862008+927123252+926991038+927592416+927041133
654+926156691+925879436+925663731+926348681+926924164+925534824+924412170
640+923763844+922259471+922105637+924565197+929774560+937487365+945582939
627+950488911+946861765+935931688+928008097+927256919+928345450+930243239
613+934269770+936126500+936562913+940496434+947546393+950084362+941730731
600+933728086
##END=
