##TITLE=Sample description
##JCAMP-DX=4.24
##DATA TYPE=INFRARED SPECTRUM
##DATE=13/9/2023
##SAMPLING PROCEDURE=Instrument type and / or accessory
##ORIGIN=Default
##XUNITS=1/CM
##YUNITS=ABSORBANCE
##RESOLUTION=4
##FIRSTX=4397.6552
##LASTX=599.8556
##DELTAX=-1.9287962
##MAXY=1.7527033
##MINY=0.36907488
##XFACTOR=1
##YFACTOR=1.6323322e-009
##NPOINTS=1970
##FIRSTY=0.38411489
##XYDATA=(X++(Y..Y))
4398+235316623+234705635+235670782+236957553+235693202+233552400+232488918
4384+231336449+230247461+230887606+233426459+235770030+236109547+235050739
4371+234032353+233317425+232382111+232005477+232959962+233981634+234609491
4357+234878351+233538396+231778007+231791244+232505660+232511320+232174651
4344+232080589+232550154+233212372+233125046+232676514+233146115+233637151
4330+232662090+231142645+230371065+230483860+230967081+231051924+231193274
4317+231859600+231676659+230723270+230917676+232156357+233023388+233085299
4303+232554809+231698495+231439294+232234810+232588969+232183890+232431589
4290+233058497+233011283+232532225+232489557+232697966+232174560+231167384
4276+230674085+230400423+229389486+228253084+228369330+229841104+231351931
4263+231060085+229502665+229201909+230363214+231479387+231618893+230463740
4249+229030781+228862118+229434199+229241801+228840647+229149528+229652394
4236+229958993+230049641+230265281+231155937+232182301+232157836+231432830
4222+231259256+231126396+230089370+229000364+228985502+229898378+231047907
4209+231578124+230984663+230432629+230661122+230700503+230395877+230192945
4195+229657360+228691173+228372141+228947691+229121028+228202438+227274171
4182+227983676+229787171+230605382+229899656+228463191+227356220+227278608
4168+227941885+228273076+227813845+227496438+227846909+228539490+229322445
4155+229588657+229129536+228889833+229109964+229040603+229030982+229527221
4141+229830642+229623182+228784177+227662362+227524828+227908364+227418168
4128+226662289+226679433+227388536+228102021+228187959+227877691+227577008
4114+227462862+227940077+228343240+227767982+227038960+226836593+227097091
4101+227766047+228186353+228276180+228415101+228229952+227752664+227430766
4087+227332814+227709814+228560851+229103592+228868599+228026435+227285564
4074+227301941+227427187+227197544+227206399+227574617+227972229+228242056
4060+228577337+228991089+229025961+228465017+227617577+227273514+227327720
4047+226748464+226102806+226554971+227391384+227510405+227200192+227117229
4033+227024846+226532222+226347055+227060649+227700484+227723762+227853756
4020+228174595+228335553+228333983+228238168+227933523+227324507+227106001
4006+227669793+228051375+227854413+228038613+228899710+229118581+228120242
3993+227694550+228841378+230008379+230366373+230759311+230994175+230239666
3979+229398542+229523332+229666708+229277422+229607718+230640254+231025688
3966+231091725+231605035+232060944+232105565+231970971+231934364+231956894
3952+231697035+231290093+231444990+232106131+232372873+232373421+232463102
3939+232096345+231573139+231424103+231438454+231889615+232383882+231606185
3925+230702037+231705598+233021672+232942836+232638173+233123567+233923301
3912+234744998+235310032+234388959+231690864+229496256+229113360+229959924
3898+231996184+233499380+232956036+231916234+232534890+233523973+233644490
3885+233643596+233217100+232941412+234184949+234603466+233157471+231352570
3871+230082286+230898543+232619788+233149018+234135508+236159152+237047435
3858+235375156+230623913+226907140+230664883+235577724+237478075+236762709
3844+234515100+232181772+230961403+231619075+233653820+235140712+235979827
3831+236860496+237429692+237693294+236929400+234135179+232961203+235080425
3817+236517127+237929985+240184495+241274231+239894128+237055669+235542340
3804+234696068+234778410+237055286+238902873+240419652+242424947+243446054
3790+243312409+242872695+242460659+242632243+242996937+242827617+243544115
3777+245676701+247253676+247113476+246457356+247413958+249457394+251051895
3763+251378321+250396597+250751906+254045780+257301003+258597579+261752111
3750+271875080+284550320+301753040+327266287+345797989+351398371+347998165
3736+340700090+336441489+337218931+340682490+343761619+345412682+347745919
3723+353357329+362607095+373257797+382366067+388497706+393421940+402402408
3709+417227433+434421919+452277108+471201200+488791107+500331753+505062201
3696+504875208+501350120+495149176+487814842+482443153+479046599+474192073
3682+467063428+458948950+449472462+439545050+436120525+436034130+431395700
3669+426574074+425148674+422777388+417686829+411176201+404774168+398541236
3655+393118390+386887613+377099140+368609909+367247643+367757210+365956655
3642+362052176+357496197+353091536+349119980+345361452+340429879+333807222
3628+330523390+330856480+329383501+325252410+319520318+315155094+313598276
3615+312256458+310340880+308300968+305852052+303680978+301951572+299508973
3601+296725341+294884619+293560457+292286703+291316152+289606227+286303625
3588+283474989+282741439+282276110+281411507+280504529+279106295+277105802
3574+275448513+274380375+272597712+269536931+267335313+267023694+266664733
3561+265619016+264731920+264192757+263408688+262239276+261213113+260312251
3547+259446681+259065318+258903976+258173931+256936784+255974047+255405454
3534+254672469+253619595+252428986+251374031+250696330+250397601+250239326
3520+249822343+249138052+248630274+248243324+247562246+246826998+246502233
3507+246198647+245466558+245060711+245444557+245634161+245124594+244522370
3493+244159886+243581342+242655887+242124922+242116377+241902728+241532940
3480+241545447+241749803+241656379+241365738+241385967+241803626+242316425
3466+242478862+242031261+241395315+240898875+240599069+240762784+241085905
3453+241056857+240775162+240383904+240192072+240476999+240920036+241183090
3439+241007964+240504695+240186668+240191689+240465278+240771712+240700927
3426+240267439+239764353+239429310+239532958+240245311+241154079+241797820
3412+242244344+242286811+241635109+240996936+241370978+242422519+242939408
3399+242756267+242666531+242963800+243403094+243913245+244412223+244668960
3385+244830740+245320041+246129250+246783527+246900959+246629543+246587733
3372+246860026+246934023+247078897+247655250+248117219+248145665+248077966
3358+248172284+248241151+248301803+248693883+249150887+249125144+248634893
3345+248165237+247939245+247764977+247533600+247358090+247622441+247833607
3331+246791432+245275493+244698427+244389346+243651231+243131897+242933237
3318+242485964+241822066+241095563+240114149+238857265+237596712+236541373
3304+235510463+234390438+233406650+232680202+232281987+232227762+232442909
3291+232736125+232652103+232265592+232404532+233467119+234823780+235638320
3277+235856826+235869899+236015520+236620355+237368585+237535111+237398271
3264+237661855+238119753+238335484+238309686+238348958+238773719+239519411
3250+240318779+240811294+240788673+240522460+240357558+240532995+240966994
3237+241350183+242056913+243372348+244361796+244350786+243942859+243983080
3223+244661091+245512347+246166770+246742904+247659358+248724355+249102011
3210+249304451+250490404+252000793+252542493+252559454+253300454+254644152
3196+255628433+256286068+257489950+259070101+259959607+259995885+259586131
3183+259445804+260530921+262421852+263675431+263979509+264157538+264700882
3169+265502934+266388935+267309241+268082483+268565376+269210651+270345246
3156+271573721+272434691+272739956+272860145+273525266+274471973+274664334
3142+274385633+274799038+275606769+275711512+275317059+275241180+275359215
3129+275395347+275625957+275834312+275746256+275792155+275767289+275013016
3115+273748811+272681240+272221790+271792300+270659878+269482926+268980479
3102+268745541+268447579+268175542+267833980+267446629+267387748+267674318
3088+267823993+267943105+268673187+269651388+269971971+269764895+269626850
3075+269681969+269836227+270141091+270739736+271452126+271728654+271402539
3061+270962715+270815669+271004707+271408819+271703057+271534577+270900384
3047+270202874+269831553+269878621+270030213+269609542+268436131+267028605
3034+265743897+264696957+263859996+263110050+262436677+261578245+260469065
3020+259611637+259156039+258940528+258775589+258262005+257366109+256521243
3007+255965704+255620381+255293206+254875310+254730656+255250356+256385279
2993+258326509+261165132+264227063+266673223+268212093+269319211+270400420
2980+271080221+270951523+270434270+270041149+269380884+268153542+266894084
2966+266055461+265490775+264862479+264130408+263466985+263105833+263096740
2953+263107202+263055533+263103678+263223210+263596686+264156461+264089054
2939+263271355+262514654+261845243+260809896+259721529+258969429+258543664
2926+258544741+258931271+259179263+258634313+257521061+256966343+256957543
2912+256726512+256873796+257749389+258350847+258448597+258625439+258933882
2899+259295326+259632305+259764233+259921157+260369762+261046933+261811759
2885+262364304+262570906+262802648+263258502+263626957+263568734+263157611
2872+262966035+263199348+263304566+263070322+262874766+262938265+263017685
2858+262805789+262510127+262299143+261828902+260957289+260031870+259518341
2845+259566724+260004082+260692701+261454276+262195221+262851013+263130827
2831+263277563+263839493+264567748+264971549+265050057+265089749+265338562
2818+265780156+266253172+266594807+266753391+266883366+267123033+267619893
2804+268462039+269421471+270231922+270681385+270769606+270871939+271223670
2791+271705632+272000016+272064793+272162526+272169865+271952948+271826569
2777+272065706+272363431+272187721+271771906+271495177+271185329+270987856
2764+271233474+271651425+271780889+271675397+271737619+272042629+272341668
2750+272544802+272552798+272180765+271669190+271485136+271701140+271973232
2737+272022381+271989390+271986542+271897810+271807235+271852769+272002645
2723+272159970+272209283+272154894+272018529+271749596+271588546+271740558
2710+271830002+271727029+271805610+271954536+271901170+271839770+271828870
2696+271667565+271413712+271278095+271190770+271035344+271046426+271312785
2683+271477066+271321293+270953970+270525083+270077755+269492620+268811798
2669+268411301+268323300+268094442+267594405+267113941+266889446+266881632
2656+266848659+266701777+266484549+266254906+266149889+266141491+266120422
2642+266060975+265937500+265867135+265885886+265838069+265760785+265736302
2629+265714119+265699568+265690402+265700408+265915006+266376666+266743788
2615+266803271+266852164+267234732+267816106+268285269+268722263+269290327
2602+269849975+270295367+270742676+271329253+271967864+272475496+272923371
2588+273373875+273687977+273900221+274197508+274599958+274958791+275146186
2575+275208262+275303019+275549623+275911760+276160556+276213575+276267618
2561+276288906+276053220+275736214+275715474+276022657+276362374+276483933
2548+276466095+276552015+276792831+277007595+277113744+277210618+277227616
2534+277174742+277345760+277734152+278018002+278053878+278025177+278204155
2521+278558314+278862485+279072738+279175857+279110969+279026693+279069762
2507+279277368+279694644+280109126+280346364+280599486+280909809+281133190
2494+281374882+281811109+282372162+282871779+283240052+283552419+283863728
2480+284070074+284076574+284006648+284046102+284184677+284205509+283993429
2467+283817829+283902909+284080226+284206202+284264480+284239796+284209197
2453+284207535+284218910+284370903+284716865+285036773+285212027+285414941
2440+285802712+286254330+286437489+286266143+286102263+286226779+286380033
2426+286292689+286201182+286339867+286670327+287015687+287148619+287110388
2413+287112689+287248835+287476798+287652855+287760356+287938567+288228953
2399+288551454+288828183+289024068+289131568+289160926+289201859+289333788
2386+289288564+288590032+287020050+284587072+281467466+278101219+274848078
2372+271638079+268306375+265045565+262147843+259613426+257653574+257087628
2359+258294248+260909272+264862132+270358830+276122379+279253560+278217100
2345+274682975+272322151+272192085+273037517+274268457+275600470+276741473
2332+278045187+280181590+282699921+284735798+286517183+288816571+291724134
2318+294618534+297038312+298873356+300453981+302312304+304298739+306079230
2305+307818203+309548029+311091483+312520024+313875753+315085679+316255510
2291+317439400+318658929+319988478+321261683+322294730+323133151+323899054
2278+324707752+325633189+326591854+327353667+327880725+328418336+329165360
2264+330069910+330816533+331196581+331559796+332201146+332822522+333287212
2251+333757672+334181173+334588534+335125999+335611904+335877551+336085541
2237+336359915+336735253+337130856+337359404+337488813+337688404+338023137
2224+338493305+338899534+339052313+339154994+339518428+340054030+340540921
2210+341016639+341539607+341996264+342360866+342774618+343262641+343777795
2197+344331947+344953177+345694213+346535702+347426961+348280682+348967237
2183+349596756+350327823+351119907+351960008+352827532+353638129+354421486
2170+355349150+356506129+357665663+358668293+359683739+360748627+361759691
2156+362779702+363821585+364831006+365905534+367086685+368297267+369510004
2143+370724859+372013985+373368328+374619040+375812461+377161180+378647304
2129+380096878+381476233+382896740+384436140+386032577+387641027+389373154
2116+391270767+393202813+395007093+396712016+398561502+400587721+402637710
2102+404861329+407402848+409887184+412141731+414640490+417596746+420702495
2089+423715751+426810363+430273375+434036248+437904247+441858715+446042168
2075+450496708+455121701+459908017+464846053+469979517+475338097+480781610
2062+486268284+491986135+498031270+504277493+510769536+517517220+524277903
2048+530985749+537715614+544505947+551382602+558352115+565406379+572469772
2035+579497489+586678899+593751055+599976027+605690627+611711078+618079481
2021+624476766+630401548+635774368+641152301+646777659+651983167+656096219
2008+659870047+664175168+668564274+672484600+675924096+679060517+682079360
1994+684800605+687031235+689347821+692045113+694428959+696488772+698770522
1981+700804044+702086671+703070970+704062718+704771182+705106755+705409611
1967+705836471+706296780+706747083+707124648+707586490+708162624+708222144
1954+707824641+707930608+708485782+708921041+709298972+709721889+710559105
1940+712142031+713905926+715312850+716554945+718352068+720792659+722960556
1927+724982466+727945222+731623161+735093329+738611406+743149493+748572923
1913+753684661+758396778+763943483+770782893+777556721+783077793+787953936
1900+793282938+799405777+805929259+812016021+817276156+822305370+827757574
1886+833045241+837443914+841119662+844584426+848290409+851706973+854032031
1873+855618170+856609626+856900943+857437568+858406896+858977114+858819077
1859+857910364+856371402+854511035+852615613+850561716+848164943+845756631
1846+842558062+838312752+835690024+834088037+830742239+826083944+821889172
1832+817730987+812952923+809049029+805838482+802421845+800226270+798759096
1819+796406944+793474934+790663131+787971025+785329382+783133077+781608940
1805+780337048+778757408+776648885+774872283+774282785+773719139+771988546
1792+770705700+771639535+772914640+773117882+772875423+772486099+772047992
1778+772054784+771651293+769471711+767005414+768235532+771760765+774192373
1765+775338580+775838471+776594697+777738566+778999065+780712861+781529337
1751+780410151+779301920+780082539+782155423+784507721+786208591+787679562
1738+789267892+789048364+788565197+791901064+795935754+798821902+801538693
1724+804318070+806390370+805994913+803557097+804742667+810958108+816718425
1711+820618376+823196336+824826586+826865731+829177789+830163183+831146533
1697+834664609+841215988+848494601+853607069+857263976+859634604+859926286
1684+862446187+870830183+878997278+883399237+884934475+886930240+890131147
1670+894029491+900669163+907785138+911882342+914857732+919137658+922710945
1657+923163585+919875188+919422256+927206309+932802967+935110059+939741697
1643+946402329+950704164+950478063+945649390+942285772+947978610+956070120
1630+961319811+963863521+963892733+963019147+964870970+967905661+968130374
1616+968952035+974132860+978054427+979508820+982726232+987217580+989141483
1603+988356410+986984322+987450764+990262056+993124542+994060276+993960443
1589+995359042+997961248+999363936+1000146015+1002112349+1003909326+1003223063
1576+1002316687+1004288791+1006100082+1006722298+1008410168+1011206854
1564+1013455814+1012960305+1007131850+1003661608+1013327062+1024599103
1553+1031488465+1034832657+1037446183+1038937165+1037964624+1035623499
1541+1032305671+1033533672+1041057957+1047967257+1053750287+1059196356
1530+1062080970+1062285162+1062013052+1060238860+1055182625+1051836826
1518+1053107257+1056705082+1060761463+1064433925+1066269681+1062632274
1506+1058413839+1064411212+1071599487+1073439186+1071910522+1072010500
1495+1073741823+1072155172+1065888172+1060902922+1063168314+1068500676
1483+1070732109+1069171822+1067564285+1066495198+1062925124+1056919571
1472+1054332482+1056037295+1056038683+1052814041+1049164292+1046595241
1460+1041900651+1031185829+1022379720+1023286096+1023663296+1017712589
1449+1008864780+1003087738+1000091535+995442223+988491077+980615225+970844609
1435+961890906+955159508+946340035+938007745+934371579+932692399+933521071
1422+938250643+944610975+952717310+959969559+963305206+966441481+972006006
1408+976101677+978016159+982478441+988971688+993445947+996393439+999235331
1395+1002266150+1007217733+1011742748+1011495760+1008770425+1009345610
1383+1013159896+1017517745+1021226795+1023932923+1026287704+1029292671
1371+1031439535+1031737425+1031332619+1030244106+1029079642+1029367673
1360+1030339264+1030940740+1030382863+1027994270+1025182540+1023048675
1348+1021134777+1019148798+1015987181+1010758230+1005760638+1003334945
1337+1001990462+1000560315+1000041363+1000375549+1000543956+999635097+998133088
1323+998006454+999666938+1003158578+1008415937+1012565724+1014360802+1015870333
1310+1017615970+1019370882+1022307712+1025953226+1028433619+1030137994
1298+1032278577+1033907951+1033717415+1033627953+1036375271+1041381918
1287+1046725673+1051100830+1054498333+1058293047+1062399600+1065032552
1275+1064651116+1060853554+1055458751+1051463351+1050045399+1049223446
1263+1046491465+1042157863+1037804542+1034616780+1032789861+1030231618
1252+1026527315+1024232492+1023412730+1021954028+1019131709+1015481521
1240+1012151862+1009918750+1008654380+1008190055+1008500287+1009050568
1229+1008677896+1007637875+1007670228+1008229711+1007520662+1006537970
1217+1007027709+1008624730+1010234239+1010788903+1009598440+1007037568
1205+1003964683+1002722734+1004602747+1006720837+1007267686+1007021867
1194+1005836808+1003776777+1001570831+1000267537+1000497217+1000311939
1182+998142363+996546656+998035301+1001080654+1001812196+998123010+992603764
1169+988020399+984374739+982144767+981621798+981604636+980939698+979320111
1155+976982419+974606898+973466679+972666489+969095101+963294033+959347854
1142+958387655+958492307+958916758+959155931+957264161+952927564+949279056
1128+948296364+947100935+943310895+939158260+936694227+935076684+932785513
1115+929463230+926787117+926103629+925922295+924341487+921020884+916949167
1101+913377924+910531578+908520915+907135900+906196880+906345715+906259759
1088+903988452+901649226+901582769+902373684+902921337+904237995+907696260
1074+912167524+913975310+913845317+914563932+914647625+913673404+914368504
1061+917298396+919945954+921395090+923494630+925960855+926709340+926124004
1047+925528590+925229094+925624990+926893668+928829986+930083255+928711532
1034+925878258+923096032+920048781+919026214+921005693+921822023+920016501
1020+918247641+917482067+917545165+918372230+919329508+918948948+916682680
1007+914324248+913340898+913409327+913298906+912946244+913339438+913541000
993+912613957+912356380+915112388+920428683+925994376+931728403+937733590
980+941334410+941574459+941133942+941405687+940542326+937128682+933004603
966+930941139+930556124+929246038+927322865+927279851+928250055+928218287
953+928187103+928547506+927766304+926094646+925529466+925636675+924199297
939+921730444+919492219+917216968+914761625+912828811+912340240+912264289
926+910515877+907335199+904324609+901557062+898429843+895096533+892187454
912+890760958+889363674+885813392+882823615+881856624+879758178+876732690
899+875078340+873987052+873344607+872123399+867035834+862042989+863554564
885+868545292+871251420+872066581+873639502+875911832+877313717+878286039
872+880630157+884375503+887751901+890747593+895487243+902050015+909793756
858+919154966+928551888+936605787+945149353+954859720+963887986+973838987
845+987111905+1000179536+1009452891+1015552579+1021178011+1027447056+1031444209
831+1033365703+1035633578+1037191454+1037107178+1035415145+1031526660
820+1027406816+1028816223+1034889986+1036704928+1034620651+1034529436
808+1034865521+1034992447+1036113166+1034581872+1030243522+1027274413
797+1023608012+1016693382+1011019678+1009522270+1009455812+1007843163
785+1004555934+999373942+990944595+981415123+974244376+968803054+964060629
772+961309149+959896748+957519036+954675319+950764706+943701897+937648437
758+936932962+939256851+941783836+943357196+942751777+939643545+935458777
745+932538525+930711167+926767253+921555975+920861970+923815963+924170889
731+922430656+920718393+917734386+914272542+911388367+907974651+904389971
718+903071559+904592410+907365288+909744534+911581750+914858755+919581535
704+923690935+926274300+928332798+931730228+934086835+934105750+937210768
691+943412333+947105828+946882502+942448702+936364715+934724533+937273136
677+940340982+943515087+944874030+942356100+938983499+940224718+942621564
664+941337331+941074423+947351866+954830216+953910402+947988104+946199379
650+948323312+946401380+938329004+933330317+934169359+935525746+940784785
637+951262041+956904415+955518597+955891269+961724471+966642825+966235172
623+967316966+967549347+959545035+955642456+963954151+971169812+963120732
609+944381150+936457755+946963857+962211727+975223928+987183328
##END=
