##TITLE=Sample description
##JCAMP-DX=4.24
##DATA TYPE=INFRARED SPECTRUM
##DATE=13/9/2023
##SAMPLING PROCEDURE=Instrument type and / or accessory
##ORIGIN=Default
##XUNITS=1/CM
##YUNITS=ABSORBANCE
##RESOLUTION=4
##FIRSTX=4397.6552
##LASTX=599.8556
##DELTAX=-1.9287962
##MAXY=1.6599915
##MINY=0.25530618
##XFACTOR=1
##YFACTOR=1.5459876e-009
##NPOINTS=1970
##FIRSTY=0.28892264
##XYDATA=(X++(Y..Y))
4398+186885487+185313854+184271420+183885182+183720150+184546294+185835515
4384+185838541+185012147+184780126+185659630+187038779+187021641+185383696
4371+184204702+184614882+185821790+186399508+186134986+185620497+185160581
4357+184854093+184528694+184968619+186376549+186879877+186289455+185526135
4344+184425272+184026349+184406071+183659754+182612597+183239434+184555855
4330+184668087+183715658+182921688+182400837+181832661+181698029+182359430
4317+182930710+182751991+182748887+183248282+183829047+184441156+184690545
4303+184314119+183658328+183544091+183731176+183404042+183606376+184562313
4290+184510265+183222779+182683267+184227063+186500791+187459311+186600492
4276+184572106+182581927+181402316+180784116+180258310+179857248+180136112
4263+181127828+181922203+182626246+183796642+183990012+182422890+181347164
4249+182307015+183593537+183249015+181918560+181189419+181173168+181203780
4236+181112696+180991750+181099838+181638771+182372635+183053853+183400052
4222+182771287+181579146+181636939+183005563+183694357+183014180+182171708
4209+181994339+181795359+181587725+182075033+182475247+182409550+182318196
4195+181911678+181425025+181638867+182273858+182249607+181394143+180779528
4182+180795431+180437473+179562615+179270951+179783378+180627122+181228899
4168+181252667+181365111+181642375+181539975+181197804+180392422+179535338
4155+179680958+180080382+180148797+180564066+180853938+180435796+180197568
4141+180756742+181361699+181170257+180355121+179857113+180218310+180614148
4128+180175978+179745498+180220277+180517897+179767243+178975374+178781040
4114+178878853+179348234+179985538+179913673+179298498+179215896+179389082
4101+178819961+178041104+178161876+178767296+179166276+179651946+179971022
4087+179722154+179622972+179968940+179885701+179347250+179111240+178979904
4074+179161592+179968478+180564953+180801427+180616693+179527107+178248334
4060+178007677+178946285+179953943+180319265+180182339+179702761+179189640
4047+178711970+178421597+179008319+180235101+180791132+180526206+180507700
4033+180833041+180967403+180864463+180524934+180000497+179649440+179899754
4020+180676240+181192985+181009601+180640867+180466697+180316123+180210195
4006+180172662+179959861+179674423+179725045+180198455+180711884+180776790
3993+180547893+180682756+181116474+181158113+180851104+180959153+181765499
3979+182564983+182381386+181396861+180709012+180587315+180581223+180762641
3966+181437208+182263179+182871201+183062971+182672279+182203573+181863138
3952+181126672+180284373+180352364+180569406+180048420+180661301+182631836
3939+183672824+183025862+181060647+179364022+179938579+181598327+181522471
3925+180348856+180538813+180964570+180421184+181008425+183787948+186144933
3912+186330361+185038653+181635378+175803348+171392588+171479451+175156482
3898+180349010+182970267+180937466+178615661+180449540+181312273+178598080
3885+177275143+177315953+178184738+181696236+182350485+178613618+175108328
3871+173649679+175792726+178550851+178115051+178929590+183008898+185152986
3858+181859340+172323639+165141163+172840981+182998469+186852041+184869457
3844+180435603+176108256+172284602+171973237+176227254+179730173+181704622
3831+184211738+185501171+184782459+182040970+175778519+172552594+176110048
3817+179526355+184486785+190588175+191779507+187088514+182047062+180787200
3804+178968357+178370012+182421001+185320235+187575418+191236140+193711873
3790+194466113+193909484+192658143+192615328+192582730+191780895+193859864
3777+198045775+199493782+196811860+193392720+193957407+197204903+200548554
3763+202456651+201208182+200602742+203840696+206488324+206752769+214651277
3750+240697367+270470936+297198803+322677738+335590575+335504522+328269748
3736+319555910+318216819+326984536+337703473+342529753+342651508+344262890
3723+348962596+354856100+360933510+366261383+370424373+376880078+392475801
3709+417792866+448904312+481908278+510806624+529785073+538429666+538332586
3696+531076414+517476923+497788687+480058052+473904690+473079279+468962477
3682+461084230+450535009+436198203+421450755+416750663+415332285+408602959
3669+405002246+405893663+404688953+400994708+395788397+388391154+379906523
3655+373755089+366577336+354039441+344321300+347660266+355679276+359164094
3642+358040734+356172040+355215697+354408831+351798851+345244022+336096563
3628+333631664+336711121+334844625+325651941+313451917+306079330+302617876
3615+297693437+294034681+293720578+295192605+298596323+301334612+300284852
3601+297179237+294321101+291135427+288237890+286607038+283180669+275342325
3588+268653867+268622194+269644734+267686363+264372669+261534987+259481155
3574+257805445+254856456+248473233+240818794+238858418+242036439+243951938
3561+243491637+242183350+240359996+237929680+235718777+234211319+231974488
3547+229292046+228522211+229303207+229528307+228454046+226835397+225650273
3534+224802172+223678022+222016057+220173946+218772069+218089482+218110649
3520+218236298+217955930+217793866+217541181+216124345+214291159+213566240
3507+213139134+211742963+210764336+211332898+211858781+211506779+211136676
3493+210819180+209779213+208324825+207602508+207540532+207262304+206816499
3480+206572893+206332429+205960495+205653756+205631298+205651828+205156963
3466+204203667+203336443+202960403+203046572+203280790+203444280+203406535
3453+203359113+203079285+202031087+201022716+200917693+201426766+202163637
3439+202503417+202154827+201667557+201443788+201507055+201599798+201443942
3426+201112952+200649008+200285979+200584333+201259710+201522265+201485523
3412+201530439+201506766+201418361+201531634+201961650+202606627+202829510
3399+202334163+202107772+202574010+202972335+203061550+203103825+203308607
3385+203826161+204538107+205218380+205656898+205549023+204927545+204672758
3372+205415046+206326974+206499813+206401789+206716489+207141995+207235297
3358+207283644+207681179+208258782+208741386+208973426+208666552+208128564
3345+207977007+207895040+207669497+207625390+207609872+207544175+207427105
3331+207071440+206790398+206628701+205954481+204895911+204203802+203762836
3318+202963776+201883404+201011381+200225372+199114349+198048705+197339651
3304+196364668+194834347+193686543+193677984+194001166+193634398+192954973
3291+192757305+192770432+192622673+192765844+193154242+193214753+192977874
3277+192813305+192831734+193146319+193960144+194702818+194561054+194068174
3264+194273669+194894048+195188777+195326686+195711729+196365593+196836188
3250+196846424+196746645+196654250+196415212+196065987+195860723+196119269
3237+197056835+198389468+199201733+199500607+200096581+200534694+200211184
3223+200148668+201251170+202693220+203478092+203957458+204548112+204817530
3210+205098785+206360902+208106029+209401669+210581164+211817817+212488432
3196+212696395+213272128+214462052+215696236+216506245+217137959+217865173
3183+218560405+219144177+219891246+221214337+222782191+223564537+223506281
3169+223872587+225156892+226374556+226953836+227425569+228282036+229550842
3156+230865529+231592144+231757870+232061641+232686704+233331218+233757167
3142+233892397+234066702+234376949+234127078+233457368+233589109+234249739
3129+234344467+234195782+234275840+234464217+234652150+234382539+233396048
3115+232276466+231656627+231596289+231707094+231350562+230075086+228182257
3102+226537217+225728403+225521636+225432344+225507101+225762505+225918438
3088+226093649+226452725+226876265+227378764+227866246+228233862+228570191
3075+228679647+228533873+228522847+228766029+229159110+229619296+229962854
3061+229927750+229662477+229676992+229927635+230031558+229823306+229213915
3047+228571907+228515251+228714771+228215819+226891513+225317972+223847777
3034+222534402+221461451+220637235+219719775+218552000+217336939+216238620
3020+215489546+215162836+214838304+214076045+213030546+212169144+211617122
3007+211194546+210812626+210460258+210082328+209987272+210572837+211891051
2993+214168113+217240225+220255585+222788070+224792495+226189938+227113972
2980+227801474+228285544+228424552+228088724+227110174+225458253+223570706
2966+221934051+220732060+220114534+219890012+219587418+219358790+219490492
2953+219596536+219349903+219075531+219215792+219604131+219643572+219255098
2939+218866392+218468222+217761423+216968185+216510197+216253965+215877481
2926+215493402+215230576+214914738+214354427+213580852+212903991+212599469
2912+212659961+212919490+213369227+214114175+214971144+215586279+215861230
2899+216016508+216081530+216076036+216556906+217565412+218289040+218401118
2885+218437899+219012109+219920759+220405967+220354072+220180038+219953608
2872+219624314+219321469+219124244+219052417+218959656+218658700+218314293
2858+218156124+218057964+217739447+217143820+216402168+215779514+215677923
2845+215998233+216190176+216338476+216846334+217532795+218162986+218893593
2831+219733366+220399701+220767626+220991242+221249634+221524931+221802677
2818+222196067+222501650+222556647+222695925+223116342+223699073+224294411
2804+224808688+225192304+225481771+225865908+226392098+226975870+227596480
2791+228162093+228409824+228195578+227912550+227912183+227954381+227810766
2777+227558273+227233144+226857392+226656505+226649758+226535906+226417429
2764+226602606+226806963+226693478+226496581+226424889+226435877+226549131
2750+226734269+226754568+226445438+226103037+226024154+226017562+225887402
2737+225690254+225503342+225369616+225329963+225312960+225149258+224892775
2723+224717545+224579790+224446604+224312589+224068173+223918948+224075229
2710+224251403+224271394+224198853+224036135+223916404+223864008+223638581
2696+223301692+223173576+223217624+223158520+222886538+222502401+222213822
2683+222112713+222017618+221676180+221155888+220692946+220238698+219641086
2669+219045401+218654459+218320462+217883660+217550395+217462896+217356544
2656+217013872+216605677+216337358+216303372+216526197+216775779+216806025
2642+216660771+216515383+216489166+216511026+216459768+216459672+216557195
2629+216668309+216937303+217332544+217620854+217884990+218311537+218832233
2615+219199965+219389055+219716151+220253542+220744590+221203272+221758957
2602+222318227+222833102+223381134+224048780+224748080+225268507+225681290
2588+226143538+226536543+226773537+226966540+227183100+227507111+227977938
2575+228430181+228776380+228998049+229065192+229088941+229164276+229186407
2561+229014955+228746443+228562905+228519550+228657980+228979562+229305289
2548+229459854+229515372+229507044+229369020+229243602+229260431+229354504
2534+229448307+229524953+229620047+229751229+229820704+229740106+229620163
2521+229595990+229679479+229906603+230277824+230605344+230715571+230672043
2507+230620168+230638327+230807562+231223603+231772290+232123694+232257883
2494+232461758+232833577+233362043+233977988+234497913+234899323+235305898
2480+235732272+235993169+235893005+235506747+235084808+234837751+234807274
2467+234890744+235026803+235148134+235160683+235065415+234948904+234929414
2453+235072278+235319681+235500058+235559644+235688994+235938171+236159281
2440+236418945+236823496+237115989+237084201+236995198+237120539+237289793
2426+237223768+237022668+237011276+237247865+237543539+237766595+237890663
2413+237924398+238009237+238307764+238705665+239073860+239401919+239637506
2399+239902163+240395698+241272271+243221871+248094667+258699984+277770675
2386+306881339+345626058+391635547+442217666+496066616+553318880+614253708
2372+677371293+739056274+794648038+840633430+874669113+894941563+901038636
2359+890304855+857689980+808612370+752405431+699926705+672008914+681763258
2345+723215190+761354682+768327325+757613053+745878092+738408328+735513586
2332+734730314+732009067+725730018+715260412+699077197+677700239+653957660
2318+628641444+603786415+586282866+577934216+568625368+547925002+517248026
2305+486554394+463730181+447603756+433195663+418625603+402907122+385460055
2291+368171176+352884775+339335173+327414071+318563693+313483744+310949775
2278+309424813+308157240+306827421+305538740+304628721+303862220+302874514
2264+301795511+300723814+299532829+298229343+296983958+295871895+294825644
2251+293802718+292754751+291580808+290457525+289725088+289293471+288839473
2237+288313977+287875459+287646523+287541443+287349172+287146511+287183234
2224+287376545+287484324+287456449+287398097+287426184+287618359+287957522
2210+288303721+288657246+289156564+289741878+290251028+290789536+291509251
2197+292228599+292832997+293451815+294121814+294818569+295578554+296398857
2183+297214090+298082644+299058668+300002403+300858773+301758421+302748942
2170+303757911+304793174+305867474+306975933+308115678+309127365+310023447
2156+311021023+312093896+313198557+314382737+315500892+316491547+317582927
2143+318898075+320265948+321543564+322848611+324287809+325771344+327212663
2129+328557672+329844078+331249040+332792797+334420256+336179494+337979831
2116+339765903+341663320+343633797+345689210+348071950+350747588+353459660
2102+356239433+359328412+362918291+367131440+371984207+377403377+383310608
2089+389546823+395932706+402447978+409154518+416173696+423528837+430917482
2075+438133789+445282549+452376638+459181068+465515597+471705624+478182148
2062+484768900+491083265+497137696+503157814+509141652+515139639+521481763
2048+528230559+535103230+541724025+548118931+554799447+561744485+568556857
2035+575075521+581211457+587205164+593296608+599282720+604970460+610234294
2021+614957210+619477137+624387620+629551521+634254157+638265435+641751564
2008+645085017+648702077+652343695+655407383+657836466+659927503+661665382
1994+662860106+664052362+665915851+667959775+669375879+670056364+670407980
1981+670943501+671749597+672397388+672664802+672810383+672908388+672683693
1967+672544820+673288843+674297427+674689834+674896871+675351427+676060597
1954+676962539+677520345+677411930+677162251+676940795+676774934+678279789
1940+681942767+685606208+688429470+691018553+693769025+697220494+701418067
1927+705199484+708202950+712115606+717044942+721606546+727339202+735221498
1913+742895908+749348066+755639761+762330494+769266665+776399463+783494940
1900+790170097+796380211+802617390+809082888+814484053+818758658+824123273
1886+830008373+834088818+836631019+838782278+840871542+842886627+844457411
1873+844380071+841676712+838668851+839332450+842122556+842786386+841146589
1859+839656538+838091152+834782335+830521841+826393049+821476281+814941385
1846+807602321+802611915+801539177+800305127+796457782+791459742+786233691
1832+779200904+771209884+766241069+762890304+759357101+757650374+756404758
1819+753658141+750394973+747450341+743988078+740126159+737660373+736497340
1805+734947299+731819533+727622731+725182699+725290652+724615949+721099093
1792+719023246+722462917+726327380+726440190+724581405+723331779+723445746
1778+724374368+723457929+718844431+714086276+715617195+721414082+726354214
1765+728161182+727187066+727136020+728766255+730122831+731342924+730427025
1751+726427005+724533983+727891687+732505262+734715432+734292876+734485186
1738+736266014+735041603+732876233+737810195+745502958+751543432+755418536
1724+757472869+758484769+756226251+750078827+749385310+759260021+770397080
1711+777054888+778456958+776754163+776447424+776621073+774124598+774934703
1697+782392823+794017211+806583174+813802334+815870855+814891573+810529295
1684+810938358+822679719+834296704+840463559+843018560+846048089+849247334
1670+852310560+860399121+870002641+874060030+875828752+881575288+888055359
1657+889009890+882302964+878561335+888007783+894193839+896764185+905649975
1643+915728099+920107032+919271326+914429123+911594834+918088785+925784940
1630+928847318+929676160+929598897+928684232+931157344+934653150+933489192
1616+933299350+939556423+944843930+946442858+947676368+950357673+953310942
1603+955613643+957618626+959140755+959961347+960731047+961418241+962298207
1589+964461418+967143494+968584967+969296913+970892526+971637011+969066434
1576+968719599+974319473+976885809+974897944+976120504+981106284+985129437
1562+983212511+970391010+963411119+979417446+995076167+1004337400+1011400723
1549+1018436904+1022715441+1020663807+1013217639+1006523667+1014943026
1537+1030575915+1036273949+1037479623+1043964707+1049805546+1051037822
1526+1050732086+1046398801+1039373262+1039928754+1046483004+1054049231
1514+1061239089+1063518966+1057516738+1044866957+1041543335+1056765698
1503+1069102725+1070758174+1066348089+1065142569+1069434678+1070565633
1491+1065719343+1062713333+1067204228+1072991863+1073741823+1071044094
1479+1068798607+1065141644+1058633967+1052772154+1051851783+1054078301
1468+1053290171+1049179808+1047249466+1046055358+1037667460+1022077751
1456+1014765290+1019425208+1022540559+1020641985+1015097552+1008781182
1445+1003283862+997276159+989990223+979018100+964679867+956868126+954421926
1431+947977709+939471603+934511886+932635366+933707795+935497029+936657362
1418+943788310+954451150+962134273+967775787+971128941+970479762+968788226
1404+972208002+979856735+985446817+988241472+991934754+998956129+1007237540
1391+1012145363+1011997237+1009677032+1009434063+1011282284+1014426165
1379+1018219534+1020269318+1020523314+1022731172+1027057131+1029405018
1368+1029289509+1028186775+1027249826+1028807733+1031800558+1033361549
1356+1032455520+1029519679+1027565510+1028027160+1027976423+1024788435
1344+1019077061+1012054452+1005827528+1002333496+999752972+997884548+997241460
1331+995222983+992846180+993407301+996095469+998812399+1001006145+1002704004
1317+1004909085+1008014797+1010274472+1012259484+1015486412+1018742795
1306+1021915437+1024570294+1025160717+1025280158+1026028808+1025719756
1294+1024675625+1024958846+1026786094+1029633337+1034032396+1040088523
1283+1045200222+1046528961+1045910779+1045704282+1044243147+1040594357
1271+1036189438+1032061802+1028195643+1024007400+1019767494+1014899613
1260+1008056359+1001929600+999554879+998843088+996457803+992506593+988710448
1246+985806530+984628692+985353901+986210888+985720476+984414638+983807946
1233+984067417+984483959+985474113+986849966+987323492+986987220+986828530
1219+987289949+988597484+989937172+989924604+989585787+990711731+991954108
1205+991618145+990866796+990770025+991422366+992591181+992705996+991260823
1192+989662819+988659710+988095582+987536466+986236103+983411067+979717014
1178+976957058+975226736+973627421+972210547+971169115+970584707+970365872
1165+969607198+967400421+964226005+961070095+958053212+955755291+954593030
1151+953281332+951001609+948157990+945603452+943866421+941974710+939566524
1138+938023962+937097191+934939686+931984799+929363561+926180046+922511131
1124+919971860+917869719+914432439+910786656+908138508+905687681+903056651
1111+900048018+896790479+893261054+889181997+885661593+882897781+880543032
1097+879653736+880125256+880297749+879676483+879435980+880020697+880708662
1084+881422998+882177045+882836403+883916235+885412840+887096126+889632158
1070+893163665+896479730+898176587+898086216+897902080+899530849+902564696
1057+905323650+907314600+908454963+908853847+909591778+911218312+913037849
1043+913969863+912993897+910848266+909429464+909167217+909823490+909476577
1030+906511203+903654707+902485891+901699689+900579684+899184322+897862369
1016+896112075+893516207+890719161+888851045+887441419+884495091+880317797
1003+876374606+873833253+873294185+873630457+874658703+877779066+883125329
989+889857161+898592512+908541864+914697308+915741284+916460093+917697998
976+916397557+913252905+910442905+908432909+907089982+905307072+903091967
962+901525038+899865964+897590714+895873038+895547099+896104287+896220336
949+895182374+893534944+891357237+888280903+885591809+884079320+882112351
935+879359334+877061877+874343405+870670017+867567775+864584049+860003785
922+854091311+848974138+846258596+844136176+840517381+836872447+834446989
908+832031555+828757745+825071558+821008925+816574473+813435681+812650405
895+812364023+810375463+807202975+804964891+804520744+805990207+809343747
881+812790666+814668651+815707307+817490295+820559689+823972834+827528245
868+832133107+837380980+843232614+850852046+860325405+871903990+886371226
854+902472937+917874654+933040804+949788071+966334006+980360641+992331016
841+1002806096+1011549620+1016258811+1016488055+1016329828+1017857508
829+1019540717+1018941504+1016778756+1018296257+1023845548+1026858113
818+1026565485+1027701144+1029672971+1029569954+1026968147+1023028426
806+1020304171+1019168281+1017007846+1013748687+1011711395+1009654748
795+1004647918+998161831+992945805+988629715+984477405+980500671+975648058
781+968595685+959680208+951267635+944050634+936534220+929460795+924140132
768+920338050+918208844+916846408+914402212+912270076+912190114+911343845
754+908011895+905196266+905804655+908605556+909557079+907643855+904346142
741+901159851+900198381+901266107+901612865+899662166+895912132+890832742
727+885567135+883017763+884695034+887641593+886577954+882166327+879515865
714+880147001+883240222+887366700+892173973+898619192+904090449+905617512
700+906470721+909918026+914606474+919316898+923569989+926235410+927737953
687+930144442+933969040+937441097+939258166+939267496+937965514+937362137
673+939149597+940415184+935406349+925542896+920848742+919146410+915939531
660+914608556+919721488+926339122+929202481+932004307+935303948+934439944
646+929895843+927513798+930782441+932301947+926824445+923904719+926047419
633+927181613+927803804+927926561+924919163+920443612+918805049+918735883
619+914443388+904884901+897054731+898435287+907492259+919749093+933323485
606+942604998+941024112+934837517+936415780
##END=
