##TITLE=Sample description
##JCAMP-DX=4.24
##DATA TYPE=INFRARED SPECTRUM
##DATE=13/9/2023
##SAMPLING PROCEDURE=Instrument type and / or accessory
##ORIGIN=Default
##XUNITS=1/CM
##YUNITS=ABSORBANCE
##RESOLUTION=4
##FIRSTX=4397.6552
##LASTX=599.8556
##DELTAX=-1.9287962
##MAXY=1.7641056
##MINY=0.38047987
##XFACTOR=1
##YFACTOR=1.6429513e-009
##NPOINTS=1970
##FIRSTY=0.39221755
##XYDATA=(X++(Y..Y))
4398+238727429+238777766+238632595+238501610+237866600+237181544+236784815
4384+236329749+236446839+237693785+238649664+238520529+238699748+239418997
4371+239266662+238294312+238047596+238757250+239386745+239812135+240695111
4357+241736119+241532358+240486199+239732139+238206480+236487798+236804169
4344+238313286+239120258+239667563+240386885+239705275+237360073+235404253
4330+234751830+235075094+235744750+235650787+234905181+234396967+234177025
4317+234505622+235359521+235485917+234275795+233215396+233888843+235330970
4303+236238453+237173218+237915722+237370158+235898065+234342729+233342227
4290+233511614+234144066+234736611+236290259+237846211+237658159+236857590
4276+235918581+234148201+233473539+235033935+236430205+236050020+234986881
4263+234422307+234693094+235819630+236892890+237073559+236886523+236886432
4249+237414636+237846139+236411993+234365495+234569618+236245618+237131642
4236+236593806+235473855+235008141+235087628+235125957+235054759+235109885
4222+235413704+235078903+233988429+233582303+234089284+234323139+234411315
4209+235165374+235897775+235869060+234969504+233749205+233521173+234176445
4195+234680197+234675154+234094690+233448434+233185592+232795647+232555716
4182+233377091+234153117+234154514+234605317+235215149+235013419+234434370
4168+234006441+233656476+233066760+232623939+233079803+233733877+233569987
4155+233215377+233127836+232796010+232444721+232411797+232286181+232065133
4141+232530956+233852582+234519644+233471870+232435070+233014464+233720925
4128+232987545+231864982+231604934+232054921+232991282+234108839+234552604
4114+234227580+233863375+233268073+232086955+231583167+232458198+233407293
4101+233602765+233575483+233900180+234117165+233578802+232884567+232616810
4087+232550764+232825160+233944114+235471025+235911434+235022453+234459185
4074+234698880+234446633+233439509+232560886+232385677+232915513+233638318
4060+234308954+234591603+233880753+232984933+232886291+232805842+232371963
4047+232633970+233571964+234197704+234412675+234221957+233429224+232464728
4033+231956587+232044073+232467395+233118168+233853072+234105320+233846832
4020+233934319+234535026+234909408+234908954+234883341+235146183+235818070
4006+236088040+235352900+234624327+234568421+234401774+233820928+233581324
3993+234432756+236018910+237098338+237377577+237219328+236574015+235844608
3979+235573985+235509825+235466907+235716216+236013088+235912794+235891353
3966+236389246+236925341+237219782+237284739+237133129+237042940+237074430
3952+237246755+237640872+238385100+239242373+239261709+238701525+238602502
3939+238708237+238507995+237717639+236661176+236692176+237535028+237313454
3925+236529773+237136630+238397507+239072696+239776980+240873767+241531234
3912+241373547+240854938+239757154+237394157+235178815+235232236+236798637
3898+238615725+239663173+239246545+238891609+239994273+240565504+239758206
3885+239180880+239239924+239888847+241073773+240981498+239513214+237888041
3871+236625622+237124422+238569234+239509350+241184352+243054662+243255375
3858+241501648+237938977+235829171+239191111+242876187+244034957+243116155
3844+241506056+240208664+239009897+238438883+239520850+241198138+242390738
3831+243240882+243912152+244254372+243634056+241300009+239707125+240874402
3817+242245767+243959097+246150204+246975388+245913865+244274924+243609458
3804+243040694+243264082+245530033+247008366+247306960+248152951+249190149
3790+249767330+249822928+249563279+249843861+250263736+250193754+251124111
3777+253002275+253970018+253861035+253664204+254114335+255025719+256357684
3763+257401685+257122863+257376417+259655899+261921959+263193230+266569155
3750+275953409+287980445+305045365+330259058+349144132+357221072+357710150
3736+352183007+346807365+346065459+347742275+349269947+350977999+354074848
3723+358876484+365966599+374868742+383725028+391415779+398342748+406857576
3709+419475959+435790012+454021919+473323948+491255573+502849909+507141861
3696+506894002+503665969+496923914+487720728+481271010+479508467+477998462
3682+473366503+466052474+457842715+449734539+445553020+443196118+437536375
3669+432023054+428614061+424879790+420604563+415649794+409479786+402372330
3655+396904612+392103919+384515584+376851970+373753380+372235394+369457946
3642+365567784+361480554+357491387+353207961+348839932+344906417+340377092
3628+336688133+335159880+333120419+329150843+323547369+319302870+317422456
3615+315427183+313380032+311588538+309127987+307004540+305741087+304369850
3601+302751842+300905186+298690353+296303774+294304293+292687410+290248844
3588+287490715+286477224+286336552+285690079+284490023+282753021+280884053
3574+279763866+279012274+277156349+273979124+272083074+272436468+272818722
3561+272467450+271465696+270111056+269051637+268084819+266988613+265902981
3547+264895423+264174396+263628215+262833487+261742704+260806089+260187314
3534+259557257+258902675+258387712+257739406+256873735+256152998+255679865
3520+255298519+254787855+253988864+253053447+252464584+252378548+252311051
3507+251916898+251421145+251408067+251706570+251546544+251130278+251008889
3493+250987774+250586256+249649115+248483725+247765309+247853522+248410078
3480+248942019+249061032+248570740+247656237+247011903+247257403+247810277
3466+247608076+246678318+245928267+245809925+245958034+246016317+245913701
3453+245756867+245714366+245793164+245723672+245226577+244841240+245144732
3439+245603969+245871182+246219624+246518273+246635835+246709627+246694879
3426+246557599+246379306+246210047+246171482+246231034+246256357+246539786
3412+247135597+247365678+246919247+246338093+246446803+247583588+248944323
3399+249630613+249912174+250156151+250187895+250011379+249976025+250410521
3385+250888352+250930508+250895027+251047381+251401137+251854915+252161146
3372+252368426+252537686+252631993+252893275+253399621+253582757+253312569
3358+253400872+254048580+254498077+254394609+254112268+253992111+254093711
3345+254167938+253939289+253638990+253398514+253189148+253195515+253113942
3331+252550656+251946774+251678182+251065937+249810666+248789031+248324042
3318+247948283+247433302+246812840+245921411+244471502+243013195+242312448
3304+241719884+240160613+238295092+237774452+238498544+238839803+238333420
3291+237995264+238463517+239234029+239745109+240288097+240978178+241256202
3277+241242471+241578505+242148866+242699146+243455635+244065540+244063109
3264+244098118+244387480+244356606+244305253+244659028+245079393+245294709
3250+245424443+245652366+246083923+246623264+246893670+246912027+247113176
3237+247448249+247856134+248560763+249502348+250510542+251141343+251274850
3223+251678762+252376208+252527419+252215655+252417929+253337112+254022314
3210+254158179+254733999+256289008+258063614+259294143+259991245+260363503
3196+260645700+261356424+262725557+264281818+265615670+266453806+266742714
3183+266975443+267336528+267877993+268777966+269837966+270795659+271667934
3169+272726628+273727311+274163712+274437926+275002283+275630417+276292854
3156+277203203+278082044+278621948+279154379+279902398+280509400+280834823
3142+281023963+280995448+280850531+280681254+280360311+280157838+280356284
3129+280910482+281483800+281657703+281629605+281613805+281253156+280277631
3115+278939916+277990784+277842766+277906816+277446926+276387760+275164341
3102+274305091+273860854+273332306+272565422+272157628+272597166+273492876
3088+274146642+274495374+274658539+274517015+274324337+274543734+275146093
3075+275630037+275775878+275804357+275866975+276146813+276733717+277298871
3061+277428423+277393414+277801879+278175209+277948537+277601003+277199920
3047+276425127+275624341+275000160+274166705+273170102+272491485+271983216
3034+271086000+269907513+268940695+268098696+267065107+266019437+265359177
3020+265066750+264882126+264735958+264486921+263868582+262839618+261752355
3007+261051589+260795913+260746138+260789909+261046075+261433244+262144712
2993+264015639+266922004+269776636+272175223+274072216+275202325+275820683
2980+276492516+277039313+277030878+276453244+275361917+273991713+272700742
2966+271663598+271004445+270743980+270651885+270355577+269745201+269141500
2953+268779562+268673827+268799189+268963841+269075055+269137055+268956676
2939+268371931+267324393+266150930+265517190+265428869+265445993+265408716
2926+265168277+264663618+264104776+263585896+263131809+262892132+262831165
2912+262734337+262703735+262981723+263416781+263888662+264556686+265122693
2899+265193400+265201781+265623470+266311828+267105449+267840734+268206154
2885+268276155+268484142+268867212+269008247+268884554+268821446+268876119
2872+269066348+269331529+269425002+269256958+268859213+268469032+268350762
2858+268315118+268063687+267528408+266870361+266390589+266131376+266011093
2845+266125245+266513267+267058051+267579344+268014855+268368938+268596607
2831+268877026+269464818+270142927+270479796+270593458+270866984+271314467
2818+271797704+272114982+272178397+272298082+272622344+272926978+273232466
2804+273855685+274792663+275593268+275970370+276191563+276562679+277039476
2791+277601111+278113063+278183244+277842584+277648691+277864515+278131347
2777+278212322+278225727+278094125+277764657+277390584+277013990+276795101
2764+276944969+277263898+277464575+277579652+277812872+278136154+278222117
2750+278115257+278144879+278197865+278125053+278124073+278274141+278411548
2737+278387949+278266360+278268645+278409643+278500141+278427692+278223514
2723+278107312+278133433+278095921+278075387+278220140+278369900+278436254
2710+278483761+278510300+278563358+278611246+278459309+278194309+278013422
2696+277960147+278091277+278225800+278174120+278042246+277828853+277525669
2683+277290527+277120668+276873699+276515643+276157896+275925583+275763108
2669+275525970+275185492+274842963+274615911+274361831+273848846+273228892
2656+272858484+272748341+272589928+272432187+272520563+272639014+272541042
2642+272310689+272135534+272140667+272208708+272212681+272228626+272298517
2629+272438300+272640937+272745493+272681079+272638542+272838639+273246941
2615+273607409+273778755+273885833+274130480+274524960+274965224+275432806
2602+275943197+276483990+276974265+277423888+277965298+278503153+278886767
2588+279224524+279611531+279996288+280377199+280736216+280973517+281142088
2575+281400122+281728556+282024683+282241196+282259681+282125104+282139053
2561+282327722+282480711+282487150+282302798+282065080+282042206+282302708
2548+282648973+282859518+282875045+282774407+282773881+283057946+283434885
2534+283660703+283869398+284147042+284356571+284441283+284493978+284629026
2521+284809605+285010174+285219612+285354734+285461593+285584960+285785910
2507+286107559+286376858+286590687+286865899+287054369+287126528+287334225
2494+287792647+288392665+288871911+289144275+289584594+290271029+290776269
2480+290969599+290903172+290579564+290287409+290285268+290405987+290424453
2467+290387231+290427246+290544210+290674016+290745141+290680057+290621974
2453+290787315+291091352+291349568+291413074+291249818+291206991+291609198
2440+292290282+292865613+293111875+293046863+292845387+292710393+292685977
2426+292706003+292822278+293037720+293189693+293214889+293229219+293289098
2413+293356141+293508695+293741297+293954491+294248315+294597954+294814848
2399+294960653+295218615+295541172+295750901+295896670+296013833+295913158
2386+295550967+294874744+293547713+291361812+288546506+285510552+282384771
2372+279090002+275855801+272962024+270280806+267838503+266230563+266031083
2359+267213270+269715397+273637303+278723294+283659923+286097945+284956426
2345+281971734+280133858+279835191+280378596+281848404+283571094+284727216
2332+285714367+287444531+289795647+292012040+293984748+296103242+298578486
2318+301219108+303606612+305573478+307352202+309163431+311069712+312962388
2305+314634959+316176817+317740369+319172664+320330908+321390944+322615978
2291+323938601+325186382+326317017+327280841+328139928+329050132+330056077
2278+331030386+331872059+332645890+333373248+334053443+334796800+335616125
2264+336347945+336942377+337525308+338170494+338828051+339424405+339961262
2251+340407893+340671931+340868056+341279568+341919131+342492702+342848708
2237+343135566+343463057+343766349+344144703+344631204+344952890+345146657
2224+345421144+345714351+345999104+346295939+346521522+346636164+346858264
2210+347448233+348249419+348967199+349531700+349954750+350376602+350935771
2197+351545149+352207313+352995511+353747212+354337581+354909519+355648740
2183+356550419+357444587+358172054+358778167+359535601+360511832+361493071
2170+362464441+363484063+364470199+365457568+366538066+367680601+368816025
2156+369921265+370937113+371852106+372925638+374275145+375613985+376894634
2143+378277917+379560924+380676213+381939666+383320009+384635958+386068725
2129+387644032+389065806+390277598+391605554+393255342+394974496+396574255
2116+398212433+399978060+401862682+403798603+405735539+407794989+409949817
2102+412103920+414371720+416849613+419539194+422345883+425140999+428038422
2089+431138064+434276307+437524149+441072526+444754483+448479430+452420999
2075+456607161+460942140+465504044+470356942+475366492+480558417+486022870
2062+491727599+497667852+503671302+509666190+515868703+522166739+528302789
2048+534541473+541327461+548526268+555470542+561962526+568651649+575745102
2035+582719742+589581335+596393118+602752321+608942209+615450880+621956069
2021+627980707+633487425+638917884+644555279+649852740+654570245+659554545
2008+664881247+669287187+672732677+676346792+680021928+683123420+685989970
1994+689105393+692223429+694878907+697203594+699629281+701989738+703703558
1981+704847653+706143684+707795032+709190396+710024595+710612533+710994406
1967+711176599+711544178+712299797+713170275+713698353+713921831+714099744
1954+714124849+713990834+713955861+714228897+714804572+715760524+717287290
1940+718714433+719374058+720128226+721882244+724126826+726149816+728325396
1927+731238673+734251281+736742561+739572396+743344034+747832909+752769974
1913+757547846+762077789+767311471+773350982+779092498+784272125+789208392
1900+794088934+799690050+806330778+812902720+818558255+823614750+828568213
1886+833533286+838241721+842550796+846574791+850109092+853042250+855422008
1873+857012625+857830934+858759314+860902097+862929295+862917396+861964274
1859+861591108+861197771+860665921+859985472+858197570+855631846+852807597
1846+848664462+843695689+840453652+838228007+835516877+832732608+829822887
1832+825739104+820587485+816611741+814338208+812283727+809979140+807238914
1819+804422647+802021049+799630988+796761028+793539162+790935345+789147733
1805+787600506+786022877+783957949+782138774+781705748+781225486+779196184
1792+777496367+778321134+779585893+779361979+778628272+778843334+779921111
1778+780989673+780826562+778657948+776213469+777040848+780045403+782272208
1765+783111487+783273146+784321972+786053569+786959093+787516557+787840020
1751+787216529+787212756+789195912+791466180+793085384+794239420+795075360
1738+796175195+797105389+798134189+801025988+804652511+807632106+809360800
1724+810682009+812795697+813829503+812303754+812401634+817052458+822446348
1711+826425212+828812734+830334130+832358572+834068546+834655033+837179108
1697+842286177+848801742+855821948+860549538+863065777+864678016+865299258
1684+867927600+874973708+881242649+884947243+887941495+891779233+895422009
1670+899220493+905958739+913287679+917219525+918948438+922117844+926475606
1657+929445769+929278450+929425597+934798083+938672464+940470306+944266179
1643+948517861+951515885+953165202+952484753+951987585+955442290+959753760
1630+963295317+966280063+966948758+965059420+964918294+967509704+969315745
1616+971405852+976361201+980543518+981666426+981491924+982255597+983566575
1603+984317043+986018383+990290527+994793840+996279465+995475450+995436414
1589+997193188+999670609+1002240832+1005288631+1008502589+1009858916+1007141618
1576+1004138587+1007217296+1010905057+1009990754+1007872785+1009400422
1564+1014139766+1016618638+1010100026+1003465031+1012294253+1023695584
1553+1032002389+1037628465+1040124896+1039448292+1037042123+1035245587
1541+1036433144+1044014731+1052624320+1055718194+1055551020+1057443043
1530+1059917562+1058927580+1055393642+1053347869+1054270154+1056714271
1518+1058781303+1060864879+1063193121+1064103579+1062069633+1057688870
1506+1057517198+1064987263+1070564725+1070745540+1068318474+1067066123
1495+1067519683+1068646944+1069968661+1072037000+1073741823+1072610716
1483+1069738434+1068342201+1068958871+1067923033+1062777291+1056122342
1472+1053403158+1054763403+1054882253+1051317405+1046558978+1043083739
1460+1037524417+1027366077+1021395495+1023713869+1024280112+1019001516
1449+1009898315+1001913087+996793466+991188650+984009614+975972290+965767441
1435+957301299+953317138+949045430+942127531+935136784+932272339+934415775
1422+936730521+937448047+942366102+951121605+958745711+965638795+972355418
1408+976852492+979365974+982072025+985297737+987762678+989648316+993721940
1395+1001260718+1007621444+1009188552+1009326558+1010738029+1010916013
1383+1009629560+1010417177+1014301498+1019612672+1025265595+1030181328
1371+1032914153+1033208448+1032456747+1031229211+1028650426+1026846271
1360+1028269206+1030942679+1031510518+1029001244+1025968972+1024439812
1348+1024156473+1023811097+1021471754+1016280518+1009677303+1004351762
1337+1001492106+1000114664+998884733+996823505+994974074+995760603+997861157
1323+998513091+999423041+1001958799+1004713174+1007615422+1010958895+1014083316
1310+1016987305+1020264098+1022929372+1023425378+1023269451+1023985599
1298+1024550245+1025508374+1027289600+1028292788+1029758314+1033968784
1287+1039687806+1044701565+1049408331+1054725383+1058914737+1060527412
1275+1060839049+1061380549+1061538871+1059040843+1053761014+1048093943
1263+1042556460+1036696239+1033251548+1033389045+1033551865+1031522200
1252+1028204702+1024835471+1021708946+1018950508+1017286970+1016934120
1240+1017237848+1016363306+1013600805+1011178746+1009605398+1007413275
1229+1006153668+1007456447+1008190807+1006194446+1004430560+1004399868
1217+1004243361+1003642072+1004242200+1006522118+1008764596+1008946571
1205+1008288978+1009079207+1009555188+1008348040+1007411751+1006753433
1194+1005238058+1003786535+1003231394+1002620673+1001706297+1001254406
1182+1000165673+997939955+995859935+994061802+992692632+991967125+991465096
1169+990732840+988750483+985886400+983425377+981520875+980669696+980429384
1155+978894129+975536580+971719665+969585371+969113962+967318876+963908577
1142+962718335+963890437+962840596+958961571+955389903+952808507+950173852
1128+947095869+944871820+944722569+944082389+940562818+937066827+934949947
1115+931489002+927160118+923394357+919158493+916026744+916366751+917209802
1101+914742902+910003703+904468324+899344785+897160136+897770857+898910018
1088+900266852+902592264+903820889+902537120+902327573+905131142+907839733
1074+908048990+907363244+907895675+909201574+909710061+909458575+910716295
1061+913663747+916284325+918537396+921021855+923343277+924332387+924345375
1047+925214693+926545842+927230064+927259523+927622386+929455782+931468178
1034+930759939+927390345+925845730+927721282+927894841+923952038+920543988
1020+920307667+919555821+916336857+914356531+914686452+915061069+915921752
1007+917235633+916400055+913577258+912401745+913617092+913474733+911839276
993+911930046+912739866+913827365+917504315+922640262+927408557+932218573
980+936613557+939175944+939989899+940701403+941072538+939795299+937206501
966+934473096+933471215+934577870+935530774+934777694+933428696+933183232
953+932799545+930927476+929004180+927116076+925202503+925349868+926928803
939+926908415+925011893+922732991+920484563+918272705+916146537+913717658
926+911522923+909931145+907066554+902593280+898780139+896851184+896264625
912+895236695+892917669+890674030+888839328+886581758+884783843+884015453
899+882862434+880212397+876511068+873689722+873072761+873758507+874539884
885+875802901+877478194+877236430+875423350+875808706+879594638+884752280
872+888601047+890424793+891814424+894726250+900286806+907315791+914567602
858+923502904+934186709+943750364+951604769+959350773+968210324+979371706
845+990950442+999628453+1006759890+1014197232+1020166217+1024455194+1027775957
831+1028845607+1029538028+1033251040+1037885175+1040234676+1043313458
820+1048225563+1048862332+1043720871+1037575425+1034301535+1034116947
808+1032547445+1028328994+1026478039+1028105806+1028676837+1026642310
797+1023906075+1020860090+1016622919+1010665471+1005237768+1004288419
785+1006503325+1003573650+991720427+978565006+970288386+965189081+961325076
772+958523321+955355365+950590118+945241286+941781284+941589949+942676215
758+942297607+941504983+942133553+942565927+941534007+940282889+939794936
745+939493675+937446378+934170166+931881904+929358554+925873665+923981932
731+924214045+923173854+918582527+912603602+907415268+902633622+899358644
718+900442080+905356580+910648091+913964790+915520144+916324740+916754356
704+918476883+922296119+927484308+933644556+937438905+937388332+937682047
691+938233560+936177846+934304108+934286767+933339594+932121200+935077432
677+942172372+947447920+948995075+946468024+936601077+930276848+937137499
664+943694929+942378872+935209487+929667216+928735353+930052789+933981878
650+940957388+946661246+949252075+951570522+952216433+948924331+943032330
637+934914829+928691600+933447924+946325448+945858319+929621214+925820770
623+941570721+947856132+938702357+941773158+950510086+941984882+931972601
609+934409608+939248429+943741657+957275251+974095360+974763619
##END=
