##TITLE=Sample description
##JCAMP-DX=4.24
##DATA TYPE=INFRARED SPECTRUM
##DATE=13/9/2023
##SAMPLING PROCEDURE=Instrument type and / or accessory
##ORIGIN=Default
##XUNITS=1/CM
##YUNITS=ABSORBANCE
##RESOLUTION=4
##FIRSTX=4397.6552
##LASTX=599.8556
##DELTAX=-1.9287962
##MAXY=1.7292722
##MINY=0.35381719
##XFACTOR=1
##YFACTOR=1.6105103e-009
##NPOINTS=1970
##FIRSTY=0.39475399
##XYDATA=(X++(Y..Y))
4398+245111128+245133575+243789268+240904670+239227109+241225341+243806200
4384+243558586+242388910+242216371+242332711+241559169+240643954+241338721
4371+242678975+243141042+242818353+241969719+241317718+241547641+242120793
4357+242048550+241750473+242312300+242914172+242423256+241784948+242335413
4344+244030535+245223860+244523117+242956493+241969645+241751990+241578859
4330+240483091+239353349+239167875+239142615+239859328+241462389+242012206
4317+241625139+241241329+240677726+240291677+240428354+240811960+240500875
4303+239722966+239909754+240238309+239609531+239135287+239862992+241302044
4290+241796624+240908667+240311940+240814755+241699918+242295202+241560668
4276+239539360+238189576+238064631+238290687+238510396+238512376+238285228
4263+238445740+239374741+240227372+240151835+239676611+239791637+240300263
4249+240352909+240058885+239628202+239086546+238980642+239567062+240296544
4236+240539161+240378835+239896764+239469856+240117657+241436260+242105341
4222+241702527+240733463+240455186+241176562+241657208+241304672+240476855
4209+239671726+239565286+239950409+239909495+239372298+238795001+238517298
4195+238644001+238936748+238946908+238221294+237313906+237351416+238082785
4182+238752662+239282105+239351887+238975609+238784897+238765578+238972389
4168+239915435+240532018+239669209+238967744+239429848+239354977+238408711
4155+237743109+237256115+237241478+238251272+238887877+238535636+238060505
4141+237543071+237498233+238180749+238482028+237871422+237038461+236636053
4128+236210441+235717470+236120396+237177673+237771421+237728786+237441590
4114+237064590+237003838+237126859+236533203+235878241+236285811+237163665
4101+237804360+237995923+237401027+236715439+237268403+238508619+238657084
4087+237698142+237158169+237529932+237772883+237530080+237811484+238505566
4074+238294351+237454802+237192588+237320050+237188184+237106818+237351249
4060+237365831+237080356+237166385+237546235+237589833+237180467+236601449
4047+236512718+237528748+238846370+239148685+238341687+236971492+235962401
4033+236267732+237436982+238006489+237284002+236497914+237217847+238207804
4020+237490387+236351374+236586997+237126415+236564476+236027113+237196604
4006+239143041+239901446+239574816+239265099+239016264+238449959+237890537
3993+237869571+238098976+238072792+238297090+239243430+240177742+240237735
3979+239455348+238649367+238403345+238397904+238694908+239413434+239695375
3966+239475370+239439471+239766859+240287920+240759869+241177895+240850080
3952+239394485+238458971+239105198+239647762+238943188+238870371+240246284
3939+241368125+241640073+240922620+239516063+239626389+241397899+241759170
3925+240169729+239042448+238345239+237452249+238234266+241177265+243386713
3912+243370243+242160264+238947185+233032392+228791699+229301657+232306204
3898+236618474+239932367+238964469+236093194+237075563+238720075+237248251
3885+236370471+236169841+236204279+239392950+240821305+237616091+233453471
3871+230505900+231444894+233886948+233622013+235032401+239719376+241850844
3858+237938816+227434217+219692602+227950189+238890468+243486473+242190279
3844+237809097+233146937+229051619+228106019+232174227+236028427+237624233
3831+239864602+242166519+242481972+239298852+231624687+228135775+232836295
3817+236610147+241035222+247087266+248919121+245172546+240718696+239243041
3804+236109238+233888336+238444907+243268281+246893464+251001680+253250358
3790+253624934+252943676+251601350+251640136+251643726+250180822+251735159
3777+256350316+258631248+256750873+253818514+254257672+257088810+260017931
3763+261198432+259376144+259455808+263891764+266312556+263483120+263216520
3750+276533327+294956300+316635949+349212742+377305503+390633135+391120554
3736+383962417+380949598+385679819+391658862+393678967+393117269+394327526
3723+397617623+402407540+409158422+416068556+420476607+424659232+438181239
3709+462957146+491722301+522084428+555280802+588759338+614175218+625874974
3696+624057424+611874283+591179112+569371464+558343510+553685717+545210512
3682+531796573+516838105+501110426+484613127+476184148+473286689+468242699
3669+467229963+469306212+467404316+461785675+454930241+446498005+436523830
3655+428768539+420334453+406300489+395975794+399593723+407081766+410322528
3642+409636107+407029878+403242703+398646569+393677968+386570090+376462531
3628+373498640+378695443+380008994+373510779+363244671+357619553+356310887
3615+353452547+350871151+350672445+351438770+353491555+355329757+354679680
3601+352851249+350889656+348002004+345376937+344128745+341778697+336485224
3588+332600603+333777403+335279408+333960083+331053853+328290850+326517304
3574+325810417+324559856+320346810+314253555+312250438+315106261+317514414
3561+317738360+316682175+314836422+312433710+310255906+309190801+308230786
3547+306691993+306227094+307147528+307552785+306552836+304974739+303636779
3534+302473377+301145317+299704785+298867106+298843253+298821528+298666217
3520+298726080+298544251+297867897+296973574+295671366+294111903+293462196
3507+293493118+292760972+291929103+292075699+292376570+292180806+291778621
3493+291485911+290819216+289413659+288088190+287460967+287411633+287643517
3480+287715483+287683377+287743444+287615723+287469701+287509653+287414408
3466+287038074+286313922+285867029+286346102+286722492+286154651+285340380
3453+284788527+283833378+282310037+281831963+282728655+283327491+283634025
3439+284176015+284105493+283418961+283012853+282955210+282896790+282968774
3426+283041739+282443864+281444396+281044339+281276613+281597561+281976949
3412+282369919+282440940+282218715+281917789+281881908+282475600+283050362
3399+282720919+281823377+280990915+280608697+281207793+282432576+283128712
3385+283196125+283413336+283596368+283258820+283074252+283383820+283682730
3372+284006158+284180697+283667297+283039999+283093423+283401567+283419276
3358+283322421+283199549+282959318+282857338+283137002+283357765+283323124
3345+283591889+283792131+283268350+282393864+281536366+280948706+280613157
3331+280185268+279589188+278701323+277500393+276268392+275257470+274311000
3318+273043822+271511950+270001729+268720524+267711396+266847551+265998139
3304+264771450+262892537+261092621+260137954+259609102+259269112+259641893
3291+260358717+260370745+259989767+260258791+260895692+261181963+261169805
3277+261287774+261940164+263043962+264067209+264394783+263959492+263461359
3264+263360711+263349108+263228030+263622666+264674132+265146525+264485568
3250+263773869+263562321+263458898+263630271+264172890+264639676+264949689
3237+265092602+265064216+265461793+266652620+267740652+267835546+267532028
3223+267431806+267481177+268090821+268905647+268952557+268791897+269484757
3210+270958931+272520189+273870436+275071366+276163655+277169951+277981094
3196+278902823+280362193+281710552+282154448+282367532+283117461+284031362
3183+284818893+285229850+285544729+286909798+288810121+289672505+290007370
3169+291036112+292094185+292290263+292070702+292382269+293424613+294289125
3156+294467456+294675525+295867611+297067560+296363838+294921807+295367571
3142+297492673+298691753+297865565+296475700+296073811+296480826+296157693
3129+295108244+295250398+297150592+298403965+297067172+294993495+294793013
3115+296146775+296132008+293783941+291619535+291366332+291756730+290313996
3102+287334042+285529888+286318030+287805380+286899158+284744208+284814452
3088+287533173+289305627+287480859+284704478+284020204+285466583+286736926
3075+285894435+284565173+285397134+287920369+288576923+286544993+284755903
3061+284913379+286465662+287140721+286069584+284905589+284576516+284678959
3047+284453903+283890188+283299253+282515386+281686422+280927351+279854567
3034+278436222+277122486+276129587+275209875+274196325+273558739+274762335
3020+280658345+290710648+296703458+293171170+285288455+279104712+275384562
3007+272799206+271134210+270447567+270047843+269576838+269346822+269973453
2993+271998721+275488263+279265649+281687865+282794587+283410856+284012524
2980+284745040+284743153+283671905+282485056+281780704+281341417+280255716
2966+278430893+276966156+276585529+277892252+279512448+278689739+276452535
2953+275539688+276461287+277808000+277557425+276116560+275552364+276356753
2939+277449227+277073651+275080952+273291455+272752814+273560923+274703434
2926+274422825+273070229+272302275+272758181+273681982+273319156+271598220
2912+270280634+270191034+271164187+272257938+272484734+272263230+272330977
2899+272924743+273754669+273919788+273473894+273331277+273677966+274406208
2885+275166278+275423311+275424995+275596424+275931326+276181549+276063321
2872+275710895+275428622+275267037+275112577+274759466+274174804+273835221
2858+274100063+274456060+274212924+273421822+272675723+272243504+272026812
2845+272121834+272353386+272467173+272849206+273636256+274336759+274801695
2831+275264298+275816151+276384511+276831903+277095672+277158293+277130554
2818+277259940+277493435+277581037+277509127+277486107+277747803+278369679
2804+279097606+279739133+280494762+281304111+281812385+281867215+281633109
2791+281639327+281971046+282055817+281783295+281592176+281671100+281834961
2777+281796804+281533479+281404518+281451188+281346598+281160254+281215250
2764+281500873+281577909+281271339+281024853+281128536+281457331+281782351
2750+281892381+281833665+281843362+281956371+282056557+282090106+281927578
2737+281521099+281151482+281092045+281430666+281930946+282038163+281767677
2723+281659146+281780297+281869639+281733480+281332997+281007459+281086142
2710+281306313+281236253+280986641+280871614+280824908+280630903+280300054
2696+279999960+279835636+279701902+279383987+279058209+279084134+279187484
2683+278927139+278415756+277886979+277445008+277155165+276856570+276398907
2669+276016504+275908491+275830048+275490669+274985319+274602878+274458096
2656+274344383+273928893+273338309+273053038+273143138+273283794+273255296
2642+273166732+273177835+273234885+273295063+273354889+273472784+273697008
2629+273792493+273673858+273691752+274025877+274435742+274763667+275089020
2615+275443518+275794889+276155661+276539489+276809531+276885068+276990083
2602+277310329+277837700+278486963+279075289+279490594+279798090+280122111
2588+280496668+280739656+280745096+280717987+280792617+281006571+281410181
2575+281861811+282219363+282407706+282347713+282198767+282176728+282204892
2561+282188941+282168881+282088071+282024802+282181113+282451655+282641385
2548+282744495+282835798+282962797+283110022+283310763+283578066+283826920
2534+284164227+284624722+284821484+284687324+284633511+284781402+285014897
2521+285272652+285475577+285681314+286039106+286394271+286526451+286657614
2507+286974417+287222531+287341610+287607155+287940910+288001495+287887967
2494+288016021+288478458+289002184+289437326+289882776+290318344+290632261
2480+290881855+291084743+291079858+290789220+290378319+290094990+290017769
2467+290027299+290010608+290006870+290054243+290103965+290169176+290274173
2453+290419011+290620770+290807077+290882651+290904931+291067015+291388131
2440+291713872+292068241+292368668+292405363+292300570+292207990+292144518
2426+292173960+292274608+292447221+292761601+293089970+293245041+293271540
2413+293341359+293559625+293885070+294131740+294179131+294197322+294432686
2399+294909483+295675382+297268875+300989543+308715096+322260993+342434770
2386+368310644+397810851+428752736+459608463+490258748+521627135+554828061
2372+590019114+625043142+657196728+685890417+709029825+722845727+727411551
2359+722866749+706982074+681703796+652440897+624800432+608985520+613911153
2345+634565317+645689867+637265551+624944474+616055648+611856481+614567337
2332+620614921+621823069+618001660+615385734+615122632+612359037+603605593
2318+589184803+573772113+567095214+571762186+575678857+566751837+545953484
2305+522824809+506357377+496849267+488485128+478430642+466477369+452011242
2291+436564207+422976211+411630232+401458202+392494024+385384555+380128758
2278+376010235+372331018+368822490+365617294+362988859+360873231+358991284
2264+357298493+355919656+354747963+353565019+352411313+351449133+350730625
2251+350152347+349522773+348698010+347856778+347339603+347118618+346976611
2237+346905182+346975686+347053073+347052111+347137604+347398004+347807259
2224+348264144+348670993+348962630+349101713+349299123+349754677+350468596
2210+351381553+352291106+353023159+353683340+354395630+355132828+355965289
2197+356904043+357759302+358529772+359400649+360441105+361509874+362435970
2183+363359105+364468214+365540018+366310857+366938618+367706164+368679891
2170+369745884+370674201+371398445+372036568+372540049+372910258+373331281
2156+373891202+374544610+375183288+375666488+376045579+376577854+377342106
2143+378543370+380336124+382283135+384196356+386204766+388234938+390289684
2129+392427888+394521717+396371466+398151674+400045650+401839662+403579270
2116+405622322+407932251+410141698+412197259+414330096+416690728+419126453
2102+421457404+423925550+426717383+429697966+432768816+436039964+439627692
2089+443448768+447430947+451684556+456326657+461157027+466106864+471468657
2075+477341592+483620451+490155343+496908112+503852481+511085008+518801326
2062+526825789+535067388+543530083+552026013+560462283+569064727+577831088
2048+586100333+593823906+601540631+609304878+616807169+623829443+630448792
2035+636700560+642753436+648821265+654694645+659971204+665028148+670660593
2021+676134711+680645760+684906401+689436917+693949447+697850575+700873978
2008+703611148+706852984+710558700+713882253+716367756+718624391+720774660
1994+722022852+723297839+726203552+729575735+731650430+732785446+733649255
1981+734096185+734654145+735903225+737234985+737968667+737837875+737124252
1967+737187761+738612341+739955723+740600063+741240851+741748181+741970165
1954+742355956+742949741+743517915+743925985+743985571+743885570+744861444
1940+747345985+749940668+751841934+753224176+754594648+756812423+759893266
1927+762234135+763245316+765279078+769312035+773741811+778737022+784679313
1913+790394439+794973438+798643625+802916257+808515023+814971603+821686437
1900+827944570+833302329+837842246+842080533+845773147+849093814+853892651
1886+860205707+866453699+871837735+875950781+879026590+881763686+884092490
1873+884398413+881708764+879605868+882465688+887012637+888732333+888082071
1859+886680437+884856668+882917355+881399288+879630590+876026873+870079474
1846+863159162+859725246+860997124+860966406+857827532+854422853+851113808
1832+845265743+837885473+833972280+832040443+829510010+828411560+827684909
1819+825455366+822361940+818813367+814290771+809928871+808334416+808564394
1805+807377787+803500567+798628451+796397056+796850722+795579732+791066611
1792+788779258+792084824+795109930+794653377+792962326+791785933+791542927
1778+791961359+790500065+785228094+779967153+781923490+788325074+792868691
1765+793525319+791096959+790268606+792520059+794851676+796488397+795233469
1751+790510946+788346983+791614948+795719925+797398171+796800833+796971522
1738+798140514+795185948+791655214+797569230+806998732+814154945+818590050
1724+820763487+820830549+816453697+808558251+807313908+816702255+827526508
1711+834436531+835896419+833452071+832087964+830607054+824771499+822533073
1697+829123850+840933525+854561270+862712158+865171014+864000542+857547368
1684+855618491+868085313+880372858+885343569+887293319+891860031+895503866
1670+896366342+902686504+912704906+918163183+921586663+928331475+934113440
1657+931727345+919630621+914098620+926388387+932791154+933771765+943039091
1643+955073193+961326441+961183509+954565345+950599968+960518592+971481113
1630+974881054+974538047+972401472+969268150+971767865+976886689+976446864
1616+976142570+982972800+989060688+989707249+988210351+988668459+990173869
1603+991092970+993348494+997795591+1001269922+1001762152+1001073103+1001158670
1589+1002581474+1004763572+1007774836+1012100318+1015033048+1013361019
1578+1006746038+1001849643+1005395181+1007945377+1004895252+1004915016
1566+1010253530+1014146959+1008948342+989974312+980129338+999758442+1018634840
1553+1027993061+1033008110+1036922931+1038301768+1034662743+1025137756
1541+1014195516+1021439294+1040660550+1048335343+1047289669+1050430764
1530+1054459945+1053872526+1051174512+1045768715+1039192593+1039322202
1518+1044261454+1051190279+1058830135+1060486989+1052020186+1037712276
1506+1038335891+1058759446+1071283041+1071095771+1065654740+1063044366
1495+1065304628+1064208324+1056269650+1052747428+1061448504+1071265350
1483+1073741823+1071430932+1068345278+1063261465+1053961423+1044869229
1472+1047709138+1057842418+1058619697+1049733499+1043067888+1040190451
1460+1031638007+1015656959+1009959598+1019453793+1024700226+1020237808
1449+1013750880+1011266339+1007546708+998317947+987157941+974266322+960145755
1435+953928703+952201234+946856872+941267728+937319746+933708701+933555184
1422+935557562+937219893+944934954+957398888+967099302+973898592+977907863
1408+977655086+977179436+981212541+986680515+989188668+990008657+992685427
1395+998948149+1006560841+1010269444+1009228432+1009143902+1012184478
1383+1013941259+1014246220+1016231054+1020368379+1024259292+1026495349
1371+1028506683+1030395219+1031776128+1031990266+1029778191+1028301871
1360+1029857614+1031308398+1031936306+1033323803+1033811296+1030653103
1348+1026023993+1022978087+1019947651+1014744889+1007496818+1001012407
1337+998134896+997416240+996867533+996490107+996835557+998952739+1002717818
1323+1006465060+1008639089+1009843831+1012239771+1014585303+1015294115
1312+1016137420+1018112854+1021656171+1027135248+1032537937+1034779990
1300+1033017436+1030074492+1029162423+1030045550+1031339930+1034347198
1288+1040191858+1047189076+1052620929+1055561875+1059181802+1064940525
1277+1068484064+1067350455+1064539117+1062948880+1062071156+1060229105
1265+1056724722+1052141430+1048273907+1046418829+1046157243+1044600094
1254+1039778680+1035276884+1034529286+1035127364+1033764442+1031085525
1242+1028354795+1025216069+1022460172+1021452395+1021246843+1020167342
1231+1018845944+1017976806+1016798711+1016447932+1017336833+1016870584
1219+1014969391+1014124901+1015006327+1015695967+1014941485+1014543630
1207+1015438527+1017039126+1019256679+1020276076+1018502567+1016302927
1196+1015966805+1015620023+1013521050+1011349389+1010581362+1010884472
1184+1011129847+1010353308+1008140715+1004448692+1000972215+999907295
1173+1001019439+1002548906+1002849869+1000381539+996227560+994139690+994162044
1159+992850417+989210208+985760674+985188280+985296127+982592414+978942064
1146+976395199+973770242+970826632+969030473+968196198+966361401+963254133
1132+959849307+956877569+955284371+954247875+951218032+946504317+943489944
1119+942713256+940986084+936977553+932243631+929027851+929180997+930769087
1105+928981218+923083265+917019729+914046362+913454576+912193134+909915700
1092+908607922+908593636+909261811+909831096+909211256+908225981+908722208
1078+911153011+914877750+917891679+918518625+919095016+921867567+923897480
1065+923799552+924456180+925624727+925937015+926717330+928099793+929190842
1051+931284190+935751197+939527380+938399840+934789757+933506997+933605814
1038+932506623+931593369+932152365+932186562+931266499+932297370+934092048
1024+932629199+929468119+927767297+927974922+928626517+927555231+925536940
1011+923852032+922229523+921940180+922919163+921617899+917961998+916373020
997+917461848+918434465+918802046+920128847+924517690+931777900+938319602
984+942250116+944424367+945643617+946547989+947520162+949248741+951025285
970+950166214+946510683+942378244+940164022+940530493+940320796+937523300
957+935112926+934729801+935664520+938826044+941569358+939614723+936170740
943+934730541+933417064+931280044+929752058+929181663+927448569+923380823
930+919607379+918187092+917296044+915500995+914581524+914171011+910658783
916+905752395+903998723+903354235+901791163+901468364+900527279+896412531
903+892863366+892733388+892196154+889396215+888023300+888051871+887416413
889+887172001+887204495+887581921+889652249+891578312+892164103+894258783
876+898198401+900504851+900789678+902787467+907828496+912761531+916355773
862+921689994+929854798+937430405+942052632+946809944+955461204+966766510
849+977764931+987586589+995491953+1001754750+1008042269+1014539263+1021315903
835+1028135697+1032721432+1033103669+1030202842+1027373888+1026237169
824+1026297791+1026675957+1027382104+1031002401+1036850984+1040397484
812+1041707112+1042054338+1039700812+1035596352+1033665478+1034107596
800+1032062362+1024894602+1015624760+1010150124+1014213059+1023533456
789+1024287863+1015949558+1008925914+1003110714+994460861+986050238+981296035
775+978129403+974364175+969998945+963249988+955493106+951533947+950058441
762+947317718+944664782+942990460+940316502+937842028+937603093+937612863
748+935114407+930998844+929556055+931097068+930943255+928965230+928274257
735+928123406+927117480+926548195+925967733+922170603+914773161+908140933
721+906669053+907585194+904699762+899746372+897870420+901183388+909671880
708+919205083+924844708+928166781+932957846+938376449+941243968+941406959
694+941294671+941842712+943323252+946584480+949834532+949847781+947507356
681+944964488+943937170+945616748+945100462+942077650+942025837+941766768
667+938305317+936255714+936294279+938414940+941714880+943842647+942848268
654+941710513+942236348+939366165+934958891+934304040+931953623+924344928
640+923169423+932716394+943289277+958804520+972708728+950970288+905959798
627+884779762+896379666+913477374+921068452+928426442+933422023+931655768
613+926078689+919315002+918417441+921560978+921005609+923402955+932447703
600+939642554
##END=
