##TITLE=Sample description
##JCAMP-DX=4.24
##DATA TYPE=INFRARED SPECTRUM
##DATE=13/9/2023
##SAMPLING PROCEDURE=Instrument type and / or accessory
##ORIGIN=Default
##XUNITS=1/CM
##YUNITS=ABSORBANCE
##RESOLUTION=4
##FIRSTX=4397.6552
##LASTX=599.8556
##DELTAX=-1.9287962
##MAXY=1.6917846
##MINY=0.30345386
##XFACTOR=1
##YFACTOR=1.5755972e-009
##NPOINTS=1970
##FIRSTY=0.33462718
##XYDATA=(X++(Y..Y))
4398+212381172+210548428+210179189+209952872+209503207+209698674+210117167
4384+209553048+208190983+207382029+207760063+208342643+207781116+206914187
4371+206727591+206342672+206310044+207487726+208419362+208437596+208428177
4357+208034084+206654996+205583294+205452687+205034118+203927973+202919182
4344+203112512+204453278+205013709+204273794+203369831+202715544+202505210
4330+202387635+201772956+200972249+200305289+200439850+201657234+202437684
4317+202079340+201507920+200910719+199933327+199064053+199365160+200876029
4303+201942888+201340485+200062459+199394346+199392303+199755791+199926839
4290+199606704+199358407+199626754+200304381+200528788+199582833+198558722
4276+198356408+197855162+196716936+196334268+196741545+196772055+196820836
4263+197485034+197774300+197303508+196775857+196352275+196261427+196670576
4249+196747333+196195792+195646975+195044043+194257408+194141970+194951303
4236+195685183+196018919+195965465+195156114+194740326+195721973+196752345
4222+196863111+196584229+196282933+196150037+196353316+196326286+195801586
4209+195590438+195500176+194962046+194852850+195110926+194883304+194861741
4195+195197481+194943018+194453972+194556699+194892629+194812770+194257219
4182+193343665+192624992+192938697+193569510+193464967+193425945+193885181
4168+194319544+194623166+194210707+193110047+192620510+192883446+193201690
4155+193557915+193818166+193761307+194111271+195221994+195953794+195791731
4141+195326064+194482515+193232483+192596090+192936143+193239747+193091321
4128+193113452+193607680+194291096+195188666+196281704+196409247+195267958
4114+194460990+194575198+194383268+193562946+193455358+194332879+195032883
4101+194926089+194218860+193974403+194976403+196491073+197253307+196791745
4087+196067473+196181776+196804815+197229115+197162875+196501155+195878759
4074+195996826+196437506+196659095+197092398+198185171+199497413+200400715
4060+200741922+200452901+199606893+199152405+199726038+200199593+199782140
4047+199517274+199903763+200080618+199866992+199765438+199630007+199330640
4033+199495938+200197947+200597525+200542539+200547703+200837707+201312585
4020+201848067+202476138+202849027+202733003+202690917+203022666+203505678
4006+203838713+203715369+203468434+203707462+203948401+203692519+203689228
3993+204209257+204694236+205264597+206067403+206553687+206552836+206561140
3979+206785168+206593087+205663494+205240159+206218382+207554193+208253875
3966+208443233+208676208+209519020+210287080+210377418+210812991+211148844
3952+209927942+208186463+208050691+208757032+208428914+208943268+211610255
3939+213787762+213737278+211380609+209075124+210589227+213946288+214636097
3925+213749800+214008821+213770757+212249391+212628144+216289300+219598223
3912+219958779+218183518+213871479+206961134+202123506+202803915+207533254
3898+214147505+218238352+216529652+213109643+213993670+215136889+213755701
3885+213759276+213702323+213969913+218067040+219511611+215651091+211360654
3871+208949926+210668746+213271290+212945423+214925912+220253890+222683495
3858+218710507+207547043+199618507+209597763+222394928+227521293+225444924
3844+220074860+215158849+211650412+211664447+216233785+220803104+223679253
3831+226224503+227860721+228111912+225770621+219175379+216359739+220996604
3817+224425050+228839702+235431292+237816579+233547667+227887864+226316544
3804+223856977+222705569+228562522+234182301+238498047+243444133+246366055
3790+247220632+247292396+247029459+247468607+247065738+245467804+247662788
3777+253203351+256014660+254268451+251880857+253394241+257205998+261566610
3763+264588971+263827928+264247140+268931670+271105545+267352859+266343899
3750+279197128+295580717+313171363+342776796+370651588+383379752+383752451
3736+381628834+388599139+402940861+415846485+423314140+428700282+437847205
3723+451380880+466749570+481865442+494015376+500080072+502917199+514285493
3709+537130349+560982803+579558445+594461448+611231810+630156999+644733417
3696+651091862+650142030+643972809+637491568+639532339+647875188+652641223
3682+651486655+647337474+639480512+629158025+627388306+629523348+627530887
3669+630383032+637748206+640930001+639610647+637202926+633069407+623960768
3655+614387956+605536295+590710351+577283999+580571718+591150918+596120780
3642+595057231+592737351+590006337+585348307+579212680+570722105+558551856
3628+553643656+558531541+559643550+552656372+542829419+538073864+537702450
3615+536386765+534206591+532233461+531524680+534068739+536652104+534912383
3601+530710165+527450024+524672706+523204075+524474629+524043179+517928850
3588+511873309+512372928+515001461+515848131+515252197+514501199+514428603
3574+514081438+511305066+504835628+497765905+496780286+500748375+504104414
3561+505685287+505501850+504134792+502822890+502139871+501353464+499076294
3547+496676935+496588564+497859988+498258337+497180866+496180191+496633392
3534+497304040+496510559+494112485+491279898+489222482+488548089+488958846
3520+489128778+489070709+489480444+489244613+487605936+486102955+486028922
3507+485715312+483405458+480877325+479984351+479414368+478548329+478582792
3493+478766078+477376587+475439357+474587276+474024103+473225136+473284529
3480+473326028+471290214+468042027+466065151+465855914+465982607+465505421
3466+464499789+463202678+461847537+460687862+459544567+457710878+455337053
3453+453275287+451468532+450023885+449428329+448441007+446301463+445004088
3439+445411099+445835172+445260158+444057130+442802502+441632122+440292982
3426+438790947+437508136+436730051+436331816+435821377+434942854+434050485
3412+433172265+432224135+431901975+431955013+431084396+429478669+428099808
3399+427019311+426210357+425616579+425111248+424935453+424782431+424198905
3385+423644168+423319550+422850610+422337978+421734478+420500883+418947437
3372+418272779+418713006+418713497+417264878+415462285+414293493+413714507
3358+413472358+413384554+413415915+413111423+412299556+411759686+411549087
3345+410684296+409244226+408477225+408214459+407261676+405860533+404431471
3331+402442755+400029512+397905667+396043945+394123398+392085503+389636624
3318+386894639+384612589+382796566+381294342+380123659+378045210+374652399
3304+371561320+369310632+367744021+367462643+368122887+368441831+368017834
3291+367537924+367087635+366251822+365508314+365159068+364866492+364599829
3277+364354389+363447947+361749462+360642862+360441948+360005769+359158834
3264+358211385+357018571+355614439+354350657+353188145+351588849+349818033
3250+348964666+348663616+347456994+345735319+344527676+343663982+343113103
3237+342405420+340930925+339565115+338848088+338297323+337891711+337796909
3223+337841019+337934383+338055779+337656901+336531500+335631489+335199094
3210+334547550+333856058+333461227+333209242+333306806+333708975+333819098
3196+333771848+334144586+334622112+334511574+333896422+333252784+332624657
3183+331912888+331409562+331480568+331921362+332231832+332378082+332425105
3169+332112592+331584638+331355768+331520025+331800193+331774090+331473381
3156+331410772+331492371+331529331+331701268+331738606+331494111+331209139
3142+330613583+329599251+328827484+328502714+328223681+327990422+327941394
3129+327625628+326636491+325690517+325580356+325794398+325489829+324536895
3115+323421368+322962907+323410813+323740198+322989918+321566228+320273392
3102+319573615+319662175+320145981+320483991+320664705+321062713+321968019
3088+323199836+324319600+325006742+325381409+326061174+326994021+327493829
3075+327778499+328362706+328964049+329215996+329269412+329253637+328793702
3061+327779218+326828099+326384317+326435992+326806839+326964854+326661231
3047+326550957+327000263+327598656+328355707+329626488+331106507+332114900
3034+332544723+332935354+333497998+333920974+334063365+333835743+333431985
3020+333540556+334323862+335395960+336414984+337177634+338190037+340203381
3007+343132813+346508940+350081404+354046278+358961400+364932467+371825335
2993+380117984+390293123+401480930+411898408+421113652+429598401+436644555
2980+441618200+445250284+448518483+451527471+453611216+454963294+456655273
2966+458754112+460991900+463769672+467125901+470995519+475620410+480407062
2953+484554994+488433237+492070315+494471188+495585505+496060724+495748022
2939+493922655+490110955+484975814+479879487+475748843+472682429+469677034
2926+466027511+462329981+458892305+455298958+451067006+446082088+440812235
2912+435819410+431605427+428091864+424706014+421553500+418977550+416864449
2899+415256036+414408571+414432745+415489522+417504379+420003042+422881555
2885+426407564+430395968+434252459+437924756+441504824+444240340+445517439
2872+445489747+444346642+442248408+439684942+436946476+433428865+428531258
2858+422706630+416609059+409882719+401951080+392922262+383523316+375033611
2845+367736531+360916902+354670281+349206815+344094562+339047224+334377467
2831+330422769+327043427+324126857+321607047+319237043+316965245+315073487
2818+313657666+312411134+311330372+310631333+310202229+309868210+309561391
2804+309339064+309356050+309540073+309457339+308934512+308289437+307599268
2791+306736142+305668375+304261293+302569862+300996045+299696872+298455693
2777+297282854+296310058+295362212+294208287+292782271+291313564+290238382
2764+289604562+289001572+288236520+287530482+287029936+286614167+286211771
2750+285889365+285489598+284843029+284250613+283922798+283610967+283138793
2737+282646021+282332601+282156030+281952694+281584193+280895387+280019606
2723+279456792+279487113+279735826+279668734+279328852+279184815+279354255
2710+279435002+279206567+278798061+278371018+278049843+277718775+277226684
2696+276722014+276288730+275673351+274768612+273941367+273474452+273191333
2683+272728730+271903169+270914769+270108028+269472940+268697030+267870618
2669+267344045+266983318+266453700+265715620+264952554+264304188+263742036
2656+263242908+262848513+262544663+262238790+261954252+261774447+261541907
2642+261151843+260756559+260496251+260458100+260537656+260502626+260383405
2629+260346199+260471284+260731969+260989610+261190165+261425485+261788633
2615+262232643+262624087+263032593+263555288+264036484+264444839+264923633
2602+265443207+265957296+266404691+266657262+266868542+267229156+267591698
2588+267722438+267645114+267636659+267703164+267624175+267476431+267360520
2575+267244420+267083038+266764832+266346131+265991892+265722108+265496907
2561+265241952+264883703+264498274+264260551+264164293+263980893+263683664
2548+263587179+263794997+263977962+263884503+263669856+263647745+263840715
2534+264065878+264281679+264405420+264390383+264490367+264843963+265204425
2521+265325954+265393083+265790391+266430397+266902722+267163842+267413141
2507+267655877+267858456+268129147+268566877+269089761+269473508+269647903
2494+269724736+269814109+270017520+270278035+270523362+270904196+271363318
2480+271590089+271521522+271322878+271188336+271268686+271473214+271549044
2467+271470149+271412459+271392939+271323937+271270710+271330179+271497690
2453+271651563+271618083+271492658+271507960+271628278+271775077+272016186
2440+272264690+272320470+272189049+272001735+271885862+271899745+271995171
2426+272131056+272258259+272401786+272652881+272959039+273167254+273211534
2413+273258935+273471974+273777677+274058394+274290045+274585099+274998712
2399+275386355+275694971+276018927+276338552+276511358+276452514+276195063
2386+275782831+274875330+272727236+269110019+264647323+259994665+255321995
2372+250555998+245876480+241621792+237796946+234481706+232149418+231277270
2359+232317818+235599238+240888252+247852448+255034336+259014058+257829813
2345+253456017+250262173+249698149+250571451+252059697+253475481+254392117
2332+255350178+257384328+260361180+263159210+265407439+267822763+270952618
2318+274408377+277493498+279924445+282090584+284474944+286906346+289079672
2305+291164477+293307747+295251919+296810680+298154189+299494312+300919156
2291+302398323+303723957+304777103+305741538+306601941+307153046+307583739
2278+308160872+308867799+309531278+309947369+310209454+310592576+311013509
2264+311298841+311704907+312350549+312852211+313056966+313234728+313544990
2251+313903825+314194056+314336996+314399472+314601351+314963629+315316033
2237+315615097+315871924+316075279+316306590+316576071+316811656+317074460
2224+317343279+317507726+317601279+317713029+317973676+318367258+318664715
2210+318908301+319314594+319836155+320388168+320938215+321399626+321868603
2197+322490072+323123987+323611576+324142443+324900705+325625903+326083948
2183+326552244+327324843+328186646+328861039+329499947+330267894+331049005
2170+331778479+332531142+333332946+334174207+335052238+335948504+336906356
2156+337959918+339070981+340246204+341406560+342506085+343766879+345134845
2143+346260852+347238603+348346413+349616551+351069218+352614606+354069278
2129+355475566+356875461+358212520+359619904+361182165+362710681+364172995
2116+365775884+367515188+369223850+370875843+372571908+374436202+376447578
2102+378540214+380815870+383304357+385950178+388797633+391755551+394593132
2089+397422012+400628812+404173434+407779983+411516515+415552887+419992526
2075+424738397+429600179+434628639+439634969+444399982+449433701+455192656
2062+461244074+467272946+473752976+480698579+487419473+493844158+500416683
2048+507237295+514235633+521221298+527972720+534859913+542219980+549636640
2035+556706893+563416361+569943415+576551083+583167717+589461776+595353666
2021+600762581+605740501+611044211+617040360+622890523+627930673+632449943
2008+636920489+641256171+645034618+648357973+651652652+654792532+657237098
1994+658730849+660131992+662586394+665659088+668301126+670031238+671106211
1981+672277878+673572946+674714652+675677725+676169589+675984449+675198572
1967+674520509+674836388+675695429+676377048+676836756+676905909+676594721
1954+676215817+675997765+675919760+675636263+674765571+673425410+673215076
1940+675042485+677197502+678758287+680331405+682255810+684334562+686370641
1927+688340065+690198419+692907190+696767577+700573565+705388400+712292579
1913+719057544+724105941+729129370+736405795+744727611+751355556+756634715
1900+762464829+768516928+774408628+781176241+787514410+792473604+798480685
1886+805362091+810928530+815310742+818896561+821846458+824763747+827472139
1873+828370220+825707300+821840330+822429493+826398452+828589331+828144527
1859+826933971+825636028+823701938+820864622+817069907+811759652+804625619
1846+796010773+789501310+788689179+788848896+785774160+781158537+776295507
1832+768984505+760553210+756660515+755570864+753696393+752734153+751831835
1819+749225886+746375707+743795937+739986847+736135539+734896005+735059808
1805+733922491+730618505+726644099+724814495+724886523+723167306+718387956
1792+716364436+720974233+725655604+726568590+725805713+724825768+724370750
1778+724893332+723565806+718345662+713232576+714804559+721219976+727195885
1765+729578941+728635842+728952251+731290137+733114521+734506584+733020854
1751+727659074+725146490+729142838+734353600+736900005+737154297+737904918
1738+739006524+735631191+732066482+738782344+748970761+756693579+761254575
1724+762762626+762684545+758768169+750378033+748380918+758383137+770692751
1711+778880195+780460273+777537386+776761344+777093868+773818633+774080038
1697+781533128+792926427+806125876+814398588+817314213+816668078+811121159
1684+810347236+823955171+838260690+845302494+847413704+851321605+855856499
1670+858471452+867190632+880042803+887208689+891517587+900073646+908620625
1657+909109916+900015009+897963722+912911138+920356511+921842620+933524107
1643+949151401+957019485+956540786+950513882+949782782+962629580+974241763
1630+977274357+977392689+978533032+980240295+985496075+990686712+989589116
1616+989559911+998091002+1006352063+1009657259+1011361722+1013911228+1016213252
1603+1018265144+1020879113+1023616104+1026233705+1029672819+1034557639
1591+1039159946+1041018679+1040279105+1039334569+1039148143+1037958847
1580+1033617718+1026435868+1023991377+1029306928+1031211662+1029005878
1568+1031610389+1037366204+1040905189+1038503068+1025683810+1019406926
1557+1036744433+1054408412+1065214213+1070395771+1071170980+1067755472
1545+1058620693+1044083353+1029923328+1032798701+1047417829+1054847390
1533+1057118014+1061684231+1064585707+1062714717+1058046435+1050311739
1522+1043482614+1044732211+1049477968+1055202385+1062061925+1064665528
1510+1059082595+1046412538+1042470136+1057483451+1069991142+1070446084
1499+1062777742+1059078888+1063168600+1063640641+1056522875+1052311653
1487+1058257450+1067099654+1072487687+1073741823+1071624409+1065438846
1476+1057234833+1053226833+1056678507+1060929677+1058038793+1050148163
1464+1046529054+1044861135+1034797329+1017398386+1010771878+1018785986
1452+1024249830+1020793088+1012098269+1006407673+1006124781+1005249927
1441+999083204+986688321+969835263+958501054+954618196+950521599+945845675
1427+941993762+937927882+936308234+937341444+939143886+946062365+957459976
1414+968031383+975598115+978712649+979397899+982385702+987483429+989753827
1400+989980655+993064925+998742508+1006273150+1016294283+1023189308+1022910880
1387+1019526090+1017744303+1017981345+1020418799+1023840738+1025908519
1375+1027277128+1030608578+1034427958+1036562547+1038829918+1039333963
1364+1035909830+1034111246+1035329066+1034650927+1033244564+1034539935
1352+1036113355+1035072655+1033086359+1031041201+1027500325+1021646303
1341+1014653375+1009325794+1007591899+1008226533+1008034660+1006624892
1329+1005251289+1004050947+1004726437+1007662036+1011040697+1014860153
1317+1018572928+1019277699+1018294803+1020510120+1024280094+1025854044
1306+1027582567+1031126621+1033888353+1033957506+1033167013+1034195229
1294+1037167825+1040675335+1043387359+1046339980+1051842790+1058584678
1283+1063334219+1065878959+1067015898+1066384669+1065060018+1063682708
1271+1061485095+1058793499+1055648324+1051918449+1047383177+1042433214
1260+1039855562+1039360369+1037340934+1033689822+1030527168+1027537927
1248+1023371950+1019372425+1017662817+1017511649+1016992547+1015824285
1236+1014851755+1013889438+1012208884+1011116584+1011978424+1013019276
1225+1012552077+1011347800+1010042745+1009322238+1010180068+1011466586
1213+1011464468+1010927359+1011379956+1012671770+1013396969+1012576969
1202+1011179003+1011344925+1012792902+1012674797+1010493148+1008256948
1190+1006288584+1003712824+1001099006+999834505+999869157+999667524+998168326
1177+995667166+993111001+991187352+989793094+988203786+986360260+985173386
1163+984793498+984315026+983294149+982466280+982101449+980554585+976978149
1150+972385148+967838375+964859121+964216165+964872740+965189906+963006820
1136+957611901+951527571+948088911+947433546+945927615+941857726+938031839
1123+936394259+935614586+934897785+934391773+932433169+928009268+922513646
1109+917748444+914729998+912173153+908256096+904444585+902670515+901948267
1096+901385661+900781745+899494319+898322879+898787732+901117826+903147852
1082+903375740+904283808+907049777+908840946+908047048+906472947+905638269
1069+906049933+908827705+913710861+919530458+924602082+926673041+926265916
1055+924676985+922649834+921397892+920717711+921386089+924992638+928992012
1042+930201585+930083101+930389902+929685131+926947610+923241115+919829919
1028+917878276+917563985+917954692+918079228+916503236+913983161+912761710
1015+911934976+910519760+908970627+906617987+904375129+904049717+903863745
1001+902575562+902280792+902421216+901610673+901998127+904525768+908223562
988+913285124+919872062+926437512+930494388+932022639+933428095+934971251
974+934725130+932853307+932178120+933408423+934213064+933666877+932194311
961+930822221+931483639+933162075+933410239+932534023+931194013+929611892
947+928285274+926973259+925848652+925469975+925357469+925183906+924689091
934+922865540+920200576+917884480+915330812+912273629+909817108+908122557
920+906468483+905040859+903762815+901722196+899104066+896549187+894508114
907+893663449+893987802+894728133+895009663+894656559+894470965+894840942
893+895161588+894823086+894814612+897281725+901377641+903426961+903535230
880+904425443+906105241+908107425+910663968+913495836+916325435+919042831
866+922182635+925944967+930150363+935209579+940646186+945223147+948841045
853+953524534+961819491+972577702+981880749+989005098+995851171+1002475787
839+1007825763+1011808266+1015961759+1022907248+1031837141+1037838019
827+1039281001+1038630025+1038020737+1038818796+1041128007+1044461954
816+1046923847+1046031970+1041972446+1036113279+1031895551+1032583146
804+1035071898+1034883808+1032930879+1029751126+1024006282+1017629602
793+1010911092+1003508542+1000135328+1001944731+1002601609+997649224+990528280
779+985498496+980150184+972421692+965454639+961103296+958667430+956509009
766+952687132+948202855+944521932+940808552+937877871+936992274+937142156
752+937366638+937630842+937652405+935382159+930665303+928249185+930186755
739+933050325+933745336+931823351+929095893+926209549+921487927+916286168
725+912795227+909234150+904005985+899445897+898373420+899790829+901961583
712+905380042+909759455+914157329+918571849+922721559+925848955+927438718
698+927292921+926382356+926192072+926270380+925605784+924899349+925699527
685+927768897+929090294+929990418+931584040+933082481+934911782+936149424
671+932341545+924881040+926390754+934932059+937303690+936011421+936406289
658+936469390+935251721+935152759+934661046+934684954+936690392+934740943
644+929183810+928221569+933239323+939219243+944317802+952959810+961909148
631+960677180+953859102+951615185+950857982+946482806+940507426+935318756
617+932073104+935827417+947178649+956168994+957319552+953739257+949079827
604+944792265+941613647+940130943
##END=
