##TITLE=Sample description
##JCAMP-DX=4.24
##DATA TYPE=INFRARED SPECTRUM
##DATE=13/9/2023
##SAMPLING PROCEDURE=Instrument type and / or accessory
##ORIGIN=Default
##XUNITS=1/CM
##YUNITS=ABSORBANCE
##RESOLUTION=4
##FIRSTX=4397.6552
##LASTX=599.8556
##DELTAX=-1.9287962
##MAXY=1.68796
##MINY=0.30207515
##XFACTOR=1
##YFACTOR=1.5720353e-009
##NPOINTS=1970
##FIRSTY=0.33228076
##XYDATA=(X++(Y..Y))
4398+211369782+209972100+208332668+206940256+206040405+206631452+207495074
4384+207067633+206388622+206247860+206674145+207800143+208488994+207981418
4371+207053415+206358119+206157318+206232675+206372337+207035405+207680709
4357+206868197+205051756+204113914+204444424+205028798+205176631+204775920
4344+204250808+203893776+203444571+203109132+202959327+202197034+200957612
4330+200747540+201601323+201518876+200287833+199189930+198070358+197640642
4317+199467889+201784285+201112212+198208655+197114393+198343787+199004788
4303+198324374+197623713+197699259+198135497+197912231+197293449+197294871
4290+198102947+199253761+199843481+199899103+200186181+200340289+199957929
4276+199488799+198863515+197475387+195938441+195205798+194840595+194643434
4263+194788840+194997319+195642225+196438813+195983807+194725161+194368640
4249+195172944+196166617+196082179+195210632+195244889+195789963+195827196
4236+196118236+196455704+195871235+195245211+195534886+196062425+196143640
4222+195840486+195621978+196181423+197170470+197127644+195818096+194780802
4209+194769522+194890150+194474595+193842031+193384048+193220746+193443329
4195+193714558+194090890+195390390+196820983+196442016+194542294+193321715
4182+193730066+194740061+195103331+194686411+194314705+194154095+193552469
4168+193035282+193455083+193908099+193511179+192764280+192195281+192155450
4155+192923393+194062548+194576380+194431902+194398973+194196617+193856230
4141+193974565+194061259+193768342+193319952+193051832+193309866+193766996
4128+193725459+193282264+193623523+194962778+195786532+195314028+194119724
4114+192993783+192893231+193892667+194440016+193983437+193727033+193875984
4101+193822428+193819054+194200940+194787172+195341497+195662965+195815291
4087+196074804+196315947+196195262+195960526+196224400+196917535+197480581
4074+197611921+197311838+197154981+197698406+198402139+198503070+198059647
4060+197853405+198692420+199996034+200107980+198803930+197818049+198185868
4047+198940881+199313231+199923881+200969574+201400295+200732260+200079619
4033+200202105+200457277+200560711+200856699+201154810+201238187+201244121
4020+201362645+201604034+201807034+202351844+203253969+203704084+203627533
4006+203555095+203642282+203792238+204070368+204229784+203804769+203340796
3993+203558564+204247282+205122468+205910620+206087060+206058756+206639774
3979+207049907+206458083+205818921+205989200+206564569+207323999+208519800
3966+209431935+209381773+209456107+210325644+211188811+211566564+211287050
3952+210231499+209023414+208898804+209364503+209143113+209778237+211924696
3939+213473927+213474856+211891709+210207575+211010835+212977991+212848244
3925+211588972+212128151+213147853+212987565+214082586+217306378+219358862
3912+219474183+218801105+215235163+208157820+202909279+203236225+207819689
3898+214272296+218223044+217014181+214230968+215308567+216637092+215010589
3885+214427769+214513212+215204527+219172147+220328667+216275415+212058936
3871+210611129+213487861+216193328+215252547+216780868+222031475+224237234
3858+220050405+209224480+201583162+211243220+224235054+230061410+228250409
3844+222448376+216966313+213255571+213374152+217702709+221798238+224725473
3831+227598830+229227380+229368862+226885334+219909984+216662381+221059888
3817+224687387+229712909+236627063+238910832+234722202+229574782+228561602
3804+226805655+226161014+231285685+235481690+239122819+244551876+247992128
3790+248459533+247369914+246370971+247288130+248064604+247894931+251041812
3777+256321880+258195725+255788313+253223342+254649670+258403142+262789540
3763+266083514+265386815+264996474+269245522+271995294+268770497+267813033
3750+280267262+296510244+315325438+346436450+374599657+388422354+390700815
3736+387628970+391391486+404956812+418767793+426700151+432158745+439914796
3723+449740659+461797134+476894136+491020271+498846694+503385266+515751435
3709+538170051+561696675+580829450+597108129+614108987+630026975+641155959
3696+647034620+648286668+646420766+643816420+643715337+647708759+651581230
3682+651248862+645665412+634704356+624275635+626211605+630943319+629498128
3669+632369476+638885498+640212847+636946798+631670995+625122707+618932039
3655+614011695+604440284+586755278+574606592+582056398+594321371+596808520
3642+591761728+586314736+580727381+574501186+569396194+563351690+554522021
3628+551921998+556246498+556676423+550133519+540706983+536461992+537110614
3615+536530430+534309789+530461926+525445238+524396645+526679391+526601095
3601+524191900+521622399+518648641+517013759+517366791+515078699+508226442
3588+504135501+507586275+511341321+511579924+510335269+508855386+507730089
3574+507625707+506240840+500071064+491564019+489216930+492987294+496024295
3561+497441807+498809460+499216522+497408442+494546611+492198877+489782138
3547+487599375+487424546+488885624+489662931+488479889+487035419+487356374
3534+487843514+486185920+483339862+481534625+481068263+481369351+482361753
3520+483056784+482684491+481467097+479051381+476400930+475303387+475032784
3507+473911203+472047121+471031059+471213774+470824495+469094254+467739985
3493+467933848+467873183+466197314+464418580+463762526+463507013+462870069
3480+461787162+460540232+459495620+458473832+457095411+455295710+453366754
3466+451782489+450600546+449723028+448730132+447496094+446809784+446426760
3453+445154162+442626253+439335521+436556460+435274875+435129697+435583660
3439+435782186+434992594+433877155+432736351+431617689+431065790+430478136
3426+429066046+427127157+425504293+424827538+424812789+424801755+424072449
3412+422178565+419937299+418635354+418538479+418892649+418711488+417725493
3399+416753413+416468250+416179712+415079857+413621472+412285516+411089241
3385+410507692+410656852+410639600+409974826+408919408+407557025+406565646
3372+406452544+405984893+404526621+403297588+402969997+402785917+402247402
3358+401541034+400660786+399964049+399861449+399589367+398182130+396402296
3345+395810055+396072734+395937906+395014813+393105877+390658843+388869151
3331+387916370+386876308+385230961+383093280+380898687+378851435+376522925
3318+374173599+372161305+369659710+366456677+363516058+361423724+359974969
3304+358811226+357696849+356521124+355704043+355433023+354813217+353697930
3291+353383609+353855431+353661000+352646530+351663265+350848725+349993614
3277+349579652+349966619+350431502+350392638+349617757+348058403+346892688
3264+346712816+346116973+344620217+343192392+341832397+340381292+339241322
3250+338036744+336483986+334934073+333454228+332312627+331757505+331208222
3237+330363500+329524315+328631933+327799762+327440474+327609577+328015198
3223+327896864+327042436+326352827+326004914+325392387+324671422+324269593
3210+324254123+324743462+325345448+325116551+324209838+323705674+323791212
3196+324044147+324508423+325311627+325942429+325707238+325018805+324585657
3183+324103788+323449555+322823606+322101617+321458872+320987657+320762894
3169+321264896+322107684+322409833+322259612+321918409+321510324+321423838
3156+321560448+321832455+322318570+322233905+321554344+321642308+322510537
3142+322747851+322152386+321770918+321571823+320684143+319679039+319527680
3129+319513234+318631355+317351382+316682816+316719139+316947543+316990937
3115+316606814+315991388+315673807+315551282+315091745+314243479+313307457
3102+312677129+312608179+312824943+313091186+313643559+314495257+315219843
3088+315709466+316253612+316795615+317373411+318484774+319769088+320435796
3075+320740296+320964150+321060835+321357979+321810729+321933234+321475328
3061+320691309+320160112+319899366+319598544+319411165+319385800+319386558
3047+319797260+320740713+321496712+322018848+323022436+324309556+325197463
3034+325778406+326300883+326541495+326758107+327372870+327574657+327155235
3020+327572003+328920471+330006108+330877370+332113722+333768586+335629710
3007+337665550+340228796+343486579+347536343+352599022+358610311+365698176
2993+374100763+383450255+393361390+403627415+413589736+422259819+429047543
2980+434196632+437925024+440550564+443015912+445230069+446641325+447907781
2966+449632599+451923383+455015589+458616243+462070657+465603177+469705605
2953+473900586+477300212+479573214+481363057+483210077+484465652+484244680
2939+481899107+477592200+473033419+469354545+465793778+461854917+458415367
2926+455952635+453557015+450454534+446747033+442224310+436936981+432113967
2912+428171428+424234728+420078269+416353859+413614837+411444131+409089535
2899+406963911+405817268+405593263+406062847+407289682+409282601+412065264
2885+415724043+419756442+423464586+426665458+429226505+430893843+431591831
2872+431250325+429698971+427488075+425339891+422647809+418902886+414696910
2858+410013728+404318465+397607481+389942276+381701891+373816397+366631809
2845+359737125+352969874+346656777+341038900+336083939+331634393+327699513
2831+324498072+321769704+319135367+316676371+314299708+311944145+310043759
2818+308867465+308087712+307441138+307032256+306719168+306221545+305590971
2804+305178866+305261351+305529358+305415630+304797454+304000355+303417687
2791+302907495+301789535+300165060+298914471+298054299+297061517+295913850
2777+294705841+293452295+292188378+290990852+289898637+288832526+287937586
2764+287310424+286703092+286114282+285605493+284985952+284334771+283819915
2750+283423773+283209171+283029356+282470783+281558781+280885627+280701775
2737+280493580+280021683+279689466+279540231+279337268+279153378+278945809
2723+278536396+278084784+277848077+277738482+277532903+277312671+277191227
2710+277043015+276886007+276776829+276597128+276417749+276325064+276099353
2696+275617218+274979364+274270893+273564032+272873419+272270238+271850759
2683+271406010+270755075+269980326+269118998+268270921+267535927+266808687
2669+266155970+265659295+265015394+264203773+263599379+263246101+262941449
2656+262513098+261936136+261362909+260913439+260715880+260747634+260748771
2642+260643461+260498756+260331074+260160094+259940999+259815252+259971976
2629+260166577+260210161+260246940+260411247+260775331+261268253+261716339
2615+261965179+262062471+262346686+262898263+263400853+263754985+264138084
2602+264583289+265011014+265491196+266136747+266749084+266986549+266943098
2588+266942207+267073357+267240773+267264452+267139160+266988294+266793730
2575+266673424+266684609+266497704+266121884+265901329+265642044+265067528
2561+264454793+264054859+263824939+263664177+263434731+263174383+263081888
2548+263235371+263565388+263805678+263775573+263632081+263537217+263544515
2534+263699382+264025721+264392213+264570530+264625261+264807180+265189786
2521+265649873+265988156+266155042+266329017+266670713+267068201+267365269
2507+267659191+268007484+268295396+268552425+268929003+269360615+269579388
2494+269561814+269648811+269993881+270366478+270669253+271036655+271474637
2480+271787023+271761847+271456684+271227351+271270461+271318633+271182099
2467+271149454+271325761+271418275+271322804+271174061+271090912+271111936
2453+271199483+271366786+271602545+271737581+271795327+271981492+272238314
2440+272457542+272698931+272878575+272798118+272560577+272450982+272446300
2426+272414962+272421180+272499476+272594777+272667802+272800014+273126088
2413+273538875+273876646+274167990+274445797+274720325+274993772+275286898
2399+275707799+276216228+276612199+276833076+276919315+276928074+276873020
2386+276455248+275143311+272608521+269039698+264891922+260239622+255088770
2372+249907946+245002635+240329084+236029437+232491135+230190171+229649305
2359+231139293+234606086+239904884+246896652+253882656+257304519+255583815
2345+251217228+248509922+248279813+249066087+250366061+251949682+253494211
2332+255034456+257021403+259638622+262381151+264881078+267632423+270950586
2318+274346420+277447840+280248797+282815607+285246280+287654963+290071342
2305+292299225+294186378+295861281+297428408+298933543+300480802+301976117
2291+303251427+304379397+305473982+306588738+307611303+308278996+308639915
2278+308927599+309272518+309768416+310352884+310910661+311486181+312095295
2264+312566112+312861683+313203246+313640280+313989918+314229564+314490025
2251+314775757+315082115+315421004+315709694+315960657+316197345+316379738
2237+316628218+317037573+317391876+317558136+317746273+318014677+318183041
2224+318266721+318454214+318694674+318844365+319088352+319525064+320014023
2210+320514660+320882707+321078238+321408066+321992155+322668114+323296831
2197+323861811+324511684+325281560+325966354+326512414+327030985+327570373
2183+328222066+328996643+329728376+330402629+331092503+331729030+332324419
2170+333120267+334165789+335082323+335840635+336863218+338042431+339023004
2156+339947196+340969552+341965785+342950794+344002951+345081726+346268976
2143+347646033+349072455+350409018+351690261+353028909+354491048+356046497
2129+357547954+358879247+360140585+361491327+362971097+364561239+366128139
2116+367585879+369246165+371292849+373350983+375132674+376810742+378710655
2102+380909038+383279332+385828245+388495834+391093052+393708052+396590130
2089+399766281+403126967+406713403+410596263+414546385+418386096+422400220
2075+426820154+431571622+436539664+441558475+446665553+452213931+458273107
2062+464449367+470487008+476498980+482681609+489113117+495712326+502422323
2048+509363834+516576971+523657139+530313562+536982762+544027252+551286002
2035+558432067+565298845+572133889+578947661+585373633+591471598+597391928
2021+602950505+608249095+613688010+619407084+625152850+630480901+635217847
2008+639596718+643746504+647425302+650726991+654190050+657658189+660419354
1994+662301711+664171632+666939849+669874668+672030624+673870743+675902260
1981+677580101+678326052+678658572+679294568+680135688+680468283+679753347
1967+679046600+679881577+681277099+681571399+681194291+680825296+680309569
1954+679937920+680181566+680634733+680440605+679293734+677676407+677378769
1940+679344844+681593921+682965252+684209870+685901587+688191386+690757816
1927+692800480+694147318+696417173+700468150+705057605+710356764+716597139
1913+722329748+727432883+733290842+740381285+747745023+754779806+761179730
1900+766469865+771320937+777093585+783874410+790077476+795396578+801472248
1886+808105277+813793222+818196511+822008848+825869489+828848972+830261024
1873+830430356+828640891+826518604+828148216+831838996+833413706+832604360
1859+831247512+829867688+827648944+824485115+820745804+816183800+810261537
1846+803011621+797561027+796324297+795353203+792315633+788612038+784204578
1832+777138553+768759132+763496373+760462898+758198579+758050860+757698321
1819+755375384+752465666+749145473+744637537+740706904+739937369+740639338
1805+739323516+735227191+730554626+728564891+729115350+728219253+724195044
1792+722453505+726952645+731468695+731980783+730569716+729292112+729077283
1778+730147261+729563057+724710013+719498061+721387698+728174133+733985456
1765+735936744+734296819+733696918+735707506+738016641+739640035+737786266
1751+732193110+729557370+733292131+738416120+740952900+741408873+743136004
1738+745330558+742467476+738892870+745075159+754866936+762301501+766480936
1724+768117980+768670637+765623892+758148682+756286041+765542070+776474196
1711+783301202+785107500+783612185+783045423+782607271+779407271+779957729
1697+787076229+798355132+811569549+819710936+822650456+822013398+816300201
1684+815726007+829407848+843005592+849339998+850964605+853631512+857537121
1670+862014345+872085939+883470853+889195956+893706015+903026501+912158092
1657+913369419+904903550+902463151+916711906+925371902+929440624+941264904
1643+954966537+961899781+960787414+952507635+947678857+958334730+971577963
1630+977469742+979329047+981458159+983898255+989095572+994705715+994474429
1616+993451467+999554967+1006495112+1010447964+1013951213+1017890264+1020149729
1603+1021102169+1023362393+1026710567+1030204565+1034647968+1038266784
1591+1038914837+1038923558+1039279964+1038642224+1038800180+1039833456
1580+1037206285+1030160583+1026999787+1031315643+1033383483+1031934122
1568+1034071727+1039344345+1043679462+1041980692+1027899221+1019947943
1557+1038070305+1055195412+1063624806+1069231536+1073557022+1071842479
1545+1061564701+1045804252+1031300780+1035470358+1052710045+1061300884
1533+1062277969+1065625612+1068909936+1067859674+1063938444+1056292917
1522+1048945937+1051004147+1056721060+1061170303+1066240148+1068278414
1510+1062175217+1047714742+1041926472+1056842541+1069597194+1071201630
1499+1066144752+1063512121+1067190692+1068800815+1063462300+1059254352
1487+1063675006+1070649352+1073741823+1072666006+1069164729+1063018157
1476+1054346179+1046615569+1047012621+1052963170+1054134382+1050932714
1464+1050570317+1049977620+1039802062+1021532435+1013935743+1019983887
1452+1023819958+1021795797+1015942388+1009443580+1004362057+1000344749
1441+994279013+981514426+965860975+959301653+957051818+949524512+940861710
1427+937399334+937394026+937016690+935247093+936698957+948077956+962217059
1414+969034434+970150744+971216248+973342782+976844969+984419594+992006807
1400+991993992+988943152+992369128+1001950625+1012364521+1018527094+1018812447
1387+1017449002+1017413968+1016109672+1015117951+1018859462+1025245660
1375+1030718397+1036257334+1040084609+1039835807+1039106538+1039213536
1364+1037893543+1036786938+1037252087+1038162668+1038394711+1036591218
1352+1034410162+1033830812+1033578445+1032076912+1027754611+1019852926
1341+1012369602+1010239504+1010836371+1008878865+1004834864+1002245760
1329+1003370337+1006918857+1010104828+1012252064+1012629400+1010891956
1317+1010548365+1014546639+1020733781+1025864215+1029931497+1033059609
1306+1034474618+1034982384+1034592991+1032967777+1032202565+1033995441
1294+1036678500+1038055063+1038993474+1041604872+1046805754+1053089884
1283+1057929885+1061392033+1064496334+1067302770+1069297130+1068982279
1271+1065635394+1060153406+1054170630+1049283993+1045687244+1042635342
1260+1040261144+1038497917+1035555440+1031422338+1028733971+1026908335
1248+1023109724+1018553635+1016552677+1017183669+1017348298+1015548369
1236+1013766791+1012934772+1011910444+1010720653+1009951952+1009718847
1225+1010498316+1011930464+1012900117+1014025072+1015862462+1016601892
1213+1015489752+1014041149+1012935833+1011830897+1011177991+1011741037
1202+1012329032+1010869055+1008676472+1008079605+1007319852+1004428864
1190+1001127554+999407248+999150028+998701184+997579792+997171745+997152787
1177+996433755+995385844+993815532+991446339+989180958+987907980+987302317
1163+986269799+984781081+982986537+980482439+977692989+974957380+972576281
1150+971493184+971347209+970505255+968516810+965653425+962188774+959620296
1136+958402144+956973864+954498886+951217974+948427235+946506734+943579120
1123+939436463+935988722+933368679+929630581+924596756+920755527+919201822
1109+918284265+916432771+913539736+909757201+905435658+901748215+899420349
1096+898306844+898227601+898078441+897645141+899597567+904139248+907765040
1082+908232994+905930380+904108764+905574884+908980538+911885782+914090573
1069+916129750+917448378+918285554+919611083+920989618+922189874+923722877
1055+924747508+924888478+926178822+928340465+928488336+927303322+926741337
1042+926748011+928364807+931600144+932822467+930231013+925554731+920501948
1028+917593671+918140565+918503645+915662402+911951224+910291280+910537428
1015+910691062+909985908+908969618+907428501+905699019+904673327+904284768
1001+904034601+903658554+903461545+903933518+905647302+908321261+910881625
988+914155788+919416046+925808538+931260193+934069663+935423704+937239027
974+938171144+937446122+936878298+937137034+936789879+934492952+932240918
961+932793500+934441690+934289042+932820344+932002126+932154622+931865023
947+930492023+928680417+926816714+925288640+924427804+923696336+922712427
934+921497005+919812188+917634923+915334584+913576741+912376865+910128091
920+905954874+901898588+899840682+899063715+898619345+898347414+897592970
907+895889043+894479645+894603477+895440198+896289356+897175974+897404302
893+897254838+897785732+898428022+898515911+899342622+902061246+905308868
880+907192211+907967509+908180746+908761992+911748148+915776907+918027880
866+920107019+924227231+928543845+931265577+934457918+939667369+946298502
853+954392722+962538811+968781916+975914672+985956010+993982361+998362901
839+1004565891+1013789010+1021635186+1024450646+1023189119+1023083334
827+1026570734+1030470201+1032629797+1034076580+1035412347+1035420006
816+1033154397+1031780640+1032236916+1029792953+1025945051+1026128411
804+1028858561+1031591289+1034326444+1033663756+1027294695+1019392479
793+1014238082+1011679235+1008196916+1002384304+997335540+993385342+988011186
779+982827746+979197480+974909606+970164015+965373380+958888904+952673174
766+949819495+948499426+946057359+943312043+940997448+939749039+938988149
752+935737418+932773025+933840652+935345977+935126749+934704066+933738053
739+932206794+930897948+928532394+924787850+922499569+921926968+919981746
725+916146888+911459080+905700536+900983761+899934409+901564703+904757272
712+908128499+910728598+914998121+920359689+922778703+923499403+926294313
698+928810695+928078772+927457184+927823448+925985983+923814481+924200538
685+925338006+925622828+926718664+930055008+932304844+930467833+926230159
671+918396799+906678531+903368500+913398235+925129849+931498910+930584765
658+929196144+929955670+928847700+927130806+926785775+927253880+930729754
644+936451217+937143783+931280516+926985362+926461217+925087308+923664563
631+922997855+922190784+922331679+919843127+912593590+905696896+906333575
617+914489066+919022178+918984187+922281327+925597576+927240155+932351935
604+939726289+943884644+945489990
##END=
