##TITLE=Sample description
##JCAMP-DX=4.24
##DATA TYPE=INFRARED SPECTRUM
##DATE=13/9/2023
##SAMPLING PROCEDURE=Instrument type and / or accessory
##ORIGIN=Default
##XUNITS=1/CM
##YUNITS=ABSORBANCE
##RESOLUTION=4
##FIRSTX=4397.6552
##LASTX=599.8556
##DELTAX=-1.9287962
##MAXY=1.8339636
##MINY=0.46160561
##XFACTOR=1
##YFACTOR=1.7080117e-009
##NPOINTS=1970
##FIRSTY=0.47881052
##XYDATA=(X++(Y..Y))
4398+280332102+279983078+280594388+279938881+278154174+277592209+277872572
4384+277489978+277462688+279564749+281574159+280296925+277378255+275673235
4371+275637849+276518408+277482004+277897000+277648062+277686099+278692183
4357+279742725+279216477+277648829+277752282+279879364+281556047+280720995
4344+277950445+276010132+275938697+276527376+276959769+276933369+276416648
4330+275584649+274582806+274332838+275690457+277162922+276609978+274936784
4317+274426920+275044389+275572103+275736922+275585556+275809421+276910529
4303+277303784+276701740+277180981+278292035+277788453+276059982+274591792
4290+273315395+272806264+274448504+277077581+278157873+277694161+277235526
4276+276831853+276295154+276046739+275339165+274207644+274186479+275221248
4263+275735963+275278933+275370032+276322042+276125606+274192796+272200381
4249+272272984+274247759+274903527+273608322+272935750+272984205+272927741
4236+273605792+274678528+274697896+273705039+273162424+274247043+276082421
4222+276471872+275265829+274714088+275585050+275781817+274638135+274469181
4209+275361395+275027325+274253726+274907732+275656048+275286331+275115928
4195+275436458+275409291+275439529+275114620+273660981+272907658+274131516
4182+275369630+274774234+273376116+273149844+274021224+274704439+274645934
4168+274210785+274024766+273445562+272340807+272391757+273588535+274716601
4155+275450417+275155851+274338526+274652565+275195250+274585929+274263445
4141+274780637+274808101+273925275+272550102+271801455+272539703+273684362
4128+273285227+271571466+270958742+272143551+273795265+274900561+274857603
4114+273878652+273476411+274252697+274565636+273694064+273118785+273236737
4101+273229671+273321398+273558279+273368980+273507225+274497290+275458094
4087+275837513+275409553+274554975+274474520+275240214+275680040+275578838
4074+275514296+275433195+275472577+275719229+275322659+273926810+272480483
4060+272426218+274080026+275958711+276733164+276502460+275773965+274944060
4047+274526220+274812952+275692289+276692562+276989623+276109187+274581567
4033+273692877+274120140+275001222+275662208+276568101+277488617+277523653
4020+276795787+276138047+276133580+276856787+277778943+278413547+278900222
4006+279235146+278842990+277905881+277586712+278049605+278189647+277686623
3993+277623791+278349737+278948676+279103829+278853337+278280275+277947165
3979+277973931+278309327+279050628+279808209+280296908+280679520+280976110
3966+281172808+281592550+282212601+282208798+281252355+280140656+279672599
3952+279755532+280054373+280660379+280744324+279833440+279847747+281360833
3939+282474504+282009361+280195986+279008019+280205111+282162594+282634071
3925+282384592+282649426+282275748+281025699+280835841+282861059+285540947
3912+286607227+285453198+282202516+277416572+273994371+274328615+277665179
3898+282213090+284640375+282859175+280143221+281180869+282863921+282397364
3885+282218063+281942480+282113877+284753005+285074913+281972998+279816323
3871+279141430+279874636+281013153+281029049+282686609+286260699+287680069
3858+284413142+276007043+270259038+277353111+286279282+289765571+287971250
3844+283849938+280523599+278522914+278528428+280802410+282844553+284232724
3831+286355863+288611769+289533924+287462398+281904826+279415198+282904838
3817+286320391+290190007+294275532+295152112+291947146+287764868+286521014
3804+285613306+285799464+289554199+291933937+293333799+296280370+298426960
3790+298788040+298405673+298093099+298662306+298561593+297373347+298951708
3777+302555007+303605026+301966363+301061900+303022174+305403692+306873662
3763+307692731+306671398+306170939+308998930+310976722+308437889+306578921
3750+313734151+323358037+334021158+354800667+378022798+393147756+399043516
3736+399446821+402306149+408261269+412631606+412783513+411212376+413267361
3723+419798422+428807840+438984216+448291306+453898885+456733087+464760291
3709+480482618+496634144+510046004+523192926+538310347+552857619+563279392
3696+568352242+567319533+561534642+556810273+557450251+559696681+558313640
3682+552394465+544161647+533839680+522621347+519363877+520738788+517652454
3669+514340964+514042315+511809704+505787931+497985709+489526339+480647193
3655+473638425+465560202+452088214+440108321+438806904+441572498+441054346
3642+436983182+432261954+427965773+423165992+417686659+410796159+401196038
3628+395842545+396697140+395588948+390054373+382591560+378832794+378450706
3615+376671547+374156165+372061537+370106287+369566848+369190204+366523193
3601+362828708+360194990+357780111+355375666+354204973+352761769+348906233
3588+345710567+346485771+347653882+346944807+345624546+344496672+343143188
3574+341723679+339904528+335520127+329099376+326554471+328642434+330238557
3561+330447974+330271919+329017263+326905187+325628965+325251483+323912621
3547+321640437+320737160+321784701+322611064+321652511+319943565+318826021
3534+317819624+316205808+314540902+313518801+312826024+312293948+312149125
3520+312000149+311543312+311258900+311140041+310562773+309794967+309281177
3507+308410774+307131307+306863786+307652530+307693325+306795283+306070156
3493+305706354+305117082+304002608+302950182+302334562+301875107+301807302
3480+302155365+302150759+301533429+300985336+301105940+301406718+301340344
3466+301013358+300268759+299502070+299487587+299800614+299823751+299356758
3453+298266329+296962992+296219370+296571621+297632981+298371892+298428914
3439+298085946+297579693+297259338+297271308+297184937+296971507+296903318
3426+296599190+295860174+295235656+295397892+296384224+297294340+297450469
3412+297165116+296865245+296596817+296370928+296293631+296558465+297383502
3399+298581798+299460647+299533861+299053258+298510504+298114352+297976404
3385+297884903+297306554+296602156+296851217+297858068+298295189+298069369
3372+298235584+298722329+298664679+298282870+298344673+298889521+299266305
3358+298983359+298280078+297595921+297461497+297923395+297948870+297216380
3345+296551939+296216089+295775130+295197478+295026133+295193570+294974242
3331+294348118+293851846+293549672+292889036+291535238+290290022+289802440
3318+289248902+288205183+287233124+286256250+285295428+284895019+284358354
3304+282486788+280008606+278789231+279176781+279913389+280413569+281055292
3291+281713172+281984479+281882178+281897899+282728101+284169246+285154793
3277+285583643+286399729+287519961+287863069+287369502+287037142+287541632
3264+288840554+290198592+290796327+290857711+290991489+291310448+291816055
3250+292298734+292319515+291515678+290305394+290045167+291007000+292042327
3237+292855430+293867724+294575961+294571773+294658423+295307369+295719888
3223+295460602+295418098+296134779+296870794+297255395+297835105+298642659
3210+299311113+300119015+301270026+302146920+302230220+301921660+302189320
3196+303685359+305733190+306778114+306858796+307484082+308687997+309383705
3183+309363744+308973734+308797818+309235357+309695999+309722975+309732711
3169+310100491+310917293+311960437+312731802+313219559+313919106+315146890
3156+316603600+317419773+317355632+317341533+317837526+318253150+318352083
3142+318395914+318441874+318571447+318919545+319256895+318879064+317608287
3129+316851962+317590873+318694878+319215856+319215298+318444316+317163523
3115+316371255+316417912+316626318+316228630+315453740+314766791+313966112
3102+313133502+312566041+312007862+311491245+311407632+311583025+311725544
3088+311837285+312012503+312569810+313542496+314507331+315193652+315361089
3075+315132094+315177286+315467245+315559269+315689331+315860710+315665356
3061+315474853+315918256+316640451+316789845+316281918+315773049+315624736
3047+315608439+315551382+315391414+314990656+314410527+313658878+312670523
3034+311631497+310854862+310547942+310385182+309872299+309098282+308473379
3020+308034583+307524911+307250725+307366862+307226890+306885108+306766074
3007+306439751+305745823+305305142+305468426+306104181+306936058+307950551
2993+309649097+312139075+314924212+317611288+319819716+321419922+322463136
2980+322783735+322562837+322322640+322288336+322154575+321570224+320844539
2966+320307368+319680232+318862314+318105989+317494208+317084167+317010116
2953+317065672+316853393+316647221+316909822+317269087+317364635+317257920
2939+316676325+315625748+314732173+314252024+313982269+313636928+313084751
2926+312603171+312300509+311939952+311438760+310943465+310702396+310509834
2912+310040503+309904509+310481463+310998254+311127408+311195527+311144961
2899+311089824+311414227+311999137+312440795+312655831+312895051+313355762
2885+313918896+314244137+314267832+314309116+314434815+314353016+314087414
2872+314045363+314325552+314662623+314720762+314264203+313587479+313250094
2858+313316956+313411004+313256305+312797932+312039723+311226725+310980666
2845+311470342+311938347+311989122+312059195+312399931+312885628+313383400
2831+313858420+314282629+314635159+314921769+315076224+315215149+315570785
2818+315974161+316068034+315945824+316005324+316469630+317246404+317893117
2804+318226105+318691946+319516739+320454389+321299806+321762786+321745826
2791+321874736+322382209+322598187+322397808+322257487+322200535+322143792
2777+322305750+322606074+322622929+322373834+322173943+321999667+321908900
2764+322225835+322797171+323000830+322691921+322438882+322487982+322492589
2750+322461879+322653080+322952463+323111105+323048430+322917845+322858938
2737+322726225+322508886+322563255+322921963+323187425+323283531+323333364
2723+323313438+323352279+323542852+323762808+323932582+324033575+324094993
2710+324118689+324080302+324063761+324199161+324461936+324546003+324289370
2696+324045649+324196055+324473383+324458831+324489191+324797960+324952171
2683+324761144+324349149+323929058+323678601+323480735+323218483+322902315
2669+322539072+322214564+321921184+321575493+321420376+321580728+321733019
2656+321776849+321677113+321168453+320496440+320262595+320399042+320425634
2642+320342823+320347778+320332075+320223440+320206550+320326456+320310369
2629+320142060+320071638+319940076+319727518+319893907+320345685+320646707
2615+320805733+320881285+320974216+321303575+321727958+322098252+322548948
2602+323005890+323330468+323643634+324095098+324607457+324967840+325357291
2588+326022220+326585634+326807824+326992778+327262289+327545060+327852363
2575+328082056+328165670+328302990+328592950+328845639+328912467+328797028
2561+328531077+328259159+328194285+328284529+328426246+328738366+329093095
2548+329165611+329025010+328944922+329056208+329413345+329837554+330009632
2534+330049066+330231543+330390080+330413496+330478230+330611223+330884991
2521+331344062+331672932+331857084+332267020+332792570+333044353+333102841
2507+333283258+333505064+333643362+334045097+334720425+335172343+335441993
2494+335784787+336057194+336273381+336590002+336954328+337362170+337794406
2480+338112737+338328296+338448726+338476225+338589571+338754844+338707174
2467+338427369+338214462+338281674+338443631+338424787+338283174+338294725
2453+338504527+338841039+339348583+339770872+339808840+339692947+339792858
2440+340176377+340638589+340893791+340893303+340938669+341188078+341486553
2426+341709860+341749084+341728669+341923081+342157171+342224243+342335809
2413+342481958+342307821+341986175+342128974+342794461+343508456+343857008
2399+343825007+343867058+344232431+344633329+344892544+345095925+345257987
2386+345121714+344133882+341984221+338879147+335101467+330914548+326601372
2372+322156181+317682722+313716668+310269986+307119268+304976760+304761829
2359+306493249+309750229+314486602+320694656+326948633+330267487+328989834
2345+325017498+322322396+321769905+322455284+324212736+326035795+327139486
2332+328182350+330056952+332645305+335108586+337069768+339198490+342137698
2318+345453759+348273584+350326894+352257681+354594076+356968998+359054867
2305+360916103+362621001+364292397+365895744+367284753+368530160+369830531
2291+371286682+372732119+373981261+375124978+376211569+377108354+377903171
2278+378814752+379741689+380588083+381459254+382195897+382704347+383284965
2264+384023597+384796568+385695063+386746443+387728482+388475594+389015522
2251+389530812+390198498+390930081+391615076+392336992+393079637+393710926
2237+394167694+394546606+395011087+395564834+396146394+396667931+396944804
2224+397047123+397398397+398112426+398799899+399236776+399505169+399712144
2210+400049180+400586491+401083879+401472458+401968450+402548859+403105258
2197+403809970+404686969+405490579+406131569+406697111+407293782+407969389
2183+408725191+409637087+410673600+411532103+412121480+412745720+413525879
2170+414449954+415605676+416839742+417965662+419000256+419950608+420862365
2156+421816172+422797653+423768281+424821963+426084959+427460009+428754203
2143+430053771+431543493+433052373+434401844+435706472+436982798+438185561
2129+439473229+440975549+442567275+444146683+445755055+447325145+448826871
2116+450413223+452208679+454183017+456240480+458354057+460440310+462400131
2102+464392475+466574556+468881533+471315361+473853880+476345044+478906246
2089+481793108+484910152+488013201+491125743+494383700+497791541+501354011
2075+505164704+509275302+513511042+517706475+522019825+526593369+531345410
2062+536238995+541505629+547199579+552856537+558340580+563994956+569848700
2048+575743482+581741943+587769090+593750731+600129989+606864849+613283053
2035+619481963+625952791+632463333+638463958+644222746+650342579+656517201
2021+662156292+667408723+673154739+679682659+685586410+690116681+694743268
2008+700192379+705187968+709218024+712957875+716597572+720485318+724760980
1994+727924959+729482137+731634451+735540692+739866814+743241154+745611365
1981+747672038+749683646+751237614+751991112+752776785+754503982+755991714
1967+756390937+757014199+758307416+759582625+760499721+761090040+761985849
1954+763144292+763689874+763892556+764327094+764082675+762608343+761906283
1940+763464857+765627639+767012496+768179524+769934150+772031535+773782322
1927+775265658+776870855+778823138+780776956+782430520+785181109+789551481
1913+793954029+797999579+802317536+807007007+811970211+817223620+822796267
1900+828131125+832345228+836335083+841430687+846130139+849459321+853384267
1886+858708796+864576812+870351373+875286311+878987846+881460584+882926890
1873+883635022+883402398+883656379+887186499+892725156+897067122+898974109
1859+898991697+899174767+900307457+900652240+899515921+897750198+895049023
1846+890416993+886255096+885999439+886239462+883968778+881545733+879610898
1832+875223915+869234666+865988469+864840704+863857792+863605486+863035756
1819+861183837+858167402+854226753+850171222+847169374+846167060+846062019
1805+844698939+841677549+838485721+836871940+836540836+835072576+831098634
1792+828174467+830294326+833838475+835029234+833962429+831760702+830179724
1778+830593115+830679381+827245926+822574810+823705964+829168267+832965629
1765+833699654+832628104+832508268+833977784+835289985+836315680+835534962
1751+832059351+830322034+833385650+838063466+840724020+840167063+839359335
1738+840201402+838621610+835976480+839603545+845663146+850527870+854585216
1724+857626288+858557273+855058141+847911077+846322491+854544665+863868191
1711+868967076+869607926+868374663+868995970+869915648+867379956+866306451
1697+871288011+880620750+891211809+897044998+897762482+895021106+888344524
1684+887590328+900424921+912830488+918357979+918610075+919007274+921806649
1670+925419336+932790160+941572014+945254774+946373505+951190699+956116145
1657+954596167+944997582+939825344+950093744+956281278+956505876+962523530
1643+972561470+978663855+978011838+970672281+965568023+973658355+984988464
1630+990326114+990814674+990055802+990253459+994006990+997436467+995813194
1616+995227481+1001409850+1007225032+1008834695+1009058874+1010076822
1605+1011051289+1012487863+1015354729+1018594295+1020892129+1022253744
1593+1023453437+1024268702+1024505235+1025728587+1028986650+1033116581
1582+1036027627+1035265195+1030187459+1027966189+1032069250+1031950949
1570+1027120702+1027424935+1030863136+1031227951+1027469813+1017680829
1558+1013278142+1024594432+1035006259+1042119403+1048459088+1053178711
1547+1052579109+1045186299+1034213816+1024548507+1030416663+1047161196
1535+1055379670+1056056255+1059266579+1062779041+1061748181+1059072341
1524+1055369132+1050450805+1050211132+1053326884+1057096538+1062546696
1512+1065184916+1059235450+1046273414+1042501875+1055856574+1067315035
1501+1070111967+1067379385+1066573471+1069778839+1068821054+1060608930
1489+1055289287+1061307221+1069991502+1073150178+1073022524+1072153307
1477+1067117168+1057968476+1050169395+1048304983+1050324059+1050586694
1466+1048028458+1046348373+1045939239+1039961716+1026043429+1017670360
1454+1019634787+1020254211+1016495724+1009637956+1002535770+997832898+994223771
1441+989095503+981209039+971048821+963048941+957808235+951600321+945606118
1427+941589951+938250787+936842760+937830557+941429424+951609674+963958080
1414+970902043+972914140+974748192+976554395+976235296+977635786+981365937
1400+983533325+985217250+987988498+994423661+1005221590+1011963499+1011181315
1387+1009807417+1011388674+1012795097+1014620494+1018305627+1021518183
1375+1024900061+1031213922+1035774274+1034618203+1031497914+1028006460
1364+1023344976+1021141085+1023269668+1026482085+1028832195+1030699678
1352+1031954019+1030165823+1025065473+1021228188+1018977745+1013445997
1341+1006324059+1004078570+1006022059+1007050267+1004989733+1000875296
1329+998184033+997458522+996736152+997269938+999640009+1002217159+1004901583
1315+1009020208+1014316610+1018171412+1020227549+1021705022+1023567829
1304+1027095925+1030592823+1031722582+1030892171+1029765693+1030226125
1292+1033477208+1038323786+1041859490+1045482087+1052350882+1060543324
1281+1067267435+1071532139+1073061469+1073417140+1073741823+1072967875
1269+1071321640+1071338181+1071422981+1067056796+1060715017+1057937418
1258+1058988379+1060981701+1060440866+1055890355+1049647404+1044872016
1246+1042660657+1041897388+1041710130+1042100280+1042303939+1041916930
1234+1040864364+1038733548+1036106843+1033051673+1029639854+1028237479
1223+1028874909+1027927593+1025768091+1025811573+1026484319+1024831593
1211+1022596015+1022002136+1022568865+1023136990+1023590652+1024375837
1200+1025095973+1025788052+1027452923+1027772859+1023029297+1017900890
1188+1018740933+1021045677+1019182172+1015993904+1014154827+1013312481
1177+1013784987+1014653018+1014220922+1013415357+1012502449+1009597685
1165+1005757609+1004756202+1006271085+1004970191+1000212601+997300508+996841472
1151+995114973+991814475+988995628+987279459+986066366+984049314+981222719
1138+979769046+980140211+979977661+978183880+975138690+969547687+962616078
1124+959834709+961187321+960738893+958742849+959026912+958050561+952195736
1111+945298953+941131194+939062354+935394251+930365301+928921608+930241905
1097+930088357+927469959+923563020+921514909+922312517+923717335+924758943
1084+924651320+922961394+922770925+925224540+926961019+927805110+929225213
1070+930517033+932296925+933258619+930828664+928411343+930561073+934973601
1057+937278624+938616160+939804266+938210726+935644044+935986315+937588650
1043+936594013+933430173+931820928+933620432+936298155+937144550+937849959
1030+938385420+936877587+936361738+936708266+935334647+936456728+939527393
1016+938242691+936055481+938002809+939862545+939452085+940221496+940613739
1003+936930630+932362322+931322528+932733208+934796813+937988989+940674530
989+941658489+943534417+946607036+949246303+951982235+954110818+954951838
976+956611474+958907773+959169431+957656014+956393996+955245183+953244114
962+951983282+953285572+955320142+955770803+955283291+954927690+954314966
949+953446168+953242369+953424044+953267076+953040525+952674524+951462827
935+949535042+948187316+947169158+944732504+940959290+937816039+936985489
922+937556894+938447677+939569479+938594524+935934947+933958585+930503633
908+925998907+924759222+926396175+927054474+925771936+924728583+924920168
895+925318902+924725093+922574245+920310541+918801521+917127926+917455679
881+921817607+926996126+929724241+930219919+930156407+931019900+933132221
868+935522672+937210784+938496952+940812025+946245781+953892014+960123867
854+965452862+971603615+977747457+984237619+991362349+998468095+1006707717
841+1015774192+1021348583+1023898026+1028153586+1031778278+1032043007
829+1031658720+1030476337+1028651428+1029822575+1033394641+1036706655
818+1039829526+1040587281+1035954134+1029730237+1028448467+1031889809
806+1034190504+1032530170+1028874630+1025670937+1023751248+1022865141
795+1022657783+1022370789+1020516148+1017244336+1014191329+1010876175
783+1006286649+1000653700+995733977+994516557+993724673+986541385+977318851
770+973614874+973467678+973777773+973344840+969682181+963455702+959836664
756+967159330+981327829+981350791+968392942+961099031+959830033+958239424
743+955846251+954101885+954545427+954323551+950554525+947040179+945188330
729+940709288+934137048+931076852+931155441+928732954+924536020+922424607
716+922396549+925366083+930287969+933557757+935559524+937511039+940657431
702+946839800+954038372+960129729+965058595+964429051+956390157+949519129
689+949967347+953324866+954857128+954752297+953242858+952042956+951270335
675+950364825+953304067+955832083+947931102+938498278+941155273+945779696
662+947768481+949737933+950404817+949050810+947008771+942601338+939350744
648+940180597+938431415+932442236+931321621+941587299+953379375+951161386
635+944535056+946110311+941066006+920754153+909469759+924266964+948030070
621+954641603+945825760+935319362+926877266+915765194+908134107+919899872
608+942236733+947047228+933571297+922178652+920949227
##END=
