##TITLE=Sample description
##JCAMP-DX=4.24
##DATA TYPE=INFRARED SPECTRUM
##DATE=13/9/2023
##SAMPLING PROCEDURE=Instrument type and / or accessory
##ORIGIN=Default
##XUNITS=1/CM
##YUNITS=ABSORBANCE
##RESOLUTION=4
##FIRSTX=4397.6552
##LASTX=599.8556
##DELTAX=-1.9287962
##MAXY=1.6859845
##MINY=0.28529775
##XFACTOR=1
##YFACTOR=1.5701954e-009
##NPOINTS=1970
##FIRSTY=0.32634321
##XYDATA=(X++(Y..Y))
4398+207836047+209630056+210300145+208780093+206318766+206017914+207537719
4384+208072367+206903863+205814733+206708274+208202038+208270689+208321366
4371+209126478+208904317+207103437+205490573+205160947+205205342+205347122
4357+205788502+205635467+205064453+205376731+206061492+205481766+204508737
4344+204962379+205382976+204240493+203032928+202870326+203513141+204333969
4330+204316717+203234040+202261125+202412244+203204108+203743008+203981321
4317+204394933+204850112+204761285+204335393+204176454+204588453+205132022
4303+205102394+204675989+204260688+204021236+204137868+204378762+203859412
4290+202865012+202903199+203687510+204193441+204357922+204286671+204272512
4276+203860380+203183268+203612425+204065763+202850492+201472335+201564350
4263+202395010+202928424+203671814+204566152+204097611+202826976+202311650
4249+202691933+203741243+203852010+202303033+201598191+202378383+202822534
4236+203353140+204757869+205590750+205149863+204373182+204053160+204205456
4222+204065269+203390302+203219672+204112776+204823938+204103837+203009032
4209+203229921+204177954+204211415+203314876+202545426+202252963+202271184
4195+202372708+202364224+202729153+203424656+203272949+202368552+202110670
4182+202863493+203490194+203252944+202698424+201957084+200931974+200162790
4168+199871845+200051093+200546167+200878849+201169964+201500425+201164631
4155+200510940+200607890+201137679+201245979+200874237+200588929+200656840
4141+200686069+200504449+200453108+200766145+201015429+201012107+201217205
4128+201175316+200602557+200629394+201418204+201852219+201607093+201426991
4114+201896386+202377890+201904528+200620018+199431585+199094139+199543169
4101+200021047+200235161+200753694+201591434+201738890+201083719+200516824
4087+200147796+199642681+199327157+199803100+200748361+201183763+201180764
4074+201212745+200998024+200774573+201024046+201243227+200935466+200402792
4060+200371133+200904035+201293220+201466849+201392505+200618329+199630344
4047+199378346+200079619+201096454+201510845+201084668+200358132+199887808
4033+199777572+199833544+200062177+200490802+200749538+200783474+200802720
4020+200800575+201045246+201586936+202062746+202075291+201534285+201380965
4006+201848120+201743787+201180536+201084136+201057621+200529313+199932524
3993+199937573+200486000+201081214+201659079+202419627+203051187+202931594
3979+202562205+202709205+202554726+201756826+201283787+201330212+201843128
3966+202607700+202708332+202272190+202023248+202085009+202524776+202775749
3952+202110613+201030385+200843869+201126462+200644009+201132573+203438853
3939+204771705+203675401+201093797+199184997+200109323+202376428+202701271
3925+201751872+201905136+201752897+200353577+200524663+203571561+206431071
3912+206786623+205255012+201436823+194819424+189869666+190231652+193921119
3898+199423367+203256266+201730235+198509498+199537550+200631729+198829900
3885+198200978+197583672+197266270+201066200+202882606+199788162+196101827
3871+193493272+194360715+196775105+196764799+198432098+203057108+205099813
3858+201233376+190371801+181695697+189962535+201690889+206455631+204571580
3844+199613357+194403022+190024391+189921614+194837303+198866303+201206956
3831+204237228+206060448+205433083+202315370+195638658+192502117+196168466
3817+198749595+202779089+209013054+210827524+206494255+201496762+200413079
3804+198235712+196898760+201570575+205592837+208499872+212826821+215728902
3790+216269415+215340078+213974314+213933811+213865369+212645790+213951823
3777+217699255+219040477+216494518+213473147+214106282+217086903+220479484
3763+222419033+220588544+219537545+223132890+225767068+223821484+226141677
3750+245254165+269825552+295255878+326990205+348390734+352684620+346372135
3736+336743766+333519101+340455383+350683064+355608300+355100054+355773161
3723+360474774+367061445+373415306+378974285+383536661+389799115+405154853
3709+429850767+458070206+487324207+516175224+540710833+555091834+557151810
3696+549968598+536517162+516894718+497965045+491040568+490803242+486839267
3682+478105503+467125947+453025509+436360265+427979528+424743209+419000162
3669+418824521+422207518+420481741+414945463+408872809+401198281+392129215
3655+385623248+377635739+362937430+351590156+354747557+362668825+366860978
3642+367427076+366454882+364508292+361559596+357220196+349907806+340435074
3628+338546829+343533105+343705519+334943095+321465580+313463742+310801682
3615+306867164+303895502+304090047+305794566+309064081+311672845+310490182
3601+307175323+304680363+302322420+299708721+297909985+294705970+287581710
3588+281604659+281801330+282743972+281061394+278472027+276077946+274158365
3574+272873191+270586062+264896576+257450871+254943707+257638887+259694877
3561+259866134+259211096+257489552+254673811+252377970+251491243+249780878
3547+246809273+245797240+247057437+247583335+246454347+245235774+244798247
3534+243996873+241787353+238962331+237090484+236517990+236615566+237057117
3520+237275368+236650736+235793618+235083538+233803811+232467505+232121119
3507+231494229+229810512+229194934+230018096+230187626+229724134+229851395
3493+230093656+229205069+227452322+226227694+225875159+225793868+226010563
3480+226678260+227025462+226561343+225980081+225954173+226156993+226014852
3466+225470145+224568708+223631381+223373139+223715120+223882144+223733455
3453+223455322+222631210+221407436+221000448+221415901+221767145+222232364
3439+222719429+222696672+222473999+222428428+222339848+221878539+221306595
3426+221025615+220818259+220682286+221151984+222067959+222490416+222301736
3412+222047195+221702480+221473923+221860527+222552993+222907939+222819264
3399+222640036+222708345+223194537+224000010+224531413+224493946+224514520
3385+225036224+225638953+225898486+226050383+226399672+226803263+227155892
3372+227455074+227674274+227873735+227963586+227890229+227768282+227688927
3358+227677577+227722085+227993404+228455491+228706559+228617296+228358997
3345+228275314+228495084+228700352+228783713+228789160+228680310+228375624
3331+227780050+227218147+226961518+226793678+226355145+225359738+224100908
3318+223100965+222307335+221455076+220346947+218939674+217802108+217323299
3304+216748660+215551382+214424919+214082614+214340685+214300334+213667901
3291+213249373+213095521+212695384+212617168+213293236+213938062+213666326
3277+212746896+212331462+213011458+214278032+214936525+214505394+214066329
3264+214347347+214903310+215491728+215919613+215836500+215510556+215536350
3250+216127691+216735222+216745908+216607563+216874213+217388590+217878217
3237+218182562+218580041+219314511+219966872+220245708+220146651+219901164
3223+220108160+220777414+221382288+221960931+222856028+223732316+224248629
3210+225088229+226743096+228679683+230038766+230553617+230919021+231448544
3196+231976435+232841942+234056587+235294748+236678865+238048462+238705854
3183+238691182+238807890+239318301+240117473+241166764+242018795+242498648
3169+243231884+244419880+245526282+246397521+247372107+248451595+249419632
3156+250169874+250653921+251142542+251668839+251986242+252341377+252921880
3142+253513202+253933780+254002849+253396608+252554883+252555889+253100235
3129+253327445+253424319+253594854+253706969+253593545+253102361+252461558
3115+251793329+250908443+250204190+249923096+249372277+248268494+246988578
3102+245957071+245549267+245512749+245227309+244815462+244708642+244854826
3088+245338171+245925014+245900852+245627540+245970414+246876975+247638985
3075+247831745+247701410+247491168+247266236+247207379+247464027+247809634
3061+247828481+247874792+248330312+248442275+247958570+247727792+247854863
3047+247670226+246920534+245931163+245279656+244873939+243861488+242177335
3034+240568457+239410202+238689037+238081525+237331018+236637469+236123396
3020+235917083+235872765+235233385+233911371+232517346+231332557+230343148
3007+229440516+228756040+228572864+228802977+229266298+229956089+230908297
2993+232526855+235244868+238406995+240847501+242370134+243515578+244618392
2980+245534291+245994063+246073343+245827514+245025077+243576541+241715685
2966+240078146+239294936+239210437+239157464+238761294+238166100+237765337
2953+237725328+237889599+238056605+238062716+237910952+237724777+237491456
2939+237188402+236692379+235898597+235116981+234537977+233997673+233472268
2926+233180337+233197153+233135430+232649902+231968843+231494210+231204309
2912+230929763+230920140+231451713+232362697+233272978+233937886+234216778
2899+234119031+234097773+234342957+234585237+235036752+235909719+236789499
2885+237267985+237365789+237377861+237472400+237662504+237913704+238076856
2872+238123186+238043129+237756227+237428328+237226343+237075338+236880319
2858+236602793+236280398+236004106+235655899+235041099+234448771+234295564
2845+234476007+234774487+235160369+235685242+236412044+237094736+237555703
2831+238140591+238951664+239527631+239630806+239509353+239473861+239708587
2818+240129506+240368806+240345005+240397865+240756188+241353337+242051441
2804+242782228+243466742+244080859+244677913+245194815+245486803+245633158
2791+245892463+246180599+246225164+246125139+246182592+246436620+246601480
2777+246469057+246035421+245449584+245055141+244944317+244846228+244659996
2764+244543573+244592067+244704998+244737416+244715892+244686720+244643863
2750+244784809+245129770+245303191+245131270+244778488+244495516+244428459
2737+244458903+244378751+244187166+244051858+244036104+244028000+243979164
2723+244004028+244056223+243961076+243736372+243486994+243410865+243638340
2710+243883771+243883258+243778394+243596186+243165947+242790731+242859705
2696+243076893+243033410+242733734+242286641+241866481+241696249+241647641
2683+241389969+240917101+240454178+240113924+239800981+239367383+238857219
2669+238418553+238028210+237511651+236921012+236629934+236693460+236644378
2656+236286567+235931679+235810226+235829471+235860371+235938246+235962559
2642+235755051+235554432+235652236+235880319+236035708+236196583+236351403
2629+236352333+236283340+236320541+236466194+236748275+237170276+237510227
2615+237712364+238005302+238448959+238917538+239339767+239736506+240189673
2602+240710921+241173008+241594649+242206963+243000707+243718626+244234218
2588+244552569+244792553+245132314+245426181+245484526+245649329+246120925
2575+246576617+246829259+246903851+246962651+247155943+247247636+247103160
2561+247068958+247276770+247324562+247024848+246817359+246937370+246936022
2548+246736960+246843418+247213263+247496710+247676128+247744001+247746924
2534+247879347+248149623+248336955+248294573+248158259+248160308+248371822
2521+248645532+248772945+248844728+249058310+249262705+249290264+249290454
2507+249476819+249824381+250129162+250429957+250844898+251185874+251368765
2494+251560254+251879024+252364741+252878340+253310002+253836830+254440831
2480+254844954+254978971+254852508+254516144+254188663+253937785+253731264
2467+253696739+253835084+253927251+253907341+253918387+253970108+253946611
2453+253871260+253844157+253939076+254135481+254335113+254587053+255007119
2440+255504547+255851653+255987000+256068652+256172966+256185455+256063451
2426+255937234+255920076+255994402+256047014+256052405+256182778+256482264
2413+256704102+256782850+256963217+257277356+257499346+257574867+257656007
2399+257922030+258604020+260056883+263128987+269761703+282632312+303895160
2386+334085464+371654569+413746154+458111165+504345516+553103488+604302516
2372+656465653+708238713+757975673+800953549+831195991+846869454+850323740
2359+842284643+817859043+778373033+730524887+684422143+659356460+667231797
2345+700879177+727002957+725911682+713869626+703298065+697798721+698761995
2332+703424016+704688009+699335267+690414207+679517329+665468403+648288686
2318+627978520+606884784+593554517+590956344+587704878+571903186+544014531
2305+513980300+491664707+477062817+464296028+450704482+435499483+418091399
2291+400253000+384224041+370090085+357733036+348218548+341873607+337674811
2278+334385690+331428035+328802720+326550856+324662991+323082336+321755405
2264+320622413+319510564+318329779+317194737+316117204+315004880+313934579
2251+312945265+311992601+311099782+310330693+309694046+309130928+308699798
2237+308352236+307916834+307539360+307472626+307614635+307634374+307425727
2224+307196296+307173198+307346580+307526890+307644528+307825351+308195423
2210+308732709+309251319+309581950+309898157+310462205+311158810+311790350
2197+312421303+313127492+313774520+314374175+315123619+315943575+316734396
2183+317675804+318742784+319621559+320345684+321150968+321995578+322904037
2170+323964147+325104276+326246189+327302768+328245315+329156660+330132763
2156+331182054+332235976+333323075+334485828+335621972+336662873+337668282
2143+338798010+340190042+341671622+343045508+344466883+346024459+347553906
2129+349047519+350594731+352121293+353679817+355389575+357150881+358874000
2116+360571724+362413734+364640848+367176957+369671917+371968992+374382451
2102+377218406+380315678+383504851+386966918+390878698+395200294+399826140
2089+404693487+409814369+415225228+421067806+427531562+434424304+441258739
2075+447920684+454789587+462069369+469489983+476756556+483988470+491480297
2062+499216776+507086647+514877827+522366351+529780018+537320054+544838491
2048+552055032+558858188+565507796+572263313+579081463+585771043+592436519
2035+599075726+605168764+610644838+616159214+622033185+627729503+632846020
2021+637626856+642160876+646573652+651233017+656011575+660480380+664508014
2008+668034879+670916197+673484723+676304393+679216534+681828259+684029105
1994+685539382+686630884+688277590+690480106+692394733+693865760+695381807
1981+696946595+698097922+698793653+699250616+699479970+699165358+698086458
1967+697380933+698288861+699704542+700466931+701140190+701952990+702579634
1954+703077745+703756015+704517265+704514683+703665746+703334658+705043163
1940+708570711+712213734+715343841+718095031+720591510+723276270+726449044
1927+729717629+732448017+735606291+740164682+745126739+750717490+757436186
1913+763626326+768676071+773985690+780231252+786755819+793269758+799738601
1900+805854111+811468474+817055809+822817152+827229549+830656124+836250671
1886+843005960+847445535+850017934+852848688+856172771+859291566+861952715
1873+862790493+859878656+856067850+857014876+860594809+861351428+859186417
1859+856803287+854715182+851898701+848378972+844532863+839796136+833577754
1846+826070781+820852873+820954682+821037587+817446949+812969792+808924469
1832+802476657+793909840+788503726+786328162+784241044+782622277+781217073
1819+779163588+776548523+773104410+768657015+764763228+763159038+762491473
1805+760573657+756941718+753381752+752344609+752676379+750965597+746271841
1792+743284464+746103754+749757482+750434460+749576640+748525755+747784472
1778+747756229+746429071+741785043+737203952+739186452+745500797+750772305
1765+752399878+750654704+749959201+751420282+752804228+754212621+753491153
1751+749818218+748247963+751090182+754655463+756680933+757365808+758561320
1738+760209772+758209887+755437515+760234750+767827285+774321636+779072105
1724+781254122+781485071+777811528+770308731+769264906+779087365+790001705
1711+796401080+797470717+795520711+795156371+795072024+791783851+791897731
1697+798878655+809817593+822172212+830183445+833794582+833488852+827637923
1684+826522885+839424204+852490194+858220031+859278356+862220333+866355014
1670+869086389+876338271+886349998+891315699+893627616+899397463+905661625
1657+905784387+896792874+891519089+902294951+908173363+907691119+915032586
1643+926864420+932912058+931214182+923554686+920312445+930491727+940851699
1630+943385075+942541679+942935476+944346298+947996306+950818785+948709575
1616+948615206+955871111+962046219+964117470+965034052+966412836+968480746
1603+970935089+972228690+972054302+972106231+973301896+974930988+976253287
1589+978364395+982275188+985298779+985424427+985260212+984973614+981813139
1576+980587941+985655072+988049362+986178161+988988873+995324703+997781476
1562+992983785+978292879+969936133+986427786+1005610881+1017350699+1022517210
1549+1025839470+1027470308+1023557314+1014672013+1007946181+1019012893
1537+1038334617+1046804636+1047514260+1049663025+1052250228+1051736705
1526+1048436841+1043299028+1039248391+1040744471+1046289139+1055338959
1514+1065027797+1067066782+1058324286+1043065878+1039037257+1054054619
1503+1065194594+1065504347+1060695497+1060094741+1065329352+1067767524
1491+1063985567+1060753272+1064592396+1070770920+1073741823+1073413545
1479+1071374788+1066876222+1058923675+1050728942+1050881238+1058474836
1468+1062136383+1058559107+1054449479+1051348981+1041034637+1022874793
1456+1014983816+1020762014+1023451861+1019787505+1013858909+1009181780
1445+1004621263+998132150+990674905+980158689+965474996+956314257+952283966
1431+945417834+939098706+936149744+933127291+930580630+929331973+930054732
1418+938001813+950269579+959389398+964141992+967207870+971705070+977738207
1404+982534911+985406130+988968678+993482807+995735279+997692118+1002972508
1391+1007155778+1006685681+1005578691+1008211977+1012920310+1016768089
1379+1018552514+1018627371+1018941148+1022309340+1028515500+1034097748
1368+1037193008+1037199840+1033824967+1031083798+1032446715+1033865281
1356+1032617003+1031648416+1032073112+1031873898+1030449866+1027786591
1344+1023606282+1017894439+1011781965+1007377236+1004093012+1000186698
1333+996385230+994947988+996876736+999651538+1000756858+1001468001+1003773312
1319+1007121310+1009773424+1011503111+1012435788+1013095685+1015630503
1308+1019221521+1021447041+1023514647+1025706686+1026736845+1027955134
1296+1030058802+1031321049+1031226680+1031700345+1034249132+1037873479
1285+1041417502+1045447034+1049089525+1050616733+1052083432+1055428392
1273+1057222762+1053457888+1045948258+1039622297+1035627537+1031732307
1261+1027262439+1023765639+1022130701+1020783500+1018238508+1015064368
1250+1011593152+1008292604+1005954267+1003522548+1000746457+999192222+998947000
1236+999375948+1000260568+1000699614+1000023015+998744521+997461700+996550356
1223+996290710+996650723+997983878+1000283041+1002826741+1004700524+1004235893
1209+1002128049+1001208658+1001255121+1001503835+1002839192+1004050800
1198+1003472669+1001603821+999676515+998767753+998434008+997359512+995379290
1184+993370597+991961598+990023891+987261009+985535726+985063427+984366785
1171+983060201+981973862+981177157+980047922+978470456+975762008+971901095
1157+968745251+967054360+965742462+963904514+961271607+958648039+957079682
1144+956006856+954743243+952945837+949908732+946435618+943852590+941501347
1130+938687447+936053933+933891351+932801063+932141773+929181272+924579379
1117+920542179+916955565+914444054+913556777+912211474+908272591+903693246
1103+901791525+901913225+900840095+897429008+894662254+894659825+894825786
1090+893260770+891702891+891997157+893570069+894714639+895873255+898816067
1076+903040410+905995749+906714484+906729744+906860250+907141534+908268643
1063+909844970+911998670+915679501+918722680+918929182+917770339+917605289
1049+918695272+919402544+919592268+920456541+921994605+923223447+922852046
1036+920639812+918220620+918005843+919216160+918004476+914863816+913541137
1022+914423252+915711691+916485316+916182319+913831987+909531573+904886405
1009+901627690+900469454+900439237+899543229+897064668+894333672+892542643
995+892575213+895203488+900065407+906479587+912608763+916619011+920495488
982+926281582+931253661+933010982+933225684+931893591+927665376+922647442
968+919511109+918784175+919143808+918880441+917766239+916251027+914622922
955+913205115+912205097+911214416+910378385+910633096+910533110+908472033
941+906089282+904497619+903081786+900591609+896127359+892348743+891441802
928+890573049+887200606+882284783+878085343+875875538+873776881+869390297
914+864284447+861231399+859441584+857337764+855264995+852561103+848935846
901+845787670+842950462+840595498+840437813+841261165+840471293+839110730
887+838642152+838376735+838847819+840956270+843906447+847371665+851073070
874+853423099+855157720+858861403+863711403+867983803+873042810+880448126
860+889685848+899586276+909727978+920481671+932505658+945812011+960294289
847+975112285+987533941+996699160+1003568176+1009480753+1016035081+1021225582
833+1023021926+1024521726+1029312204+1035761839+1038057433+1033978705
822+1029337865+1029928599+1032613056+1032504718+1032371858+1035144989
810+1037370433+1035307458+1029874772+1025699474+1025745861+1025873406
799+1022326043+1017784506+1013511955+1008956145+1005312363+1002361124+998324380
785+992383409+983796322+973223546+964740166+960041247+955908616+950986492
772+946592924+942566353+938640984+934321969+929599515+926997736+926442684
758+925766237+925457242+925523824+925191598+925338048+925819229+924429057
745+920888223+917326814+914738928+913129043+912360505+911772580+910792680
731+909312164+907403762+905464612+903765826+902136126+900730998+897730335
718+891816164+888115746+890357512+895359200+900081502+903963445+907574202
704+913352324+920487972+925093965+926799736+927761871+929513422+932418274
691+935418482+937378965+938883776+940205240+940029637+940211845+943379457
677+946304428+946125333+946845966+949520401+946047439+934871099+931397074
664+933854302+933652278+932072534+932798785+933245651+932643681+933044083
650+933872371+931909306+924534130+914249547+907988498+912136085+923494861
637+935450824+950063760+959280832+951536457+940640717+936969756+932570570
623+928063957+929024117+924763181+912923756+912635259+921699656+921244060
609+916769181+920137677+930536065+945236689+959528711+968684211
##END=
