##TITLE=Sample description
##JCAMP-DX=4.24
##DATA TYPE=INFRARED SPECTRUM
##DATE=13/9/2023
##SAMPLING PROCEDURE=Instrument type and / or accessory
##ORIGIN=Default
##XUNITS=1/CM
##YUNITS=ABSORBANCE
##RESOLUTION=4
##FIRSTX=4397.6552
##LASTX=599.8556
##DELTAX=-1.9287962
##MAXY=1.6761259
##MINY=0.28796139
##XFACTOR=1
##YFACTOR=1.5610139e-009
##NPOINTS=1970
##FIRSTY=0.30801278
##XYDATA=(X++(Y..Y))
4398+197315852+197473702+198299072+199072723+199671112+200335578+199859604
4384+197934345+196947785+197834439+199198212+199961420+199677069+198599957
4371+197738255+197667673+197947538+198421087+199073601+199052390+198345847
4357+197567328+196500047+195292291+194767309+195243817+196150842+196529029
4344+195640962+194163249+194214587+195659347+195818667+194737010+194655126
4330+195426715+195991771+196373890+196473033+196462093+196667233+196463983
4317+195766986+195490901+195337309+194653847+194337441+194552910+194009256
4303+192920631+192828113+193579350+193784929+193622459+193874774+194100037
4290+194086520+194355197+194797989+195230033+195864009+196042841+195404760
4276+194681893+193844285+193002897+192836838+193034742+193168174+192937737
4263+192283199+192365007+193603234+194703428+194954044+194672901+193980886
4249+193473029+194182417+195383740+195740028+195546267+195208479+194757496
4236+194355769+193829928+193563829+193986594+194491530+195021438+195619159
4222+195534220+195510833+196037495+195659729+194560890+194123596+194482041
4209+194820021+194349565+193268233+191990181+191346105+192347500+193760492
4195+193754344+193354603+194508254+196209339+196140762+194578111+193452563
4182+193582577+194054961+193877505+193560163+193763432+194236065+194471904
4168+194520645+195151165+195792988+195124762+194074110+194026610+194393914
4155+193957670+193048393+192973992+193318883+192770017+191854115+191884318
4141+192831664+193814521+194036805+193279898+192337362+191957763+191729179
4128+191015037+190661784+191375163+191783590+191341523+191229723+191743861
4114+192131230+192083367+191863966+191339404+190607144+190543282+191422605
4101+192526962+193327112+193549816+192844379+192254142+192950414+193411382
4087+192330967+191296849+191437898+191871297+192019372+192021758+192045165
4074+192159581+192000299+191480453+191150416+191077906+190959194+191133157
4060+191547331+191212769+190453036+190670051+191599699+191966106+191488777
4047+190705332+190371973+190737845+191360443+191723012+191373941+190766445
4033+190905184+191418921+191413709+191151008+191264240+191669098+191806195
4020+191685364+191890923+192443378+193147268+194002498+194484695+194564842
4006+194711848+194073709+192627288+192039113+191945812+191350382+191280869
3993+191979623+192408555+192481371+193078309+194421196+195254795+194732486
3979+193666523+193150266+193223711+193302121+193401359+193499280+193249542
3966+192939551+193130868+194059505+195020884+195175393+195053626+195019949
3952+194470930+193725879+193788843+194091102+193896978+194496666+196113403
3939+196860784+196108573+194541817+193510639+194639948+196537773+196313637
3925+194976763+195192002+195674601+194763815+194566560+196506844+197951089
3912+197630235+196966265+195355962+191480988+188303565+189004496+191578470
3898+194113325+195524541+194574731+193634411+195726473+197215049+196057961
3885+195203286+194484829+194050513+195905419+196470035+194553769+192850279
3871+191867994+192824333+194184995+193603730+194478433+197638272+198883525
3858+196057331+189066257+184470746+190703939+198344682+201436116+200074691
3844+196608202+193585192+191499640+191512737+193885657+195835257+197263102
3831+199303675+200720580+200655325+198644001+193790046+191099231+193848447
3817+196530460+199278741+202682266+203557026+200949031+197790681+197142157
3804+196479581+196286126+199151361+201526171+203199363+205644392+207285376
3790+207693631+207522914+207394847+207977448+207926282+206960894+208180201
3777+211285266+212538155+210855093+208697031+209151336+211394222+213971155
3763+215739901+215258791+215471148+219088823+222844684+224897857+232162610
3750+252719004+276952754+302953149+332067240+348312396+350873464+346335762
3736+339399958+337107205+341504736+347534832+350644594+351035705+352004415
3723+355920646+362440786+369196288+374959292+380697630+389695789+406593995
3709+429992753+456725867+486351365+516034519+537705369+547294415+548340981
3696+542791727+529868325+511113572+493997225+486274502+484551825+480437193
3682+471588636+460713730+448453075+435153606+429246079+427802292+421552031
3669+415949626+414326837+411521014+406788195+401172808+394744346+388441888
3655+383949777+378128849+367445012+358266245+358760146+362369307+363283644
3642+362539223+361820155+360383547+357905490+355178210+351424182+345212601
3628+341426766+341896382+339882595+332252199+321690434+314388109+310092336
3615+305376166+302795204+303477712+305031466+307086452+308313186+306906743
3601+304407112+302467783+300048642+297092969+294936663+292066406+286086082
3588+280432989+279383273+279208451+276971349+273779322+270790964+268011850
3574+265456644+262830454+258892058+254119013+252243927+253127737+253105323
3561+251895123+250623161+249367122+247800691+246114001+244685984+242904295
3547+240880752+239844744+239766526+239530610+238524862+237335262+236487555
3534+235347039+233608974+231865964+230522580+229498218+228759906+228513166
3520+228490294+227963135+227118215+226415967+225491206+224479006+223961049
3507+223360350+222260308+221914769+222507755+222371975+221350152+220734428
3493+220644582+220031263+218943269+218447249+218520541+218434304+217994758
3480+217506794+217242986+216907087+216469125+216604867+217130498+217128913
3466+216344247+215126142+214227174+214065334+214219461+214292907+214170109
3453+213867048+213343785+212530271+211854904+211759102+212020848+212360164
3439+212716185+212898911+212771761+212505203+212451995+212755189+212994923
3426+212634034+211809886+211224937+211211954+211617785+212248822+212674317
3412+212663339+212653813+212876879+213008898+213132612+213536209+213672218
3399+213278816+213144124+213590487+214133663+214430538+214626151+215019210
3385+215519850+215838814+216113906+216520253+216694025+216593354+216711379
3372+217174638+217808805+218283710+218428214+218609375+218946571+219147759
3358+219217062+219341406+219462313+219618502+219986818+220116660+219741662
3345+219682249+220184550+220532992+220341178+219648514+218973071+218563803
3331+217932996+217154210+216601621+216141245+215702882+215371680+214980282
3318+214231852+213193266+212171863+211249450+210456288+209815076+209021016
3304+207880691+206604740+205524000+205136115+205249290+204941208+204211678
3291+203711019+203658765+203741260+203769478+204434516+205562947+205560656
3277+204524877+204067403+204433122+205049973+205701590+206065515+206125692
3264+206322966+206511610+206281289+206133844+206722860+207511249+207668259
3250+207340837+207023496+206851614+206935140+207628491+208820898+209633343
3237+209871759+210297999+210946466+211086618+210775920+210805818+211311555
3223+212070391+213125185+213970239+214207758+214638389+215653931+216493505
3210+217029618+217859340+218991990+220077331+221140106+222319473+223272910
3196+223877714+224834778+226244314+227336681+228076597+228976272+229908345
3183+230486402+230849143+231371968+232173855+233088975+233822686+234606016
3169+235989167+237435035+237989628+238072448+238725821+240060651+241628438
3156+242980318+243449189+243140573+243258292+244081944+244750915+245010046
3142+245108253+245189355+245323855+245399840+245269597+244839443+244412993
3129+244446690+244894045+245394914+245394036+244788373+244102563+243721913
3115+243664409+243454306+242951031+242492889+241827469+240580899+238940258
3102+237493608+236766541+236530301+236207576+236101369+236705810+237357885
3088+237407314+237158378+237139840+237671122+238462013+238939437+239073060
3075+239129380+239328964+239773418+240278621+240548214+240527595+240487350
3061+240618624+240836078+241009258+241074704+240995474+240516064+239679124
3047+239121820+238842910+238208628+237128652+236076970+235265193+234318992
3034+233201176+232263108+231291420+230083377+229036735+228380536+227944292
3020+227583173+227220451+226741308+225961548+224845756+223645999+222563369
3007+221705238+221201199+221028000+221131839+221566957+222278025+223238106
2993+224837871+227472041+230701469+233535318+235443318+236582879+237402961
2980+238062787+238438663+238654838+238542388+237606898+236078211+234563690
2966+233154803+231872321+231200391+231123375+230778714+229947807+229350907
2953+229255716+229288611+229450088+229896355+230287276+230284297+229875163
2939+229142445+228184656+227241757+226569445+226158268+225891845+225717691
2926+225612056+225389658+224823094+224134802+223730919+223578281+223370086
2912+223187609+223372874+223832314+224260253+224711962+225338091+225885449
2899+226128944+226294277+226572290+227001699+227565514+228163960+228866304
2885+229674396+230332198+230633216+230555265+230413472+230495814+230582394
2872+230580886+230573517+230242754+229626648+229224520+229031084+228855822
2858+228728596+228610132+228444627+228165239+227640009+226873365+226242062
2845+226165504+226547223+227069054+227549878+227948377+228473703+229328703
2831+230271850+230889808+231156843+231358374+231731960+232176757+232450550
2818+232619148+232672777+232561014+232671593+233199611+233882118+234566821
2804+235255590+235963184+236637080+237142933+237532555+237850603+238023401
2791+238209220+238456209+238567017+238466289+238160995+237822137+237659285
2777+237668507+237753999+237784813+237721658+237442328+236776297+236249768
2764+236409050+236727804+236658692+236515619+236673202+236962268+237101790
2750+237218593+237360463+237228730+236912840+236761940+236657127+236393910
2737+236177220+236078173+235880879+235628564+235416781+235215402+235202725
2723+235441619+235658118+235710945+235607029+235329513+235093903+235039453
2710+234916541+234739008+234777631+234922899+234942143+234816539+234582724
2696+234318324+234136018+234088709+234142032+234090217+233784884+233323229
2683+232751759+232227101+231979025+231748111+231293234+230867585+230548316
2669+230140537+229682892+229307015+228985493+228656219+228316350+228010349
2656+227743200+227457741+227205827+227179901+227379141+227519541+227500736
2642+227475401+227482789+227476871+227483229+227550928+227612231+227566812
2629+227585445+227842896+228151379+228357798+228562747+228825085+229115927
2615+229420878+229751068+230119727+230534913+231034580+231544136+231944106
2602+232402382+233042849+233691335+234289744+234830744+235281535+235806670
2588+236382322+236748117+236992758+237310195+237580513+237800583+238099481
2575+238386505+238647259+239012883+239380932+239531240+239443113+239223311
2561+239036251+238983978+238970652+238992970+239141618+239340820+239468333
2548+239481144+239465107+239581298+239799497+239928480+239990394+240089403
2534+240207543+240412453+240601231+240588975+240517686+240478148+240488972
2521+240629010+240764942+240834417+241002519+241233241+241337252+241380094
2507+241530231+241759560+241979228+242180511+242405545+242661143+242929687
2494+243266349+243695071+244132117+244508699+244893262+245425346+246027955
2480+246394591+246433423+246362002+246209039+245899449+245658207+245584132
2467+245567140+245597668+245593983+245553547+245532947+245431647+245334928
2453+245419504+245625560+245825851+245992635+246189776+246454768+246783946
2440+247134965+247360418+247416758+247430790+247446636+247446483+247492227
2426+247606490+247708039+247789999+247917780+248059802+248222330+248463476
2413+248651357+248729289+248882347+249140160+249382452+249570524+249748917
2399+250050278+250598533+251581199+253913606+259754943+271878997+292610900
2386+322967513+361688346+405671449+452444298+501490886+553566173+609161997
2372+666491457+722307637+772874837+815802324+850711472+872913681+877779454
2359+865539571+834949563+791052068+740735580+693250536+668571530+679065214
2345+716788090+746704239+747622013+735339976+723970138+717662335+716848343
2332+718934296+717802314+711068844+701348295+689187757+673022480+653515554
2318+631105781+608284431+593497532+588891062+582769746+563979367+534299802
2305+503979291+481462873+466054617+452519367+438551996+423165390+405608828
2291+387661040+371620775+357591547+345305730+335817297+329707589+326020152
2278+323492800+321388863+319341226+317419633+315876933+314641742+313509111
2264+312345150+311110322+309882977+308715523+307588601+306536479+305559121
2251+304555817+303584014+302701178+301874185+301191716+300654974+300191486
2237+299808336+299427629+298998850+298696171+298593210+298577268+298624997
2224+298730803+298861046+298910131+298838690+298820648+298974145+299354508
2210+299886554+300341202+300720649+301225069+301818075+302277649+302703965
2197+303382158+304281852+305135764+305790244+306369237+307039678+307787555
2183+308611493+309554372+310470847+311240985+312018989+312932448+313938043
2170+315002307+316080240+317057980+317962523+318975812+320102525+321200695
2156+322247910+323257438+324235465+325318649+326574993+327857265+329068553
2143+330272625+331548100+332914947+334349798+335759678+337082691+338436938
2129+339920053+341436082+342905452+344392004+345971264+347677561+349515208
2116+351464885+353503758+355607047+357809344+360146543+362644723+365320188
2102+368121467+371155740+374580552+378373642+382542188+387045907+391732562
2089+396698910+402165421+408065159+414308661+420952668+428014171+435369762
2075+442645970+449752185+456965123+464228960+471367440+478472892+485693963
2062+492907779+499894519+506725357+513685216+520983608+528367875+535392073
2048+542025197+548664584+555680267+562800687+569524841+575845130+582031854
2035+588215981+594312592+600377855+606503829+612394251+617762669+622671436
2021+627333425+632030924+636928962+641810008+646401472+650823326+654863729
2008+657842637+660289498+663278181+666379427+668999565+671693549+674583947
1994+676833783+678365849+679910974+681650070+683388479+684703359+685437013
1981+686067801+686598014+686944794+687538545+688207439+688186591+687577415
1967+687429951+687967114+688470828+688988440+689725149+690248336+690730209
1954+691509912+692210117+692792107+693534390+694167851+694607493+696060291
1940+699101667+702321740+704993195+707504663+710142823+713125014+716584649
1927+720303244+724092019+728613989+733782479+738425491+743067892+748793858
1913+755012006+760733467+766104099+772360126+779727210+787067413+793607752
1900+799403517+804858840+810571442+816673055+822180231+826939625+832192501
1886+837641714+842344903+846600583+850148956+852617048+854460384+855664150
1873+855735171+854286345+852712582+853135424+853885955+853213547+851816115
1859+849847995+847607858+846245249+844941137+841878227+836918294+830901218
1846+824221510+818131581+814827581+812723376+809365843+804949029+800066226
1832+794126968+787609768+783016089+780114617+777341365+775085573+772763723
1819+769674695+766493722+763517258+759994620+756350789+754015499+752374916
1805+750398854+747883645+745164612+743491344+742599688+740733213+737760644
1792+736711290+739248112+741623418+741600126+740682963+740240572+740061339
1778+739849193+738604571+735347765+732331362+733619360+737524976+740749402
1765+742077264+741623418+741566525+742797172+744767659+747174123+747475236
1751+744905959+743531742+745696047+748997527+751581772+752835483+753347368
1738+753769980+752399124+751161069+755327019+761453375+766408267+769818952
1724+771968594+773465456+772630311+769209317+769950455+777592306+785499530
1711+790564238+792498680+792384207+793071582+793912455+792691277+794134681
1697+800591170+809223725+818380154+824697808+827805088+828765474+827646169
1684+829716314+839027538+847828252+852576115+855090485+858284441+860946045
1670+863017641+870017402+879693124+885784962+890292499+896426263+900895693
1657+900021067+893217645+891639529+903431828+910129787+910448465+915565026
1643+923939156+928800729+929428920+925966765+923854313+929724612+935812708
1630+937430458+937762729+939888163+943372007+947764841+950310750+948524918
1616+948074584+952957845+955955157+955458010+955347126+957243919+959824728
1603+961699680+963070537+963903925+963871698+964526389+966965614+970094735
1589+972049719+972790857+974517199+977640898+980762840+981717041+978285661
1576+975588241+979836666+983698753+983494855+985198287+990025801+993455118
1562+992816465+986066270+982967772+994207405+1005535929+1013256743+1019501391
1549+1025489218+1029860823+1029688235+1024964427+1021024752+1028154106
1537+1039963129+1045717350+1049037006+1053688036+1055348932+1054227336
1526+1054254141+1052207746+1046845590+1047057431+1053117501+1060632354
1514+1068163321+1070871432+1065497058+1054841400+1052364832+1063606756
1503+1071311304+1070998888+1067369796+1067743610+1072652836+1073741823
1491+1069018168+1065546696+1067676942+1071154371+1072070693+1070570701
1479+1069505463+1068512011+1064343846+1058078350+1056428527+1059599954
1468+1059364364+1052219201+1045670690+1044837455+1041078692+1028823230
1456+1020428176+1022573160+1022896267+1017697842+1010684411+1005232449
1445+1000422881+994228101+987243003+978605637+966777829+957834004+953166784
1431+946671501+938956644+934491108+933771277+935621792+938429180+942143956
1418+948982659+956649940+962305343+967271233+972284546+975357843+976753060
1404+979825364+984007274+987202757+991826372+997808395+1001531571+1004284205
1391+1007220576+1008164009+1008010130+1009164564+1010619576+1011845489
1379+1014340690+1018200181+1021666613+1024835597+1028302868+1030979746
1368+1033075932+1033635623+1031458717+1029643713+1029572005+1030290309
1356+1032503259+1033631652+1030181410+1024835368+1021751380+1021085158
1344+1020903100+1018375060+1012488801+1006438353+1002353734+999475859+996770726
1331+993734773+992489845+994564954+997628170+1000257930+1002714413+1004190961
1317+1005444518+1008230295+1011958435+1014877013+1016821764+1019130555
1306+1021217424+1022421573+1024951368+1027618929+1026762860+1024934568
1294+1026072964+1028503102+1030299702+1033200868+1037468538+1041204238
1283+1044397507+1046648335+1046754103+1046413050+1047151744+1046830622
1271+1043800473+1040161071+1037797602+1034536214+1027845967+1020305455
1260+1014940703+1010906180+1008474897+1007908028+1006310516+1002552822
1248+998628725+996153913+995408728+995252100+994248109+992589274+991753824
1234+992169869+992233024+991756420+992895351+994999021+995407354+994411304
1221+993691167+993811827+994992378+996738499+997346454+996634106+996051277
1207+995822177+995885332+996224934+995991329+994754190+993588073+993899343
1194+994865456+994934110+994045356+992505729+990983361+989363779+986578766
1180+983730140+982583954+982449625+981812499+980192229+978059463+975765488
1167+973020033+970245253+968494549+967937531+967181350+964654150+961512200
1153+960065283+959421665+956842689+952822982+950159697+949071932+947692599
1140+945292855+942731749+941304687+940951721+939393231+935620264+931731449
1126+928358337+925406540+924698469+924566049+920904730+914931718+910183626
1113+907406097+906046390+904548001+901710525+898581404+895556066+892263139
1099+889841249+888874677+887747125+885591678+884301541+885517832+887584999
1086+888503307+889491490+890699839+890842339+891681302+894098839+896597706
1072+899053044+901889070+903482688+902630895+901761767+902190107+903532250
1059+906749268+910552324+912018944+911054892+910694060+913554294+917728033
1045+918656116+916932370+917139476+918806100+919366402+918729352+916944741
1032+915811232+915802984+914214559+911185555+908428340+906551555+905857917
1018+904296144+900992297+899206770+899511855+898837614+895767754+891047001
1005+887083118+886019255+886319986+886000621+886638206+888846651+890742069
991+893190917+898655327+906270679+913586597+919993753+925028296+927373972
978+927050254+925375840+923005422+919379995+914963716+912058731+911417557
964+911403964+910979595+909991488+908513871+907623054+907465052+906653810
951+905320144+904434979+903517053+902493664+902053105+901004592+898088840
937+894287388+890718625+887969046+885897832+883398506+880356367+877289257
924+873735003+869183250+864257834+860108151+857188656+854999914+852359539
910+848666986+845111053+842791647+841130750+838999436+835907582+832348212
897+829194425+827100224+825907455+824454275+822798571+823000485+825774424
883+829148147+831848927+834098763+835619604+837116312+840019006+843962576
870+847685752+850871766+855135846+862016475+870571670+880176677+891021571
856+902424781+915336232+930124238+944205013+957039639+969879915+982784722
843+994838499+1003705651+1008833591+1012831763+1017680506+1022336959+1024343872
829+1024735786+1026724906+1030086715+1032630639+1033046608+1032064075
818+1032504176+1033970796+1032475309+1027474596+1022647694+1020876753
806+1022743534+1026802494+1027519347+1021095009+1013251016+1010653636
795+1011626011+1010481658+1006062248+1000669164+995169013+989782802+983618950
781+975477509+966045855+957289587+950531526+943733526+934983214+927785206
768+926272842+928106786+928235998+926236874+922919204+918636032+916249423
754+916301887+915663844+914014708+913336955+913104724+912214366+911449249
741+910731556+909179253+907357222+905304183+902220195+897993840+893448348
727+890725192+890666237+892424196+893326391+888715759+881527602+879724129
714+883913675+890477383+897167706+901865931+904958701+909333284+914324145
700+918002265+920317624+921738195+924210868+927596962+929679173+932204234
687+936715056+940002255+941326222+942270801+941794426+941387086+942921826
673+944485126+943996991+939844100+932306337+925371717+921413179+921889553
660+924563147+925563702+926728369+931366646+935473870+932195376+925452207
646+924155655+926134084+924854791+923134558+923302564+922605490+921857021
633+920816297+916136248+907680024+902085485+907584260+919949766+929009591
619+934919066+935212009+925694365+918926606+928285407+946201465+951928194
606+943529551+934478813+931121967+932179110
##END=
