##TITLE=Sample description
##JCAMP-DX=4.24
##DATA TYPE=INFRARED SPECTRUM
##DATE=13/9/2023
##SAMPLING PROCEDURE=Instrument type and / or accessory
##ORIGIN=Default
##XUNITS=1/CM
##YUNITS=ABSORBANCE
##RESOLUTION=4
##FIRSTX=4397.6552
##LASTX=599.8556
##DELTAX=-1.9287962
##MAXY=1.8585377
##MINY=0.47071916
##XFACTOR=1
##YFACTOR=1.7308981e-009
##NPOINTS=1970
##FIRSTY=0.49860063
##XYDATA=(X++(Y..Y))
4398+288058918+289798006+289557335+288796788+287813271+286666443+286802601
4384+286938588+285735147+285101479+285222693+285163618+285889712+286860901
4371+286962400+286529492+285775902+285706221+286675723+287180326+286938777
4357+286693630+286217109+285347350+284750855+284468104+283663876+282669132
4344+282606322+283435877+284764612+285912646+285998735+285832910+285758994
4330+284598598+283220189+283324168+284145613+284363540+283909144+283027263
4317+282485728+283267883+284747274+285463467+284950737+283452923+282270901
4303+282985217+284671911+285404668+284992370+283935211+282976832+283141814
4290+284316793+285343131+285889608+286247550+286011648+284794158+282963299
4276+281376434+280750531+281358700+282320023+282084501+281312005+281474163
4263+282216165+282936078+283202713+282635127+281920518+281417550+280603061
4249+280621707+282314720+283534914+283266763+282435503+281822583+282396333
4236+283318503+282762401+281016392+280034269+281241360+283178746+283776756
4222+283209170+282029455+281360404+282579995+284545412+285342598+285329374
4209+285366375+285138842+284553297+283784004+282952848+282786678+283194052
4195+282785060+281771635+281988959+283194621+283578613+283508278+283986624
4182+283450202+281468653+280942820+282477274+283536636+283224390+282315082
4168+281470461+281135918+281337866+281683067+281413797+280397118+279779927
4155+279586795+278574300+277696190+278460111+279740567+280551889+281608892
4141+282658681+282473813+281196955+280261097+280332706+280475528+279934716
4128+279422330+280023129+281563368+282331490+281959981+281924857+281916317
4114+280776926+279647402+279640876+279455078+278609683+278739867+279835111
4101+280213128+279893582+279959837+280063075+280097683+280825326+281421907
4087+281109937+280391884+279606785+279202837+279375894+279785041+280270240
4074+280704973+280849586+280863033+280761361+280085802+279335105+279302666
4060+279780909+280175576+280175490+280151540+280315488+280394036+280480969
4047+281024433+282032847+282546249+282163410+281603451+281461576+282143541
4033+282899920+282257333+281132130+281109041+281275365+280741991+280414766
4020+281121111+282286414+282758407+282620423+282194660+281481411+281122798
4006+281079891+280985589+281250968+281852800+282159984+281905504+281665281
3993+281957553+282271452+282661315+284120596+286022427+286545298+285334419
3979+283338923+281856967+281751869+282384366+283125767+284452470+286095895
3966+286930874+286493885+285411125+284740627+284507928+283965928+283303937
3952+283339337+284254155+285667412+286435207+286127834+286325822+286923643
3939+286293349+284880075+283362236+282390410+283453887+285309212+285261605
3925+284539764+285652174+286639600+285676228+285359127+287484961+289675621
3912+290091363+289008774+286259275+282078405+279063665+278840953+280579868
3898+283752840+286228128+285437795+283234239+283606024+284498200+284283632
3885+284797860+284339383+283511153+285581065+286997215+285691190+283621881
3871+281344306+281113363+282184846+281774218+282996581+286449395+287600614
3858+284509530+277094289+271950822+278885065+287899825+291795860+290656763
3844+286717321+282539172+279705598+280259306+283524325+285193302+285916864
3831+288224244+290334169+290617196+288779416+284026139+281477279+284487112
3817+287157358+289454200+292451102+293288991+291004976+288098898+286888966
3804+284982056+283819146+286687586+289917050+292646938+295211397+296441784
3790+296753151+296445537+295923079+296564409+297411975+297009835+297536184
3777+299776741+300696312+298690847+295884167+295486469+297148542+299888967
3763+301890610+301026136+300662702+303256156+304127000+300500855+298496698
3750+306088456+315755514+325726984+343687083+362707835+375224376+380443792
3736+379178418+378484987+382121119+386303848+388166853+388872991+390642502
3723+394107730+399372462+406082839+413127070+418683059+423054393+431079799
3709+443726886+456409993+467892328+481118520+497139993+510836749+519522631
3696+524000681+523193130+517463654+512874205+513425451+514189785+511690340
3682+506640900+500096882+490816467+479351626+474182417+472776822+468303318
3669+466917867+468854013+466762597+460435283+453571874+446448510+438488463
3655+432345310+425690926+414023052+403841352+403844141+406488147+405173014
3642+400932949+396713718+392960574+388535039+383366313+377072367+368935527
3628+364963027+366353505+365932357+361780379+355724349+352079126+351588968
3615+350094322+347029616+343871692+341398591+341249106+341908825+340752268
3601+338626864+336841856+334938596+333013401+331843587+330109647+326030569
3588+322831667+324449868+327226864+327391364+325538483+323599445+322122154
3574+321013842+319488617+315782443+310600425+308933325+311288140+312928897
3561+312905136+312688398+311982329+310156170+308312174+307276453+306151336
3547+304999084+304897016+305298261+305160139+304682516+304436026+304303173
3534+303751307+302713485+301654519+300869730+300496860+300714253+300964600
3520+300489147+299706424+299201872+298389948+297169788+296756767+297328089
3507+297443724+296460069+295527310+295611677+296267884+296731078+296395950
3493+295457406+294736633+294485252+294563387+294544309+294061315+293787241
3480+294132941+294247543+293804183+293590923+294003394+294368446+294139001
3466+293547121+292901004+292502928+292505993+292660506+292842429+292912472
3453+292595491+292084603+291919347+292223965+292499175+292728310+293464303
3439+294265174+294260008+293527871+292821596+293020875+294002843+294529743
3426+294091377+293368400+293142777+293672811+294535941+295111775+295264463
3412+294925891+294154429+293825602+294429742+295358300+295995153+296201974
3399+296313339+296509106+296502701+296473396+296697331+296940998+297086110
3385+297217723+297542727+298016975+298170765+298076342+298188912+298441877
3372+298654310+299006863+299659935+300431054+300938808+300987155+300666284
3358+300135113+299697643+299559418+299761555+300280811+300426887+299852190
3345+299124633+298622423+298897805+299647676+299406420+298305718+297441624
3331+296912175+296483727+295976248+295227995+294440589+293879701+293268915
3318+292315667+291211590+290181034+289407540+288952679+288435971+287321736
3304+285405839+283190815+281802128+281585476+281861650+282359900+282849920
3291+283093121+283747210+284909793+285771700+286711881+288172625+288910771
3277+288517860+288231114+288899923+290015605+290277075+289989537+290480486
3264+291548509+292256988+292100409+291373300+291126327+291962322+293515853
3250+294891352+295008881+293821160+292921804+293351044+294528538+295401379
3237+295722182+296307519+297012280+297148748+297589422+298756722+299569094
3223+299826570+300177159+300367692+300080395+300155224+301089705+302039200
3210+302480837+302912523+303677925+304549629+305164409+305596749+306355712
3196+307443569+308452569+309380025+310306758+311227671+311913354+312090835
3183+312444111+313515061+314609736+315160432+315422384+315716705+316141056
3169+317015585+318171143+318663297+318451621+318398831+319029004+320509532
3156+322370677+323454402+323524823+323345275+323234564+323538976+324450695
3142+325165407+325111137+324710064+324368462+323975104+323813463+324262710
3129+324830279+325058209+324885411+324360267+323947383+323882713+323671450
3115+323062765+322586864+322454872+322065886+321212605+320429710+320000745
3102+319495780+318409679+317126571+316380315+316352526+316900122+317255016
3088+316872470+316776808+317713837+318845944+319353767+319528528+319869407
3075+320058975+319796816+319719198+320224576+320515041+320346616+320675305
3061+321448971+321787302+321637059+321397972+321197212+320957953+320844350
3047+320977616+320977237+320350404+319143021+318281199+318173760+317811600
3034+316677048+315450070+314457806+313364577+312155609+311299297+311026119
3020+310966717+310761515+310516299+310176797+309484261+308609630+308000945
3007+307962308+308234350+308196023+307857968+307710067+308066028+309235843
2993+311315757+313981905+316701945+318782169+320105395+321134470+321936649
2980+322432489+322660384+322549019+321984067+321042286+320080188+319257898
2966+318470974+317668072+316943201+316408036+315990848+315737298+315683131
2953+315575003+315367597+315394078+315890192+316554457+316746022+316286685
2939+315805515+315567840+314971414+314102499+313655524+313456658+312987162
2926+312455406+312208089+311992522+311439175+310582209+310067499+310353349
2912+310768333+310726356+310463302+310306448+310443536+310827735+311226500
2899+311466930+311641209+311919518+312261327+312768254+313469123+313989722
2885+314254188+314553537+314920415+315160018+315271728+315522316+315898974
2872+316051902+315901418+315579583+315233504+315056849+315004162+314857088
2858+314633118+314551471+314668793+314530775+313659828+312665980+312510744
2845+312865914+312898593+312835851+313328591+314106321+314595514+314996724
2831+315595182+316163681+316536343+316806388+316960453+316897092+316760210
2818+316988553+317746757+318421559+318533475+318657133+319242127+319753324
2804+320048197+320727819+321694394+322305800+322524570+322765654+323268552
2791+323924242+324421665+324652350+324754831+324609374+324080959+323584672
2777+323694005+324329516+324776387+324751938+324491776+324218839+324243220
2764+324558478+324910686+325204457+325259210+324996569+324709720+324847876
2750+325444818+325916587+325905395+325705944+325522264+325236930+324997946
2737+325027148+325167439+325356077+325746199+326080397+325974714+325688898
2723+325724643+326097512+326498998+326676961+326510912+326210392+326214215
2710+326560121+326921351+327136677+327142394+326838843+326437117+326374375
2696+326649791+326822865+326771487+326890634+327270735+327412266+327077655
2683+326696899+326681885+326743181+326451373+326016382+325714312+325402772
2669+325098223+324980832+324875149+324670016+324449111+324075036+323614080
2656+323350406+323203882+322994479+322878327+322960663+322935766+322704978
2642+322670715+322891172+322957357+322772472+322474328+322193402+322128008
2629+322219504+322312721+322446366+322542855+322459280+322347467+322465547
2615+322772197+323168999+323698206+324125897+324174968+324191015+324523285
2602+324857380+325038959+325361587+325962352+326689943+327225866+327521668
2588+327858690+328310796+328728604+329056191+329361842+329715014+330172458
2575+330624013+330821364+330815406+330939719+331335764+331673715+331662386
2561+331525745+331433389+331330082+331229426+331162965+331268648+331506358
2548+331603467+331634700+331779226+331909152+331932568+331996860+332261773
2534+332719079+333217157+333522188+333526320+333423702+333428557+333527904
2521+333745607+334208284+334681431+334838561+334942763+335250411+335532784
2507+335733888+336018568+336350872+336692991+337022505+337142893+337172748
2494+337560666+338245592+338770633+339032757+339292471+339726946+340176503
2480+340366519+340334976+340399853+340612838+340750167+340843109+340987877
2467+341046796+340984502+340972518+341155096+341458337+341627864+341625935
2453+341588125+341515707+341543290+341722459+341806378+341997496+342583109
2440+343114659+343276610+343307464+343273751+343224681+343404469+343678371
2426+343667041+343505572+343566007+343790734+344049931+344359577+344587920
2413+344663437+344645359+344605654+344710304+345010756+345371573+345690103
2399+345985423+346348857+346667732+346773862+346873037+347055030+347018459
2386+346608433+345680840+343843076+340861257+336948434+332701620+328651985
2372+324775974+320891905+317204258+313923846+311007834+308713212+307863133
2359+309078885+312310845+317035695+322927123+329016590+332410088+331122090
2345+326982165+324306650+324165085+324910686+325862316+327064397+328504600
2332+329990258+331830225+334274676+336690098+338635197+340598478+343362423
2318+346899966+350156857+352428338+354231355+356288646+358556304+360674959
2305+362543886+364231648+365751811+367048761+368297537+369796763+371381148
2291+372717287+373918748+375142695+376233032+377072780+377810530+378646525
2278+379556143+380437800+381273278+382066573+382910247+383763838+384425658
2264+385064990+385993445+387061295+387939267+388562450+389130225+389852444
2251+390625939+391172502+391516273+391895238+392365870+392996318+393879146
2237+394785424+395443524+395840051+396168120+396643607+397226913+397685390
2224+397931605+398198895+398697248+399338474+399970645+400454121+400717176
2210+400890146+401145624+401550588+402049974+402502252+402924158+403558325
2197+404482820+405371570+405957562+406496377+407221971+407981519+408688621
2183+409364284+410094354+410975804+411895133+412857335+413911790+414783357
2170+415435947+416178243+417046160+418000820+419090812+420190033+421204440
2156+422160649+423138967+424355373+425770644+426980955+428022772+429303848
2143+430740436+432082566+433404242+434689312+435879822+437247194+438867978
2129+440368306+441681166+443060556+444572489+446228535+447899836+449325989
2116+450655895+452280536+454218300+456195252+458134429+460189687+462363543
2102+464563741+466777267+468986177+471251632+473568119+475879339+478409844
2089+481428648+484781546+487985510+491001834+494239029+497726158+501263700
2075+504884336+508792613+513016286+517293163+521533434+525907075+530618564
2062+535692626+540935664+546136346+551146014+556169249+561603027+567569352
2048+573896976+580154076+586046433+591750427+597652564+603972957+610609401
2035+617294674+623711349+629751986+635754331+641923482+647907645+653538566
2021+659133262+664802269+670589047+676696282+682790433+688294218+693174166
2008+697614302+701860703+706208001+710401164+714117806+717540368+720533242
1994+722932926+725670975+729657594+734027205+737278002+739242902+740781143
1981+742458436+744334354+746261443+747993833+749255969+750023954+750687392
1967+751558063+752974609+755069400+756957302+757977080+758440171+758623024
1954+758705808+758860217+759212701+759882268+760495430+760412646+760200109
1940+761170438+763011162+764679846+765924145+766863481+767774236+769345054
1927+771743981+773811085+775459383+777617261+779904754+782999763+787564487
1913+791722595+794728761+798072534+802959507+809062129+814974803+819480367
1900+822881854+826730247+832270121+838685625+843431274+846769537+851684128
1886+858060376+863822084+868188321+871142075+874059604+878083137+881725949
1873+883122040+882378918+881970580+884646576+889179069+893469892+896707947
1859+897716086+896184525+893463074+891490667+891334811+891628272+889820330
1846+885034667+880353963+879970074+881742960+882008390+880499626+877821288
1832+873103256+866932176+863309681+862727305+862022200+860611990+858831321
1819+856179292+853096129+850741968+848564256+845797832+844122329+843604072
1805+841901228+838289201+834131438+831777209+831414188+830445306+827683909
1792+825954825+827678537+829687514+829855078+829282757+828323242+827323987
1778+827369787+826503247+822301957+818089716+819931543+825353233+829325457
1765+830180633+828275927+826758691+827689694+829924569+832367849+832954564
1751+830794828+828979310+830170922+832647811+834665260+836140140+837865643
1738+839655265+839055808+837180786+839395069+843883897+848657646+853201777
1724+855173840+854123000+851284468+847939386+848906202+855837346+862752030
1711+866271562+866421495+865303507+865477200+864851366+861238788+860756689
1697+866096491+874317320+883713439+890577020+895036095+897575520+896372475
1684+895918062+902416900+909747360+914108501+915977187+917520456+920014976
1670+924412206+931724346+937006641+937865191+939617898+945946693+952143737
1657+953898028+949320356+943415877+947183140+951547518+954204506+962377607
1643+971981441+976492996+975164537+968940702+965295066+971947074+979963079
1630+983766018+985844142+987099184+986934238+989146730+992695808+993053113
1616+993499537+997496486+1000888469+1002546409+1004437616+1007466922+1010533970
1603+1012455412+1013110929+1012769603+1012905348+1014971420+1017590666
1591+1019518858+1021345601+1022646237+1023751002+1026397522+1029955622
1580+1031292553+1028030048+1024880768+1027953325+1030284896+1028842454
1568+1029308094+1031780024+1032815643+1029445079+1017920285+1010520747
1557+1021627630+1033848782+1041332963+1046101339+1049423280+1049923424
1545+1045974754+1039005042+1031771760+1033042643+1042975062+1050155934
1533+1054341797+1060054262+1062708770+1059253701+1055716331+1054452542
1522+1053164510+1053530836+1054497446+1056480183+1060377888+1061599942
1510+1057337976+1049301378+1048301848+1059461899+1067707935+1067193604
1499+1060160117+1056266338+1060801447+1064965065+1062287002+1057426062
1487+1058358029+1061964064+1063777034+1064351145+1063317455+1059728432
1476+1054283394+1048307289+1046568494+1049397178+1049403514+1044412958
1464+1040363116+1039619581+1036233866+1027369296+1020819700+1021947744
1452+1023088253+1019124431+1011150575+1003699590+998632381+994838534+989826421
1439+980491667+968411219+961777599+959084798+953156628+945724376+940520250
1425+936807740+935290367+936323643+939968935+948790047+959247886+965812359
1412+968315419+970562484+974518111+977515323+979594136+983291563+987445883
1398+991246411+994988535+999741347+1005950306+1009777349+1009956071+1009062396
1385+1008344550+1007983113+1008744073+1011600650+1015304138+1018596601
1373+1023742049+1029132265+1030520643+1029906655+1029739848+1028428813
1362+1026921426+1027804357+1029735165+1030807285+1030758938+1028909466
1350+1024344949+1018239503+1013094745+1010490306+1009413571+1006070487
1339+999251741+994183016+994592663+997275960+996860665+993092163+991607434
1325+995836342+1001722363+1004924054+1007495710+1011843559+1016125635
1314+1018700666+1020318385+1021944369+1023403684+1023961266+1024501493
1302+1026317080+1028476610+1029463330+1029068284+1028383702+1028545757
1290+1030544403+1034958850+1040708162+1047004449+1053641444+1059441858
1279+1063774279+1067444984+1071146337+1073741823+1073114267+1068986876
1267+1064291572+1061374112+1059814383+1059715966+1061040913+1061567159
1256+1059413896+1055355514+1051034181+1047276973+1046228407+1047647019
1244+1046831789+1042029390+1035944193+1032176930+1031719073+1031450337
1233+1029530686+1027301871+1026187257+1027002625+1028493759+1027540993
1221+1024094532+1021342915+1021204071+1023477376+1025689455+1025223885
1209+1023050236+1020983682+1019636146+1019817277+1021105034+1021021424
1198+1019072778+1018439919+1019898339+1020164044+1018830006+1019505565
1186+1022618551+1024053692+1022618068+1020934095+1018762926+1014275819
1175+1010242989+1009885064+1009939817+1007214922+1004154624+1002290758
1163+1001311683+1001499633+1002068717+1002349299+1001878288+999353946+995822223
1150+993115235+991005223+989934825+988787910+984387168+978692541+975852011
1136+975215089+974795042+974368522+973495784+971218966+968073612+966705964
1123+967271123+966610302+963103304+957309019+952100968+949516915+947155729
1109+943869395+941570883+940264256+938682418+937364565+936065169+932645638
1096+928289249+926415467+926610097+925922141+923732652+922908400+925874207
1082+929133957+927803844+924536243+924550706+928416937+931807060+930841553
1069+927714656+925518762+925626339+928822383+932066912+932030548+930911870
1055+932673600+937220211+941363787+942543553+941488582+940492908+938507967
1042+935662892+936076877+939335181+941033755+941453733+942277227+941416886
1028+939002257+937596179+937370832+938435101+940082297+939662458+937519181
1015+935880732+934383538+932862789+932910242+933982775+934841050+936609184
1001+940095452+944583453+947039475+943471181+937011324+934450205+936201466
988+939297095+942668141+945728991+947605391+950055076+954840188+958456072
974+958843473+959388865+961152936+960945082+958321153+957639602+959341964
961+959655604+958318811+956865006+955914581+955264367+954615392+954384329
947+953530048+951622174+951067760+952458273+954033567+954994185+953722337
934+949723047+946315430+944439650+943403274+944371330+945832298+945480503
920+944234620+942429777+939231323+935966821+933196058+929064465+924774813
907+923051583+923310195+923629483+923157507+922442829+921754185+920699833
893+919544654+918324047+916588351+914906857+914893496+916423129+918487617
880+920547008+921569472+923369562+927317612+930885837+933278566+935359376
866+936709943+936584804+937332471+942218756+949550662+956810047+964710486
853+973973958+982389693+987271432+991737877+1000774762+1012706930+1022806432
839+1031213213+1037565011+1037638428+1033867515+1033590101+1036921477
827+1038452281+1037110942+1036275120+1041972089+1055024036+1060246551
816+1051098851+1042185039+1039070814+1036704946+1034411254+1033535899
804+1033619509+1034116416+1032990920+1028224265+1023321038+1021513165
793+1021477697+1022559115+1023838675+1022484320+1018225040+1012938338
781+1008163900+1004477355+1000188736+994614426+990841172+990107898+987655803
768+979387866+969654209+965620552+966462917+966164842+963037050+956319683
754+948937707+950013408+957736642+961529594+959583358+956377259+954932269
741+953608080+949391500+943042181+938849638+942483290+952133131+955854250
727+948040589+937949903+932426283+929782311+930078321+932223112+931639841
714+928700825+927974232+931826895+938331588+944581594+949443636+952069425
700+952769227+953679706+953268131+950422986+951179538+955832005+958127005
687+959538867+963414120+967071465+966758582+964779770+964072875+960938058
673+955440402+949712303+944547158+948545967+958272943+965003947+970072120
660+968905922+960941708+954667114+954759333+960512846+967730701+973967691
646+978102038+974308191+967088269+968991736+971355125+956840074+935852288
633+928763704+940734785+953516205+956644067+964709935+973259969+961840410
619+939270786+928132980+939287729+959717106+960145348+938777599+925614080
606+931559881+938383586+942321787+957620456
##END=
