##TITLE=Sample description
##JCAMP-DX=4.24
##DATA TYPE=INFRARED SPECTRUM
##DATE=13/9/2023
##SAMPLING PROCEDURE=Instrument type and / or accessory
##ORIGIN=Default
##XUNITS=1/CM
##YUNITS=ABSORBANCE
##RESOLUTION=4
##FIRSTX=4397.6552
##LASTX=599.8556
##DELTAX=-1.9287962
##MAXY=1.8263576
##MINY=0.45345244
##XFACTOR=1
##YFACTOR=1.7009281e-009
##NPOINTS=1970
##FIRSTY=0.4722009
##XYDATA=(X++(Y..Y))
4398+277613680+276798593+275616437+275072842+275048084+274804031+273917861
4384+273447591+273702770+273735693+273499647+273112428+272702011+272917154
4371+273849072+275002441+276461415+277725273+276881469+274442516+273467898
4357+274246418+274658588+274061324+272997226+272358210+272723860+273146875
4344+272567641+271601171+271798582+272729870+272531109+271197710+269566450
4330+268219927+267460803+267045498+267080295+267291058+267034284+267138921
4317+268841633+270768142+271199462+271278763+271494081+271295023+271673446
4303+272372087+271638351+269755451+268589169+269299252+271202616+271916220
4290+270418629+268518506+267997653+268786528+269418729+268802946+268092180
4276+268194907+267956619+267689350+268196431+268477857+268599454+269079588
4263+269363239+269386349+270033373+271491716+271934652+270414652+268541862
4249+268126977+269115559+269582762+269106886+268617186+267912395+267772103
4236+269080604+270224704+269605084+268225061+267905895+268426292+268729041
4222+268831540+268911209+269252295+270010613+270248884+269530935+268986656
4209+268791627+268132199+267833199+268636599+269232513+268833748+268576186
4195+268707928+268610142+269162008+270013294+269410161+267996199+267370376
4182+267752934+268639525+269641125+270144072+269974291+270516713+271818154
4168+271914363+270815853+269790634+268966051+268483516+268455815+268607584
4155+268616205+268376006+268797269+269825571+269715047+268699045+268935546
4141+270318233+270642988+269683842+268698239+267680782+266635940+266591190
4128+267545308+268107949+267999423+268054001+268258894+268089061+267704821
4114+267842223+268680385+269370861+269117294+268550447+268710329+269170295
4101+269120255+269051256+269511942+269472431+268439766+267529451+267229961
4087+267661964+268807168+269658191+269685104+269305699+268776016+268588766
4074+269097337+269407428+269302213+269745061+270443720+270627079+270784647
4060+271225236+271259490+271324388+272348065+273018392+271994067+270314115
4047+269393235+269724807+270938046+271847712+271847677+271664931+271788806
4033+271665053+271021867+270621577+270774415+271030137+271621811+272613301
4020+273464920+274111891+274456393+274137629+273134557+272086841+272226696
4006+274078162+276150449+276739529+276249829+275657875+275125615+274752221
3993+274936299+276003989+277315977+278167806+278599424+278437790+278220387
3979+278989130+279838121+279499085+279013380+279355674+279839435+280313051
3966+280845748+280795725+280394612+280030171+279670425+279966166+280886310
3952+281613931+282086811+282580699+282408903+281182015+280991385+282793687
3939+284141926+283695941+282290530+281425963+282352678+283703265+283325105
3925+282458804+282745556+282646964+281833314+282364872+284806366+287310357
3912+288460204+288136728+285357601+279893400+275969297+276593911+279739003
3898+284164476+287227780+286040245+283920721+285693290+287133516+285829079
3885+285752406+285756015+285777899+289131354+290865919+288264335+284730026
3871+282237616+283095770+285169423+285168880+287302648+292096522+293309936
3858+288472119+278453910+272114753+280490190+290940297+295064265+293450403
3844+289619530+285986034+282427300+281484344+285194250+289330448+291943001
3831+293990775+294917402+294701961+292628974+287247754+284922286+288631685
3817+291496035+295297507+300942737+303125810+300117418+296356454+295548236
3804+293557493+292221886+296369735+300611551+303875122+307776851+310200385
3790+311008709+311385835+311592480+311816892+310795581+309467893+312034470
3777+317254986+320087886+318681423+315941911+316628602+320317098+324432516
3763+326195500+324228569+323553897+327163337+329652225+327664794+326743493
3750+335322510+346418624+359087021+384009720+412333110+432883460+445207496
3736+450851114+456561873+464695640+470346546+470920541+469785027+471684992
3723+476886059+484731077+495063651+505101484+511637667+516274270+526999916
3709+546643438+566357150+580015005+593043709+613332713+635770728+650623740
3696+656612911+655673564+648373596+641036273+642599866+648011958+648871409
3682+643387199+634446265+624415440+611957087+602667761+597885661+593385793
3669+595069512+599979867+599481703+594293532+587620543+578032796+565489710
3655+555918467+546977217+532237392+520414358+522556256+527642384+526597664
3642+521058858+514423680+507785103+501115198+493716831+484445095+473799207
3628+470190082+473361737+473199280+466949499+457348084+451289074+449883067
3615+447386714+443525880+440161001+437256755+436784383+437302310+434594547
3601+430090544+426892292+423466229+419717355+418347021+417170717+412514455
3588+408439757+409583507+411528116+411175274+409558767+407827075+406173248
3574+404336324+401229147+395486079+388850656+386663903+388804014+390541137
3561+390860093+390773258+390255717+388314296+385342839+383259987+381623471
3547+379579621+378642902+378910591+378609262+376998536+374574477+372635264
3534+371776584+370827180+369087919+367433146+366430267+365798592+365327972
3520+364937564+364296954+363328346+362269329+360829506+359063998+357816838
3507+356713458+355014846+353918228+354079389+354027981+353336069+353081801
3493+352750229+350571537+347561497+346335328+346475953+346047875+345073380
3480+344293266+343210875+341383062+339830753+339426959+339497745+339375166
3466+339017103+338035284+336477683+335207080+334465582+333751102+333198448
3453+333256303+332872273+331081535+329405877+329136295+329410642+329443442
3439+328991044+327971170+327017630+326822059+327020469+326648984+325776428
3426+324937197+323750660+322409481+321924249+322187628+322150973+321533701
3412+321062100+320690195+319968987+319669199+320373481+321408670+321744026
3399+321175813+320427762+319638677+318668002+318004263+317691404+317453151
3385+317404582+317336670+316830517+316075248+315623060+315775950+316193130
3372+316334246+316082501+315416240+314612892+314369347+314811513+315079902
3358+314272210+312766261+311825197+311932988+312338989+312083004+311140818
3345+310057342+309130960+308735892+308699308+308181381+307364892+306565399
3331+305563466+304851054+304260028+302901643+301302587+300506564+300170367
3318+299379599+298178100+297001796+296075589+295396537+294600478+293552289
3304+292291708+290794345+289463872+289009827+289372762+289372394+288592858
3291+288171665+288594907+289078213+289346182+289867403+290571475+290876432
3277+290886962+291249932+291936080+292400094+292375968+292122120+292504643
3264+293805208+294759185+294595187+294340814+294656616+294791810+294413142
3250+294232182+294477900+294625989+294469805+294245639+294175098+294119206
3237+293909897+294127651+294947048+295301257+295265899+295945617+296803981
3223+296934164+296565728+296248699+296496449+297244394+297978848+298668554
3210+299507189+300210455+300512556+300730310+301241228+301878755+302129764
3196+302278134+303148132+304501961+305439241+305691826+305635829+305791557
3183+306418712+307272100+307991486+308391109+308427589+308362164+308490385
3169+308947373+309617454+310193447+310672476+311186479+311660393+312053884
3156+312641896+313464096+313979500+314046011+314165050+314617973+315193720
3142+315766489+316445856+316898534+316533322+315528130+314697309+314333324
3129+314185655+314246839+314644676+315140736+315308064+314949860+314101168
3115+313240210+312919116+313123133+313510002+313437569+312461077+310989225
3102+309767681+309205390+309195789+309338727+309321206+309313181+309579258
3088+310019776+310554909+311118006+311435911+311369085+311379352+311752379
3075+312142927+312687066+313355290+313479655+313235830+313256645+313481162
3061+313589723+313511439+313545219+314099521+314711537+314482184+313616321
3047+313087215+313406697+314043488+314186110+313861898+313243749+312240169
3034+311174775+310519131+310393714+310569627+310491552+309933046+309489269
3020+309538434+309703238+309542078+309052255+308595757+308339177+308250940
3007+308339702+308514809+308704774+309014164+309758255+311097646+312877696
2993+315384877+319096886+323400937+327013180+329515805+331426458+333270566
2980+334931822+335869312+336135144+336168714+336035834+335821864+335609507
2966+335144319+334454089+334082358+334277124+334663292+334789269+334558235
2953+334184297+333790210+333468801+333555811+334009435+334233707+333761160
2939+332489330+330832349+329422242+328229257+327009150+326203910+326293829
2926+326955886+327175917+326242597+324630821+323390599+322993358+322869588
2912+322415228+322041816+322092137+322176554+322017006+321732707+321433760
2899+321147428+321098895+321383369+321789581+322132786+322293981+322409727
2885+322677486+322908906+323009968+323224638+323475051+323471652+323320479
2872+323107947+322678467+322272360+322297906+322394098+322017322+321569514
2858+321457379+321165475+320190455+318634781+316895556+315514849+314817189
2845+314601573+314604832+314807342+315271550+315842846+316175013+316396376
2831+316868608+317370906+317533398+317500773+317551795+317577621+317460369
2818+317537007+317972164+318235999+318151406+318313793+318894831+319585868
2804+320253811+320899013+321484291+321866078+322065400+322158157+322122309
2791+322120802+322265106+322463131+322663539+322951132+323300575+323349915
2777+322910483+322329479+321973343+321778858+321608762+321661851+322003830
2764+322294016+322244291+321865518+321494664+321415748+321572878+321900245
2750+322155319+322012381+321701379+321655964+321821680+321805280+321530337
2737+321231215+321088592+321253256+321599160+321780330+321803808+321953825
2723+322285326+322603827+322691468+322431593+322027028+321839832+322066766
2710+322643565+323196920+323366069+323170988+322979061+322992622+322988803
2696+322867591+322815343+322897062+323007620+323101955+323074096+322802377
2683+322469229+322243625+322154898+322161451+322061440+321902207+321788775
2669+321452017+320879809+320552723+320559171+320516595+320340822+320040123
2656+319567225+319131928+318928297+319014606+319212806+319183370+318908848
2642+318625740+318426384+318230847+318233055+318594763+318837642+318638741
2629+318342703+318331349+318592800+318863048+319040222+319229907+319484946
2615+319682199+319787116+320066790+320577358+320982133+321145992+321249262
2602+321411683+321645942+321943767+322335927+322943668+323714391+324346627
2588+324693371+324925212+325218762+325572305+325862246+325838032+325600164
2575+325738547+326229526+326431756+326345447+326418580+326601782+326534711
2561+326138977+325722988+325597641+325659071+325705186+325728490+325708585
2548+325742857+325916808+326153554+326437678+326598313+326496584+326357151
2534+326423276+326691946+326891022+326915412+327054109+327415081+327843931
2521+328304283+328758503+329058571+329215982+329417966+329713129+330001843
2507+330257162+330476948+330662498+330927559+331317546+331767176+332245119
2494+332670674+332919826+332962683+332978557+333166910+333487478+333909039
2480+334385616+334698229+334788568+334701453+334521265+334404223+334240680
2467+334073528+334202484+334428753+334421674+334289669+334249125+334288093
2453+334236405+334188502+334435096+334943141+335420278+335698270+335842575
2440+336070280+336473233+336781186+336830701+336844332+336885823+336904886
2426+336999816+337135675+337304825+337652025+338062757+338267966+338292250
2413+338404807+338726391+339005294+339076955+339215688+339520698+339803245
2399+340089156+340470698+340858863+341113271+341306880+341559501+341671987
2386+341327520+340132714+337733779+334312692+330433005+326559521+322684704
2372+318435635+313861793+309426193+305442640+302147215+299855475+299200918
2359+300702836+303978883+308604167+314911033+321585669+325075404+323653698
2345+319543747+316862791+316587883+317529613+319153304+320966890+322300114
2332+323256877+324929172+327517475+330103992+332305848+334743083+338025472
2318+341620790+344592668+346864258+348866232+350795002+352900316+355376554
2305+357778292+359695708+361278154+362737110+364161795+365638939+367228603
2291+368749620+370005996+371202099+372435837+373452488+374203097+374835227
2278+375516347+376442133+377524523+378425920+379041300+379670136+380598445
2264+381743526+382752853+383303054+383648117+384323665+385234628+386024449
2251+386757957+387552684+388227216+388682382+389123251+389704359+390291390
2237+390785698+391325247+391934074+392527482+393004690+393287692+393630232
2224+394113082+394395384+394586084+395027058+395487130+395730114+395948779
2210+396323208+396908977+397591673+398155506+398574999+398953247+399341797
2197+399815045+400553319+401502338+402268681+402787203+403476908+404354336
2183+405008227+405594697+406473386+407395212+408145506+408883394+409630393
2170+410470921+411560916+412669798+413627718+414549439+415497862+416489528
2156+417545811+418773838+420132818+421348440+422362112+423341303+424429300
2143+425708909+427047810+428168222+429277069+430713493+432159379+433455843
2129+434891567+436442124+437999059+439597134+441218406+442843464+444465508
2116+446213949+448275706+450460250+452420068+454190692+456014720+458017360
2102+460199697+462520627+464926394+467333073+469787620+472352760+474949930
2089+477726621+480804292+483950086+487219404+490813776+494465687+497955878
2075+501523792+505487826+509808032+514107948+518279328+522712720+527714992
2062+533034221+538269069+543531145+549198556+555074190+560672393+566195569
2048+571983702+578005182+584220096+590490868+597012824+603990472+610921724
2035+617504023+623805422+629783309+635550241+641325793+647298495+653613981
2021+660015110+666093289+671837023+677348215+682835158+688322522+693321043
2008+697776688+702122930+706468260+710600113+714583666+718880217+723108296
1994+726268072+728853852+731881027+734914930+737645927+740312655+742897315
1981+745359606+747324434+748844925+750126567+750739249+750943546+751355084
1967+752191617+753378574+754654749+756123728+757412308+757900028+758120515
1954+758642647+759350574+760219486+760975912+760824178+759729873+759609678
1940+761766119+764264714+765238613+765517270+766583471+768051328+769008687
1927+769873114+771197157+773364250+776112347+778548847+781661175+786455610
1913+791330081+794879809+797913852+802224491+808361401+815083169+820583498
1900+824529485+828346306+833151884+838295342+842372037+846274852+852177609
1886+858793408+863770694+867762447+871773403+875275543+878011796+880650560
1873+883250568+884643505+885124707+887144553+890760721+894021068+896015823
1859+896656889+896288663+896065583+896408929+895429072+892499315+889675667
1846+886516732+882740140+882024013+882962099+881600490+878481855+875349202
1832+871193100+865876674+862066651+859743549+858327975+858620299+858240789
1819+855335702+851428682+847874048+844334062+841589960+841288736+842046633
1805+840999846+837275887+832832017+830601847+830633245+829662500+825230264
1792+821435099+823540798+827484333+828987232+827781282+825127660+823889961
1778+824899113+824508880+820429101+815786400+816413940+821525649+826596077
1765+828397188+826754119+825855561+827193060+828927800+830983739+830921925
1751+827054783+824040083+825811477+829578258+831860501+831902762+832472832
1738+834483006+833841099+832558336+837080000+843291691+848406062+852042835
1724+853624090+853415657+849677332+843212985+842734095+850621094+859176422
1711+864697076+865673007+863663745+863401838+863436530+859938314+859340631
1697+865412362+874078984+883282387+889605232+893098050+894005649+889411307
1684+886220624+895372654+906842320+912428644+913435132+916094992+920052894
1670+922643721+928734164+936147389+938614867+940030651+945971043+951989089
1657+951578462+942033886+935136836+944792496+951715618+953062999+961569968
1643+973696540+979799248+978431262+971082445+966935734+975271767+985564848
1630+990402595+991233031+990925008+991626207+995675009+999314935+997414725
1616+995349465+999713648+1004659256+1007533926+1010611983+1014472326+1017043039
1603+1017080464+1017681091+1020282080+1021201313+1020243393+1020619398
1591+1021823316+1022331782+1023080708+1025645884+1029822941+1032874646
1580+1032168891+1027049684+1022790277+1025708610+1028726534+1028198935
1568+1029995350+1033838663+1035029895+1029903118+1014518022+1005578699
1557+1019669258+1033386756+1042045459+1049896924+1055662384+1055553893
1545+1048281749+1036414421+1026401609+1032252362+1047856334+1055189172
1533+1055610802+1058433539+1061361965+1059781341+1055791691+1050372030
1522+1045642073+1048228344+1055062528+1061400161+1065504891+1063788653
1510+1056230773+1046385183+1046394154+1061207358+1072225187+1072942015
1499+1067297100+1065305990+1069487252+1069189181+1061722902+1058064332
1487+1064162836+1071150786+1073257046+1071140414+1066665286+1060182157
1476+1051530462+1044993648+1047348779+1053435088+1052990820+1045681601
1464+1040204890+1037921246+1029327301+1013914451+1008509577+1015383920
1452+1019780763+1018290269+1013318379+1008625498+1004456500+998494873+990686579
1439+980052815+966539965+957600152+953519882+947358162+940634642+938121680
1425+938323664+939981662+942591271+945054824+951579583+961709717+968070198
1412+969399778+970134197+971767805+973713010+977524434+982201126+985747139
1398+989219423+992622463+996505584+1002188484+1005966829+1004735508+1003654730
1385+1009221920+1016379195+1018203784+1018480409+1020959520+1022427447
1373+1023781697+1027913970+1032179124+1033526715+1032380267+1031541842
1362+1032816405+1034872204+1034775978+1031943989+1029459131+1029070861
1350+1030012521+1030646508+1028090724+1021448012+1012544012+1004795220
1339+1001654368+1002360963+1003729931+1003956795+1002823383+1001534312
1327+1000730439+1000309860+1001458971+1004382280+1007526567+1010509378
1315+1012768073+1014603665+1017867727+1020884319+1021779583+1022355400
1304+1023434497+1025288311+1028199005+1030240437+1031180064+1032363797
1292+1032776527+1032483853+1034795461+1041492559+1050116080+1057662536
1281+1062788892+1065946425+1069528462+1073065504+1073741823+1072451771
1269+1071577743+1071082874+1068999672+1064236705+1059825635+1058304303
1258+1056789279+1053995416+1052565475+1052630514+1052708588+1052160174
1246+1050097577+1046657112+1043452903+1041010446+1038421021+1036252245
1234+1035878062+1036361928+1035614192+1033478917+1031402163+1029997733
1223+1028795567+1027153619+1025152487+1023782468+1024152025+1026275386
1211+1027859934+1027417489+1026100805+1025054578+1025003907+1024877053
1200+1022600207+1019280147+1018056746+1020571881+1024511420+1025726902
1188+1023624427+1019583825+1015198055+1012934034+1012373916+1011582097
1177+1011521404+1011845756+1009739286+1007155748+1007666246+1008908290
1165+1008622554+1007353177+1004182118+1000585153+999124795+998686344+997994257
1151+997604094+997854227+997504784+994621003+990132418+987775675+987469755
1138+984903247+980465615+977943121+976183921+972249778+967859172+966098571
1124+965396110+962820212+960659356+961032488+960176962+956460993+953014010
1111+949509136+944495196+941084166+940727995+939594373+936017312+932683936
1097+930452505+928312324+926606599+925644544+924893094+924345311+924335639
1084+925131803+926655027+926992276+923901183+919871234+919450375+922126074
1070+926092106+930762140+931925198+928484382+926337403+928321014+931963044
1057+934094955+933730163+932975419+934922446+939884454+943338726+941522687
1043+937825011+937417958+941154742+945741235+946278785+942628836+939508449
1030+939073502+940571846+941788029+939952646+936811023+936620112+939536553
1016+941118017+938371953+935796685+937630665+939581057+937314933+934178706
1003+934030406+935997899+938800381+940052447+936776751+933062324+933080897
989+934992531+937930558+942539969+947653360+950479041+951276466+954574519
976+960264077+962993321+961647622+959292211+956862509+954831310+954887238
962+956368901+956802026+956000605+955974604+956846670+958799514+962561949
949+963056748+957335582+951372552+948885241+948218874+947583064+946408653
935+945182518+945006886+945716004+945656712+944752898+943573230+941308368
922+938170669+935715527+935211687+936636091+937651691+936440975+934714014
908+933653771+932400443+931245305+930449771+929702947+928171804+925642231
895+923940010+921859962+918902101+919223090+922357074+924614717+924893935
881+923912257+925920398+932020864+936708419+939539707+943962271+947496930
868+948323231+948978314+949510748+950625027+955745146+964540234+973058417
854+977777931+979233944+982782760+990070183+997234957+1003169112+1008297150
841+1011534019+1014485152+1020028934+1027019197+1031357169+1033518235
829+1037135664+1039162378+1034986723+1028724151+1027882432+1035267973
818+1044689760+1046807023+1042443260+1038685451+1037471091+1036570500
806+1036364170+1039029708+1039833861+1034357431+1029973904+1030678887
795+1029507559+1025772808+1025001454+1023847367+1015845639+1005333262+999992586
781+997509480+992906587+988804100+988796881+989707143+985668294+979448263
768+977820332+978613342+975487838+969127148+964331171+963056678+968341216
754+978078805+978761502+969349246+961713712+959166058+960255527+962085092
741+962243764+961410946+957610034+950749638+945941327+943670438+940385000
727+935432945+930168591+927432969+927613087+927257407+926914902+929168620
714+932508934+935110274+939033554+943121743+942407859+941172613+944064875
700+946744710+948985673+952439384+953398145+953104279+954286260+953674489
687+952612774+954352140+956027518+956940584+957197865+955508119+954256964
673+952851833+946589682+938275726+941849353+953076595+955449739+950880767
660+948689074+950263950+948179627+945466642+954339384+967638405+965609869
646+953863859+947151202+946282991+950321840+954236430+948316502+934451897
633+923823249+924892884+937291455+949652670+951988318+947841958+939665369
619+927137001+919309714+921428730+929864843+937646645+935224793+927031313
606+924620814+933648304+953548897+967457797
##END=
