##TITLE=Sample description
##JCAMP-DX=4.24
##DATA TYPE=INFRARED SPECTRUM
##DATE=13/9/2023
##SAMPLING PROCEDURE=Instrument type and / or accessory
##ORIGIN=Default
##XUNITS=1/CM
##YUNITS=ABSORBANCE
##RESOLUTION=4
##FIRSTX=4397.6552
##LASTX=599.8556
##DELTAX=-1.9287962
##MAXY=1.8473804
##MINY=0.47061279
##XFACTOR=1
##YFACTOR=1.7205071e-009
##NPOINTS=1970
##FIRSTY=0.48538172
##XYDATA=(X++(Y..Y))
4398+282115506+282453991+282573564+281402851+280109742+280393456+281787015
4384+281905669+280718310+280104615+279718737+279468038+280325867+281357364
4371+281467254+281002700+280998352+282267297+283426040+282420993+280538301
4357+280155714+280383687+280107075+280835838+282313841+281951260+279882878
4344+278706640+279056263+278865048+277447620+277390683+279507601+280188626
4330+277915569+276621092+278636625+280666985+279898156+278056604+276858089
4317+276255463+276230935+275993453+275036006+274732615+276024165+277268582
4303+277018385+276472886+276234642+275871906+276279800+277813613+279174052
4290+279588113+279727657+279958540+279972831+279721560+279090838+278246815
4276+277602581+277532826+278192528+278475012+277797642+277492917+277617062
4263+277096126+277266728+279264108+280700815+279569319+277569462+276860687
4249+276828711+276291094+275733245+275610745+275535152+275396526+275484174
4236+275551452+275469069+275712822+276202441+276842136+277362293+277231565
4222+277077713+277149719+277065466+277439773+278402607+279150460+279498143
4209+279171991+277654287+276198301+276104988+276339595+276188895+276241363
4195+276476576+276762196+277225710+277572181+277512005+276928225+276024840
4182+275942648+277074595+277644621+276800529+275844884+275369088+275705997
4168+277270851+278550172+278362871+277449941+276353591+275568549+275443641
4155+275390740+275287693+275375653+275494169+275962395+276983118+277761266
4141+277674848+276946309+275857563+274728457+274136138+274141403+274295429
4128+274475403+275200009+276694658+277854008+277649610+276539021+275398777
4114+274456054+273705205+273622961+274722447+276485150+277663121+277493055
4101+275980133+274156958+273531450+274041578+274199501+273883014+274340934
4087+275288299+275986472+276665540+276767080+276151307+275722817+275727979
4074+275832724+275724358+275535360+275263823+274762685+274535492+275076955
4060+276217216+277099226+277274350+277420477+277631284+277008841+275869377
4047+275621294+276495543+277741329+278544490+278256012+277650407+278005781
4033+278954411+279469562+279203949+278640211+278550622+278852957+279432026
4020+280147816+280136331+279747058+280006210+280666881+281039093+281000950
4006+281105158+281804562+282852203+283121852+281736314+280291795+280840307
3993+282424388+282973594+282600551+282803754+284194246+285505439+285002309
3979+283424447+282713680+282990119+283395173+283695516+284080580+284512430
3966+284922144+285264735+285405093+285618464+286238308+286974433+287050961
3952+286264429+285543616+285754388+286248995+286130947+286417797+287772242
3939+288536308+287903230+287102130+287336408+288745122+290212870+290021620
3925+288495324+287765244+287458561+286377523+286576153+289598014+292139161
3912+292002526+291111110+289870296+286938439+284068489+284093034+287053871
3898+290942915+292511164+290796927+289273594+291140973+292692524+291286061
3885+289841698+289383484+290153335+293216128+294544885+292756233+290327055
3871+288490925+289660685+292000205+291870014+292206577+294473935+295020231
3858+292058510+285962285+282363797+288208561+295309678+298264712+297298986
3844+294843513+292815370+291055750+290730238+293071110+295719859+297687549
3831+299658496+300947066+300956905+299040765+294931474+293520022+296117049
3817+297983960+301091461+305364582+306691295+304100331+300728292+299970981
3804+299382628+299057948+301448498+304387146+307732891+310765666+311894356
3790+312406805+312819653+312671413+312864828+312938307+312633097+314578095
3777+318314101+320102995+318696498+316458483+316843998+319507367+322557879
3763+324475370+324630435+325834302+329181849+331117736+329946954+330566486
3750+339736418+351043412+364294089+388401531+414186349+432475113+443769913
3736+449486288+453858282+458650331+461996977+462436466+461744078+463207252
3723+468233041+477163655+488501690+499208795+506805247+511872954+520080901
3709+534461238+550129833+563472939+577559740+596270082+615096966+628272570
3696+634401794+634745389+633243795+632890083+633165292+632303843+628142517
3682+621245105+614518694+607307549+597717702+592036767+588758923+581332918
3669+577150494+577545397+575257704+570087832+563767618+555135356+544513024
3655+536340690+528445714+515655244+504605202+503877408+506045615+504854775
3642+500404347+493925742+486570099+480085084+475024686+468696227+458983637
3628+453429983+454146067+452842427+447190384+439628230+435085512+433454835
3615+430268347+426273657+423578832+421471632+420321047+419516483+416933764
3601+413253465+410267494+407612924+404863397+402678040+400236183+396031240
3588+392752011+393119234+393690646+392702055+391357223+389565072+386792091
3574+384164509+381792111+377815332+372932483+371579406+373473998+374373486
3561+373627504+372493063+371272879+369763316+368410205+366950772+364304967
3547+362000887+361968980+362564782+361850430+360253808+359093488+358775390
3534+358530355+357296453+355013748+352956677+351689378+350619270+349680115
3520+349074787+348682136+348476630+347874384+346245440+344479549+343633898
3507+342996039+341626194+340508833+340537240+340648897+340125327+339198991
3493+337962524+336722801+336132162+335933203+335135014+334111709+333752732
3480+333211390+331859942+330933189+330850564+330641455+330023863+329146997
3466+327934677+326596601+325893300+326144016+326455809+326030558+325090018
3453+324285800+323657711+322952020+322633922+322493199+321666810+320873470
3439+321020325+321220461+320544251+319536191+318860432+318336966+317710990
3426+316924302+316167303+315841064+315861054+316103836+316592727+316801733
3412+316533036+316157049+315821421+315530726+315153145+314746567+314489754
3399+314296165+314080197+313869563+314068591+314460549+314026257+313292054
3385+313365671+313549768+313180432+313083395+313361202+313039883+312331940
3372+312115555+312265701+312226658+311783046+311116294+310629274+310436204
3358+310319282+310107263+309795436+309671723+309617991+308916665+307916918
3345+307458375+307190129+306896039+306853843+306540769+305716458+305104962
3331+304614270+303494899+302164098+301492288+301424317+301248708+300351680
3318+299073919+298003811+296801122+295248082+293912050+293044330+292023243
3304+290655165+289716357+289468846+289676326+290068475+290093488+289823215
3291+289727720+289661447+289667042+290198146+290839989+290983830+291352438
3277+292611423+294029457+294963969+295377649+294928252+293899370+293654924
3264+294716614+295809066+295832243+295336389+295176577+295723774+296809263
3250+297438046+297143471+296623747+296389521+296379232+296796861+297839011
3237+298821886+299175425+299359729+299800639+300232749+300248338+299940045
3223+299741259+300000775+300796124+301515084+301661176+301474724+301238211
3210+301609418+302902804+304011990+304310687+304723397+305660612+306401085
3196+306932172+307661733+308422161+309194091+309842655+309899817+309587296
3183+309722095+310498944+311524604+312521648+313000250+312641030+312298959
3169+312975272+314226913+315084412+315529237+316064828+316847289+317632037
3156+318168494+318349923+318406912+318787818+319637974+320665227+321384464
3142+321727783+321679385+321076205+320289863+319903483+320212642+320751871
3129+320877073+320574114+320028685+319614624+319344057+318898817+318443876
3115+318017690+317549135+317415895+317569609+317383192+316904035+316362486
3102+315688805+315344136+315195722+314511233+313942904+314352600+314924497
3088+314850775+314607993+314649253+315006776+315463206+315650836+315658423
3075+315874946+316419579+316975055+317477284+318035739+318184984+318041144
3061+318523072+319553339+319928322+319222596+318469062+318444708+318769284
3047+318892997+318688253+318146461+317426358+316694511+315934394+315443390
3034+315247341+314865638+314220885+313423215+312814456+312828175+313034444
3020+312844527+312470965+312289501+312240584+312108211+311728620+311115740
3007+310708573+310855323+311341201+311942199+312731831+313783405+315236706
2993+317465436+320642743+324294912+327632897+330167149+331770353+332559847
2980+332903547+333201829+333804940+334677232+335034963+334314860+333074271
2966+332236275+331871097+331494451+331270965+331314131+331056209+330570158
2953+330322733+330185545+330165971+330452024+330680533+330424378+329809245
2939+329123128+328329546+327270905+326070953+325027590+324275650+323783260
2926+323642052+323768986+323636128+323124926+322553445+322001641+321567937
2912+321329519+321222643+321204594+321139360+321010763+321023131+321168461
2899+321233487+321252194+321427907+321748707+322026515+322234723+322518004
2885+322785107+322913704+323158912+323533167+323617490+323448048+323336218
2872+323189017+323027058+323054011+323045073+322706673+322216812+321924073
2858+321790280+321374313+320529355+319687064+319097048+318579922+318000334
2845+317500253+317439730+317696232+317839275+318179130+318881426+319356840
2831+319610189+319963277+320131888+320196776+320550972+320865086+320788177
2818+320719964+321003211+321225172+321199190+321537831+322349394+323037001
2804+323504447+324035708+324483096+324647653+324949192+325841162+326898278
2791+327332813+327187830+327075446+327196075+327300387+327105897+326595354
2777+326108541+326024323+326325099+326645275+326601313+326230383+326031806
2764+326114777+326189400+326267729+326421270+326486538+326361856+326247601
2750+326288584+326305317+326143185+325949319+326058204+326438972+326643197
2737+326541102+326417008+326497659+326740234+326853657+326658267+326350666
2723+326090596+325895621+325995049+326433118+326819845+327050641+327349754
2710+327681779+327945071+328067259+327880425+327628012+327750373+328016055
2696+327968109+327812143+327862480+327852364+327664977+327645680+327665358
2683+327382527+327096717+327026944+326900842+326621371+326313840+325999033
2669+325644455+325280731+324909698+324574555+324408335+324339844+324210970
2656+324107593+324104926+324156025+324255730+324220740+323965762+323769575
2642+323693532+323577268+323395355+323286227+323371243+323530257+323627987
2629+323605226+323524853+323582950+323706212+323703856+323765522+324139881
2615+324499240+324525430+324602097+324990937+325363183+325495557+325612063
2602+325926108+326311380+326677425+327106001+327565272+328036876+328601914
2588+329164873+329651721+330139746+330484450+330609895+330685106+330719819
2575+330707417+330712475+330762708+330851396+330905301+330959969+331028182
2561+330961181+330779856+330715385+330835841+330974658+331065528+331087111
2548+330998077+330962151+331115138+331373787+331588924+331747280+331974958
2534+332295655+332616663+332871501+333089133+333180731+333043958+333047457
2521+333451505+333885868+334121999+334372819+334643247+334758853+334984937
2507+335576616+336225284+336651643+336907140+337155778+337496706+337747214
2494+337769594+337838327+338180052+338600175+338880339+339137187+339576503
2480+340070105+340242284+340072669+339992885+340205909+340390559+340326503
2467+340169775+339946151+339732434+339837612+340144866+340285000+340272805
2453+340254583+340257736+340380235+340614461+340777771+340984455+341384035
2440+341706879+341897108+342246731+342628054+342671151+342461176+342398990
2426+342686290+343024551+343085627+343212319+343645018+344007356+344181856
2413+344237390+344138344+344093515+344262992+344588226+344938093+345154200
2399+345368990+345869660+346488223+346779264+346733430+346657041+346590595
2386+346322453+345609590+344168311+341743879+338397891+334649310+330987857
2372+327322559+323452655+319508822+315748843+312715064+310768125+310093475
2359+311187487+314098315+318571815+324603829+330840656+334215883+333078913
2345+329198201+326428649+326106012+327181802+328695209+330192508+331668605
2332+333030724+334563012+336630199+338808799+340745033+342886704+345681095
2318+348769403+351386142+353341395+355265295+357548000+359772296+361742238
2305+363658794+365365686+366763731+368106969+369437978+370724539+372154490
2291+373722323+375180890+376454599+377632448+378688421+379504591+380094053
2278+380661793+381436425+382342980+383179624+384028324+384996337+385985344
2264+386782668+387329206+387887835+388615871+389375191+390057324+390787959
2251+391694098+392516296+392957483+393239413+393673948+394213800+394792557
2237+395386557+395962300+396601475+397197796+397577040+397901097+398376546
2224+398956100+399442912+399772166+400093001+400512154+401010538+401537953
2210+402085599+402608822+403033484+403458319+403887658+404305495+405015863
2197+405980897+406757677+407271684+407706462+408138607+408590534+409167835
2183+410009607+411012298+411886045+412571297+413258350+414043063+414905621
2170+415851947+416807072+417716745+418633555+419454782+420278470+421485350
2156+422914886+424096823+425077551+426225156+427539017+428744927+429938609
2143+431305162+432695204+433989283+435328122+436771445+438074047+439163312
2129+440266054+441527707+443008099+444675671+446428501+448203746+449946737
2116+451620199+453207051+454838421+456771987+458940263+461034160+463049624
2102+465156096+467342145+469503078+471676239+474054907+476747307+479706914
2089+482832291+486038526+489315850+492580495+495647012+498694891+502141415
2075+505961986+509949123+513962244+517874967+522014121+526726004+531633935
2062+536417530+541435143+546798534+552238973+557740939+563432787+569448137
2048+575502323+581381697+587508565+593835327+600025454+606162369+612363859
2035+618615167+624817004+630963065+637213195+643783571+650405566+656509777
2021+662135005+667680692+673540388+679640442+685321931+690363206+694986609
2008+699525204+704342334+709223763+713577569+717297466+720921053+724525170
1994+727197512+729222503+732382489+736668116+740343184+742958086+745372056
1981+747492940+748745239+749937465+751977422+754073987+755078237+755451765
1967+756088099+757050015+758196512+759090872+759645240+760377399+761230672
1954+761863126+762118450+762163417+762461145+762737948+762543250+762926201
1940+764631639+766527824+768010781+769199751+770103049+771118177+772317263
1927+773414081+774784168+777330200+780634442+783265696+786276576+791064051
1913+795876955+799519319+802904073+806692564+810767835+814843522+819101018
1900+824317867+830211722+835549754+839905708+843389751+847153991+852731064
1886+859132379+865155802+870728718+875386626+879314592+882763367+885248703
1873+886196830+884978275+883760966+886724869+892109808+895830467+897539231
1859+898362918+898741365+898749541+898327789+897195912+895535650+893437630
1846+890047195+887322195+888144427+889081261+886824365+882568254+878216665
1832+873638438+869143632+866501361+865030669+863497271+862280171+860612564
1819+857816059+854687322+851924144+849317626+846714848+844665191+843485921
1805+842414601+840125418+836531070+833526565+832309533+831255951+828717611
1792+827119984+829141095+831666132+832448870+832258607+831009496+829245303
1778+828922562+828633219+825786550+822720448+824302624+828357871+831053978
1765+831641327+830651003+830816600+832744311+834165324+834841361+833900231
1751+831044278+830046333+832555434+835281751+836043426+835938386+837831108
1738+840578141+839778566+837891595+841237687+846204686+850318827+853977889
1724+856596187+858199911+857603555+853676143+852115862+857824305+865160167
1711+869938635+871286134+869887847+869115986+869170862+866625177+866022655
1697+871697701+880189206+888639900+894045418+896908716+897897515+895365480
1684+894474168+901871904+910817241+916737078+920130147+923994992+927227037
1670+927919287+931287689+938341205+943815733+948137043+953673099+957551525
1657+956379738+949350333+946567548+956284399+961846783+962034621+967110193
1643+975929011+981192074+980395547+974820622+972192624+979208517+987152791
1630+990168175+990637527+992103438+994555031+997672197+999181344+996645151
1616+995952001+1001818349+1006108965+1005808397+1005449974+1007056608
1605+1008556955+1010690103+1014751932+1017822122+1018032409+1017941019
1593+1020144563+1023993749+1027747250+1030190667+1030251432+1029156554
1582+1029737251+1030699167+1027839264+1024847854+1027591700+1028915919
1570+1026254040+1027228358+1033926638+1039991286+1038698039+1026817969
1558+1016817664+1025578696+1037240165+1043502975+1046461473+1049416299
1547+1052713751+1054764239+1052768003+1045683377+1044561546+1052071111
1535+1056824982+1057792995+1059559544+1061775906+1063912449+1065514580
1524+1061374871+1053670332+1052921336+1056997993+1060641604+1063358567
1512+1063525549+1059064209+1047502792+1041661318+1055548780+1068545761
1501+1070580382+1066233920+1064868891+1069246671+1070905617+1065002339
1489+1058927575+1060889791+1066183410+1068912983+1068247340+1065228631
1477+1059957392+1053925863+1049977734+1050770104+1054736871+1053990647
1466+1046901378+1043023853+1043111917+1036250742+1022483286+1018045158
1454+1023692765+1026543938+1024024305+1017088439+1010863460+1006780428
1443+1000396574+992289890+982770023+970511991+962281630+958412073+952668433
1429+946918973+943967749+942998489+944759703+946771529+946585839+950929599
1416+961908241+972166711+977004904+977809260+978165189+980104957+984074842
1402+987418439+989284692+991890380+996340842+1003408631+1011015268+1016394111
1389+1019410187+1018537444+1014512891+1011835699+1012958638+1016315955
1377+1018002754+1018114099+1021828868+1028764596+1032839521+1033205496
1366+1031552855+1028467838+1027943541+1031436938+1034059601+1034232334
1354+1034121890+1032974492+1029990427+1026994375+1024312818+1021437949
1342+1018116246+1014202553+1010529079+1007122916+1003232503+999195063+996101662
1329+994753054+995655867+998648247+1002836110+1006033303+1005394682+1004552703
1315+1009866138+1018326741+1023356168+1025510448+1026939083+1027028880
1304+1026828847+1028157015+1030680043+1032638241+1033019252+1033002692
1292+1034249101+1038600759+1046477755+1053600143+1056929329+1059710383
1281+1064443883+1069681102+1073493636+1073572901+1070319654+1069124794
1269+1071733115+1073741823+1072067634+1066649090+1060105597+1056991410
1258+1057741792+1058256596+1056032058+1053035591+1051560464+1050044319
1246+1047620026+1045845370+1044683353+1043781024+1042715386+1039843912
1234+1035183787+1031506364+1031341529+1033440380+1033891510+1032072995
1223+1030289194+1028649856+1027603410+1028645006+1029935413+1029364555
1211+1027602301+1025796674+1024534953+1023648560+1023118582+1023916910
1200+1026252793+1028426197+1029029828+1028488139+1027256142+1024875915
1188+1021660361+1019533518+1019652415+1020398293+1019801729+1018148604
1177+1016463467+1015172714+1013698765+1011129454+1008971778+1009158576
1165+1009760752+1007473301+1002617162+997548866+994508678+995568981+997736704
1151+996342643+994038217+993880034+993191803+990490014+988061217+986254066
1138+983508626+980471209+978044214+975706668+972877044+970224310+968602364
1124+966869627+964405424+962198901+960297103+958102844+956613305+955808118
1111+952849411+949299962+948166768+945784948+940337026+936108838+934741730
1097+933425410+930961623+929521971+929430928+928159367+926318334+927524972
1084+930101559+928912866+925784268+925748931+928690593+931735354+932683897
1070+931498461+930487212+930648028+931070819+931830416+932639900+931529224
1057+930559756+934747619+942453545+947916918+948456042+944748479+941290696
1043+940739169+940571078+940828758+943943915+947213097+947299291+945311230
1030+941384026+937026340+936543823+939331459+942072742+944239841+945108842
1016+943849823+941815617+939500243+936409891+933501764+933339771+937767922
1003+942244020+941555720+939535094+939618724+939220114+938038004+939216996
989+943212657+947315088+950333312+952694138+954507734+956719453+959624185
976+961554321+961950160+961623331+960398609+957794585+955349782+954940779
962+954788832+953828094+955516418+960151046+963725647+964240451+962132940
949+959407246+957640351+956128502+954831652+954957685+956226197+956397268
935+954239730+951222615+949275642+948163581+946446988+944780490+944038838
922+942497819+939823538+938024493+938227574+940845941+944101959+943584036
908+939121588+935281547+933358686+931373189+929081442+928267802+929042572
895+928968920+928068739+928317896+929510608+930988645+932256602+932326236
881+931133247+930285586+931474349+933610199+935985783+940820166+946366407
868+948746287+950477014+954291488+958191185+961617234+966730221+973097170
854+978877601+986297093+995372413+1001112935+1003580602+1006775509+1011127444
841+1014509011+1017657772+1023811316+1031804230+1036324117+1035417632
829+1033738038+1035597986+1039672565+1043595473+1044795876+1041295758
818+1038108958+1039562952+1041577134+1042955605+1048340545+1055889465
806+1056991341+1051026328+1047036280+1047174439+1046532631+1043076996
795+1037981192+1033268825+1027725425+1022141492+1020372172+1019009498
783+1013260662+1005375906+999796199+998129147+997674691+995024383+991141661
770+989353495+988495164+984722678+978396470+973227361+971572572+973192440
756+977169877+979069250+975005758+970907067+969744773+966548203+962285579
743+959699570+955583003+950865924+950521982+950414101+945903221+943067430
729+943342847+942696743+942038375+940827926+938320142+937208427+936690089
716+934218403+930814872+929527514+933287251+941239493+948757373+954967732
702+960301330+962247056+961385330+960444477+960871703+961441660+959372187
689+955823984+953136399+951804490+952965883+957070809+961357753+962080350
675+958657419+952759061+944057615+935313211+941931257+958941428+966599060
662+967778677+966661696+963148691+962812024+965333320+961015266+952512814
648+951819178+954236474+952644044+955969834+964184883+971067260+985854486
635+1006130860+1006257794+992560596+984227066+967458084+940247299+922973490
621+921032614+930641585+946668153+951403524+938283281+934689626+954763612
608+973512201+965347801+947224807+944488513+953168202
##END=
