##TITLE=Sample description
##JCAMP-DX=4.24
##DATA TYPE=INFRARED SPECTRUM
##DATE=13/9/2023
##SAMPLING PROCEDURE=Instrument type and / or accessory
##ORIGIN=Default
##XUNITS=1/CM
##YUNITS=ABSORBANCE
##RESOLUTION=4
##FIRSTX=4397.6552
##LASTX=599.8556
##DELTAX=-1.9287962
##MAXY=1.6838856
##MINY=0.28190893
##XFACTOR=1
##YFACTOR=1.5682406e-009
##NPOINTS=1970
##FIRSTY=0.31375551
##XYDATA=(X++(Y..Y))
4398+200068473+199492301+198865617+198856514+198470949+197965584+197730889
4384+196898852+195492599+195052645+196608285+198463309+198650210+198063035
4371+197763651+197890995+199087257+201100239+202097381+201030914+198945413
4357+196944289+195962731+196780269+198000684+198243893+197518276+196094388
4344+195824213+197253954+197671446+196601273+196355860+197286716+197879593
4330+197111237+195208114+193769955+194322391+195971758+196686448+196537649
4317+196302573+195506966+194162818+193532485+194605489+196567029+197774445
4303+197753199+197081059+196403540+195545733+194459959+194470525+195836490
4290+196539093+195870411+195299807+195156082+194906393+194986722+195702647
4276+196731961+197294204+196442573+194753110+193621992+193282112+193479484
4263+193770164+193757222+194022628+194729108+194800144+193776872+192736459
4249+192780111+193749545+194622212+194606325+194138303+194305231+195098520
4236+195314459+194539242+193426293+192407772+192221099+192979972+193412572
4222+193006121+192480138+192665994+193508787+194118862+194161639+194246111
4209+194640684+194865212+194972108+194983111+194646366+194589849+195036739
4195+195175409+194734866+194437896+194623029+194760065+194544411+194193699
4182+194120991+194334877+194407680+194206393+193911057+193676666+193483247
4168+193570131+193985874+193858493+193092683+192515333+192058789+191728828
4155+191725939+191485505+191333058+192017722+193122595+193951706+194176253
4141+194217016+194355553+193746409+192390840+191728239+192129558+192276780
4128+191411334+190466795+190648185+191905657+193323635+193974244+193455083
4114+192607482+192164867+191724058+191206208+190992246+191201628+191653935
4101+192143697+192873362+193738257+193944275+193489632+193378365+193523800
4087+192973720+192221992+192210989+192571071+192763122+192755862+192633973
4074+192454426+191976256+191449588+191535276+191746083+191487748+191419163
4060+191994898+192670745+193109691+193393929+193306740+192870948+192283887
4047+191564085+191362038+192136970+193140249+193451453+192995175+192488728
4033+192327691+192202494+192213536+192667742+193172917+193239544+192686290
4020+191859554+191665185+192132637+192507047+192767226+193264305+193929035
4006+194360437+194134160+193580640+193277323+192778610+191886197+191296723
3993+191358219+192118213+193163795+193710169+194071068+194909244+195422438
3979+194811166+193827821+193532390+194285809+195328122+195547482+195153745
3966+194698151+194323760+194736709+195685828+195876948+195402066+195023057
3952+194780513+194574646+194680382+194534757+193608044+193537084+194753034
3939+195629825+195429868+193913357+192520863+193387487+194895865+194511725
3925+193659411+194429553+195048027+194292347+194365777+196522883+198507208
3912+198737133+197661013+194497149+189121601+185326854+185562689+188718666
3898+193478344+196167647+194338868+191839752+193044794+193945511+192537947
3885+192417920+192742294+193432583+196368592+196725443+193249254+190041873
3871+188869346+190757684+192414423+191416769+192555963+196246171+197244167
3858+193639742+185410698+179761269+187284859+196860027+200548658+198814174
3844+194946377+191458178+188701601+188472265+191280456+193722902+195423958
3831+197525859+198947922+199062039+196740741+190878509+188448795+192570633
3817+195927935+199153142+202636933+202437679+198228101+194329841+193358658
3804+191516785+191263637+195908133+199310303+201420432+204322577+205878445
3790+206129959+206106261+205728031+205930287+205773108+204472630+205524901
3777+209032541+210590651+208777359+206548647+207270958+209604057+212069783
3763+213773385+213157210+213162626+216124595+217963314+216830163+220726352
3750+239202952+262094730+285577105+311178883+324356481+322557556+311558443
3736+299123166+295513476+300480883+306514338+310280598+313629196+318850359
3723+326162552+336187974+347923802+357803428+363411372+367859523+379514509
3709+399767401+423463643+447541250+470194951+488133044+497063171+497451150
3696+492253609+482625173+470695204+462161151+459603562+458364637+454327118
3682+447093486+438277761+427490748+415313768+409957509+407896219+402649003
3669+401230683+402746492+400630053+396140057+391055246+383914314+375723620
3655+370073374+363248359+351099885+341674180+343264369+347621720+348134819
3642+345774373+342912193+339263869+333999740+327442334+319167074+309406449
3628+306395926+310181494+310473467+304560096+296467631+292656636+292240817
3615+290271828+287150723+283985700+281060333+280592291+281204874+279395801
3601+276071186+273269209+270133604+267217682+266089928+264136408+258743263
3588+254477605+255906870+258263895+257944368+255933533+253644332+251861009
3574+250702431+248618432+243786560+237726880+235714696+237977500+239951069
3561+240427130+239947762+238383152+236025900+234105085+232947078+231287145
3547+229390446+228810074+229252005+229450479+228886393+227953237+227280203
3534+226571329+225134594+223340724+222120879+221493568+220988526+220543898
3520+220253864+220046002+219679535+218793014+217416901+216451610+216502977
3507+216312104+215049539+214499914+215260289+215417507+214525835+213753355
3493+213509215+213057726+212176602+211799113+212074153+212015071+211489734
3480+211239493+211130279+210495747+209782710+209882993+210257612+210020218
3466+209547312+209224136+208942368+208743267+208674455+208723807+208661247
3453+208213920+207362802+206609231+206711186+207344521+207757414+207967784
3439+207981752+207738106+207552288+207695823+207959461+207919458+207526405
3426+206969179+206359447+206041344+206473773+207460139+208275092+208539814
3412+208456007+208231289+208046649+208374330+209189701+209889777+210113013
3399+209993993+210027535+210179488+210186196+210234656+210225534+210175326
3385+210544510+211221174+211708846+212198513+212946631+213391678+213286511
3372+213224179+213404011+213373358+213281988+213797938+214655897+215165803
3358+215377447+215523604+215599581+215720995+215707978+215185491+214752416
3345+215114721+215795223+216231186+216281223+216039059+215954835+215695112
3331+214730581+213822073+213413798+213025705+212570586+212097680+211354998
3318+210259398+208950578+207830141+207442371+207240818+206444640+205507436
3304+204374552+202523044+200781947+200221434+200496816+200661482+200564621
3291+200542615+200563614+200408791+200301781+200568384+201064037+201490327
3277+201755201+201999892+202408851+202880351+202980918+202703369+202708538
3264+203195545+203713262+204117318+204459137+204468373+204279248+204512157
3250+205158947+205605343+205486855+205088767+204894397+205142851+205856135
3237+206752880+207402596+207672277+207958472+208593784+209430667+210054178
3223+210206815+210569082+211657498+212528151+212719670+213214525+214317631
3210+215325187+216078815+216749873+217534724+218817548+220192254+220948980
3196+221493378+222559902+224058398+225204642+225643893+226140705+227093435
3183+227914546+228443760+229092146+229975968+230776859+231156495+231220424
3169+231792814+233401417+235192323+236393830+237231891+237894967+238538926
3156+239447605+240338687+240597099+240539404+240943459+241499735+241691387
3142+242020815+242951368+243790627+243567201+242782159+242622889+242809106
3129+242761198+242948859+243284920+243227548+243040780+242774216+242017015
3115+241116279+240620644+240346839+240018209+239523315+238766323+237875222
3102+237013026+236253165+235694514+235378768+235140804+234930585+234996585
3088+235357123+235900894+236515263+236815084+236785723+236880152+237207985
3075+237712988+238359721+238762941+238783332+238872117+239351085+239996032
3061+240107146+239536789+239012573+238816569+238818602+238883633+238677709
3047+238364510+238227474+237774313+236893759+236244841+235676384+234433791
3034+232592317+230899756+229855580+229263236+228675947+227858143+226961873
3020+226300659+225680000+224991155+224395086+223712740+222891135+221969420
3007+221097816+220612349+220438256+220520428+221033280+221761291+222667861
2993+224456201+227362907+230679484+233666233+235668479+236440180+236540899
2980+236594356+236946095+237605998+237844056+236958524+235349350+233846502
2966+232787789+231982033+231160771+230433995+230044800+230046453+230118059
2953+229884542+229505723+229364107+229674817+230175640+230218018+229723961
2939+229179221+228666654+227994608+227364504+226917385+226466789+226075846
2926+225871157+225662307+225281797+224755908+224187965+223696492+223346140
2912+223275333+223597977+224146309+224755870+225380445+225939362+226346192
2899+226594912+226763627+226860716+227091459+227728538+228418409+228762698
2885+228949162+229283361+229835056+230339908+230542487+230445606+230092955
2872+229723790+229536034+229363784+229174299+229128006+229150582+229025481
2858+228862449+228912010+228888693+228404669+227582951+226780312+226501376
2845+226932873+227553723+228014543+228444387+228888826+229340106+229880874
2831+230494122+231154348+231803912+232113387+232042959+232051587+232267545
2818+232526565+232874541+233261607+233515952+233780236+234222832+234787830
2804+235529334+236407379+237138241+237600734+237945004+238333496+238727252
2791+238978537+239027434+239008164+239048566+239032888+238915065+238798041
2777+238702319+238661081+238636794+238484955+238209725+237858765+237493458
2764+237421890+237775377+238091579+238008894+237792652+237760250+237908270
2750+238049068+238012163+237886245+237811921+237656946+237256881+236873235
2737+236836558+236919357+236916697+236999134+237114069+237068118+236920098
2723+236811986+236753132+236693023+236552928+236387520+236499015+236828348
2710+236932109+236809554+236720446+236633903+236434231+236147789+235906443
2696+235764808+235673230+235637598+235590564+235440473+235305395+235268223
2683+235185691+234940714+234482175+233780788+233142872+232843204+232577950
2669+232162663+231835952+231659427+231497934+231187585+230662001+230170129
2656+229949458+229846420+229676414+229600608+229774054+229981308+229974068
2642+229842012+229713870+229546866+229416786+229424425+229505362+229581243
2629+229591315+229667482+229997576+230350436+230539066+230832141+231277073
2615+231532787+231567754+231743347+232235333+232814812+233222099+233557133
2602+234110938+234953827+235887135+236694905+237263095+237576618+237828816
2588+238203036+238590787+238874758+239131821+239525843+240099089+240630013
2575+240975899+241166410+241147958+241081426+241242007+241418266+241325490
2561+241161983+241165859+241220628+241194840+241250825+241437821+241513569
2548+241455171+241452131+241548593+241628941+241614289+241702485+242002401
2534+242228468+242304540+242424016+242478519+242336789+242177805+242162070
2521+242361038+242735923+243083234+243240832+243148094+243050814+243329750
2507+243850925+244192478+244256749+244336526+244619016+244873057+244986166
2494+245154748+245485792+245937889+246444166+246958842+247445963+247925806
2480+248308939+248305898+247982931+247739342+247610991+247436841+247300205
2467+247276659+247316016+247478117+247749813+247854029+247683851+247519564
2453+247555196+247733888+248013850+248323761+248571778+248829791+249177197
2440+249487128+249596171+249559266+249552653+249623194+249680794+249699247
2426+249730147+249789666+249871173+249938940+250013548+250144389+250287695
2413+250407494+250525507+250770788+251175243+251451252+251471662+251493630
2399+251674013+251943048+252257938+252568800+252759958+252766876+252596280
2386+252114974+250900678+248669647+245570681+241881233+237836873+233504588
2372+228844129+224172059+220014740+216575115+213769680+211645374+210756648
2359+211779578+215026639+220313744+227224789+234172206+237794590+236325074
2345+231979620+229022782+228634253+229712711+231502495+233401303+235045367
2332+236522446+238513480+241307646+244085222+246103924+247948857+250712864
2318+254259462+257494095+259953397+262174128+264644509+267150143+269425680
2305+271547515+273476634+275146867+276761399+278414015+279985238+281456521
2291+282851314+284140903+285335492+286465735+287476350+288239386+288835816
2278+289554743+290400426+291077260+291553112+292043179+292588071+293175740
2264+293766355+294236088+294700442+295267037+295797752+296280749+296721387
2251+296987933+297115067+297250829+297473704+297808701+298156677+298421664
2237+298670593+298957834+299247887+299512684+299729345+299835043+299859824
2224+300023996+300394910+300737793+300881442+300899818+301016292+301357712
2210+301821876+302258695+302665240+303228281+303935331+304507836+304985930
2197+305555679+306172994+306888159+307777872+308684727+309557775+310455888
2183+311204043+311792549+312551460+313567948+314576035+315336182+315971341
2170+316830022+317950535+319118158+320266056+321393201+322453530+323505649
2156+324641080+325788445+326827908+327813666+328908315+330113072+331288829
2143+332436042+333633501+334859656+336080641+337285550+338537587+339931050
2129+341356097+342745835+344266014+345946699+347652696+349257670+350732316
2116+352279329+354062747+355978088+357930753+359955480+362060820+364176954
2102+366276707+368474063+370851384+373425963+376307641+379506034+382842051
2089+386250853+389849273+393703369+397793794+402091853+406513056+411092142
2075+416029674+421323184+426735048+432106396+437508265+443266299+449682507
2062+456518772+463433523+470543022+477720555+484641576+491520106+498570998
2048+505710447+512965553+520348782+527781610+535150358+542457267+549990587
2035+557686084+564977220+571698817+578287844+585129735+592065617+598590146
2021+604483791+610012299+615387905+620403732+625012692+629649168+634337601
2008+638547901+642266386+645871078+649381739+652555124+655434787+658181805
1994+660493107+662594837+664820850+666564703+668019699+669571995+670645778
1981+671281641+672081847+673028610+673713806+674201972+674479578+673953024
1967+673200479+673457484+674208053+674526175+674441798+673967999+673344755
1954+673286451+673752877+674145113+674426671+674375818+673797194+674209421
1940+676536687+679133348+681015623+682983110+685709452+688959839+692443592
1927+695761556+698539436+702041051+707062656+712250809+717750394+724378645
1913+730753387+736367906+742754278+750106797+757007484+763491003+770568349
1900+777891298+784310052+790125174+796360581+802183457+807047255+812091056
1886+817038319+821577155+826354448+830509182+833485916+836179572+838431658
1873+838606568+835723408+832121985+831825148+833872071+834660647+833270947
1859+830995752+828941075+826617535+823163809+819004134+814630554+809364562
1846+802347496+796058499+793777451+792202199+788491467+784162888+779852552
1832+773663058+766240910+761854560+759951989+757911299+756364780+754521805
1819+751740504+749193937+746572495+742909196+739470825+738032780+737589234
1805+736165935+733240739+730099661+728765832+728826719+727541159+724286591
1792+723464721+727445761+731036694+731470129+730498130+729557144+729523926
1778+730698809+730313034+726383532+722481623+724171277+729374861+733804540
1765+735809275+735861953+736571778+737803063+738434441+739804529+740046484
1751+737240783+735374471+737370768+740574634+742926680+744071081+745458044
1738+747476842+746800843+745018907+748741650+755454961+761836012+766541092
1724+768948932+769525884+767005466+761639362+761689076+770974647+780902163
1711+786862549+788248296+786536750+786655409+788523013+787995243+789041129
1697+794993077+804205979+814640436+821477575+824636213+825184507+822006865
1684+822160263+832822612+844010755+850215908+853163529+856501181+859807135
1670+863400196+871407809+880057442+884644243+888908817+896130895+901866810
1657+901647279+894538312+890825527+899798298+904735071+904709302+911612194
1643+922353066+927370262+925100084+918336603+915759326+924428495+934204817
1630+938004486+938435109+939297647+939610068+940995663+943820064+943748610
1616+944063235+950398981+956709567+958968039+959066326+958850292+959066706
1603+961334831+965071864+967305783+968029443+969283457+970316648+970291335
1589+972009039+976147201+979333888+981150639+983692113+985367476+983265519
1576+981240792+983818297+984176478+980773530+982640374+989681917+993736083
1562+991346714+982003751+978020583+990974622+1005118823+1015178756+1021265174
1549+1024819924+1026113542+1023134375+1015752439+1009576095+1018924227
1537+1036713331+1046835596+1050724658+1053675928+1054596237+1053163285
1526+1051082383+1045812894+1039150665+1040011607+1046757909+1054817364
1514+1061251245+1061112442+1053764789+1042128083+1039913700+1056347463
1503+1070472356+1073741823+1071874219+1072056198+1073664668+1072017810
1491+1066303788+1062246125+1064523524+1068919681+1071123194+1070917650
1479+1070023794+1067804013+1062200440+1055854964+1056315309+1061440066
1468+1062235407+1057453856+1052471019+1047742451+1036667646+1020269686
1456+1014397933+1019454581+1021463116+1018442826+1012951070+1008161842
1445+1004309039+998743321+990543239+979418644+966534691+958358021+954222595
1431+948544528+941999361+936429462+931735176+929323155+929128405+932080207
1418+942571675+954952792+961472570+964017465+967875969+972666262+974950426
1404+977696760+982499899+984036535+983029949+985617640+993126977+1001844111
1391+1006949636+1007649579+1007128195+1008554306+1012144174+1016428665
1379+1019586618+1020502671+1020734060+1024200176+1029728115+1032412877
1368+1032079933+1029932899+1027160264+1027535016+1030698138+1032429144
1356+1032432869+1032717012+1032682957+1031088245+1028463003+1024796283
1344+1020329814+1015304180+1009629153+1004981388+1001671102+997759615+993944287
1331+992827860+994439446+997646657+1001776382+1004404817+1004615606+1004974091
1317+1006043085+1006237835+1007712443+1012074241+1015387340+1016988437
1306+1020053120+1023028106+1023987563+1024991869+1026718542+1027235214
1294+1026401941+1027470631+1032421923+1037980875+1040357398+1040981630
1283+1043463661+1048290288+1052663260+1054056305+1052916465+1050547164
1271+1046520895+1041700425+1037485108+1032041621+1024177296+1016575753
1260+1012768939+1012319312+1011316375+1008311819+1004546128+1000945998
1248+998063674+995867078+993837182+992624672+992796846+992963850+992394424
1234+991725343+991715765+992309287+991787599+990508196+990613324+991441352
1221+991821197+992664276+994301480+995432122+995244442+994049871+993303331
1207+994486271+996312068+996934628+996805783+996366418+995529497+994798844
1194+994110075+992998817+992084664+991554386+990209838+988040304+986026903
1180+984106773+982324685+980670986+978477279+976535940+975646493+974816792
1167+973933046+973500903+972658888+970610901+967975777+965306826+962080535
1153+959147281+958262014+957967458+955208049+950463214+946980754+945565209
1140+943712731+940621899+938881315+938898951+937029674+932254204+927836232
1126+925477117+924565929+924012922+922026963+918703450+916093486+913583178
1113+909761009+905088539+899456537+894409315+893007300+894119623+893698350
1099+890705272+888253419+888459799+889071261+888177328+887124677+886913737
1086+887684221+889680594+891435773+891356566+890940613+892158292+893873715
1072+894353140+895186489+898870083+904656700+908819035+908679852+907286047
1059+908718544+910964017+911299241+910548293+910189655+911756546+914951518
1045+918124750+920243355+920442666+919787875+919324794+917657108+914569012
1032+912397805+912316166+912387543+911475063+910889826+910300485+908814094
1018+907751181+906369386+902259425+897774180+896395806+896226293+894273400
1005+891997977+891343491+889910311+885812056+883087994+884748763+887970948
991+892066391+899715062+910013909+919534974+925598892+927901225+927849763
978+926048367+924040592+922590916+919985665+916479565+913891722+912765108
964+912303091+911104796+909552044+908750774+908033499+907260126+906724299
951+905353678+903887811+903966715+903358521+900488968+898086144+896495537
937+893683755+890956272+889559807+887157744+882483602+877791901+874377398
924+870968444+867018950+863315744+860930935+860626573+860664504+858106382
910+853618477+849117952+844134507+839558272+836924592+834960373+832641241
897+830452095+828801208+827644341+826396028+825125291+824587715+825277929
883+827181792+829093333+829813420+830541336+833228911+837150507+840149894
870+842271995+845662249+851413671+858604963+866963459+877304190+888514681
856+899330504+911843506+926750135+941907763+956823057+970001795+980584709
843+991648264+1003332858+1012202554+1017121463+1020181965+1023499245+1026632950
829+1027658388+1027367252+1028523131+1029949166+1029627624+1027661504
818+1024074600+1022360394+1025100114+1028569880+1029070588+1026381569
806+1022670685+1019994437+1018596451+1019062877+1020492789+1020736872
795+1016573093+1004704239+992663592+989454405+990305313+987684023+981112555
781+972895294+965731292+960776504+956522571+951021769+944375655+938048802
768+933180595+930085126+927672877+924268180+920809816+920415452+922191231
754+921266741+917349325+915570506+916706925+916297662+913786137+911983830
741+911640167+911416380+909812699+907230100+904751946+902575570+900494137
727+898357745+896221276+894095906+891912613+889655966+887942823+887756283
714+889065332+890886111+892961843+895699740+898640975+900920883+902703579
700+904711050+906685455+908867988+911527970+913234651+913535441+913731407
687+914144318+913023406+912778487+918036801+923153881+921086814+917812254
673+918927237+918402584+912190285+910829623+917463271+921366396+920558208
660+917297863+914552061+913838587+914624959+916788184+919650745+922673012
646+926343000+928285707+926483019+922317795+921197111+920683252+904881703
633+887363667+893348834+910130060+921239983+930018917+930795179+923842878
619+924821870+936282374+942616068+934574324+925753734+927898108+927870287
606+915329539+907354536+917183157+937279610
##END=
