##TITLE=Sample description
##JCAMP-DX=4.24
##DATA TYPE=INFRARED SPECTRUM
##DATE=13/9/2023
##SAMPLING PROCEDURE=Instrument type and / or accessory
##ORIGIN=Default
##XUNITS=1/CM
##YUNITS=ABSORBANCE
##RESOLUTION=4
##FIRSTX=4397.6552
##LASTX=599.8556
##DELTAX=-1.9287962
##MAXY=1.8536808
##MINY=0.47466138
##XFACTOR=1
##YFACTOR=1.7263748e-009
##NPOINTS=1970
##FIRSTY=0.49273178
##XYDATA=(X++(Y..Y))
4398+285414137+283636830+281700824+281028985+280871754+280707825+281626697
4384+283557921+284941615+285083879+284605160+284205644+284226411+284719320
4371+284416079+283247792+283146890+283271926+282588278+282161003+281807406
4357+281298943+281078150+281272997+281417850+281212732+281140832+281118856
4344+281973441+284390409+285670802+283680471+280691684+280297416+282513754
4330+283737645+282398748+280808088+280218472+279334747+278087516+278036159
4317+279148722+279842727+278855528+276411249+274946885+276145107+278837574
4303+281077718+281813344+281848319+282208424+282263165+281406905+280306254
4290+280009159+280164284+279803039+279577568+280025766+280003635+279088077
4276+278185449+277783792+277932961+278121369+278248217+279016505+279383342
4263+278340367+277493861+278487119+280749032+282026093+280983756+278887292
4249+277893498+278903415+280916690+281681214+280487308+279235226+278887930
4236+278466369+277633639+277419630+278406916+279634190+280249338+280130120
4222+279076286+277930855+278144864+279342015+280258419+280819085+281200665
4209+281349593+281607156+281846817+281150965+279395116+277893705+277744743
4195+278405914+278655588+278535283+278384439+277671479+276826095+276882545
4182+277967815+279325771+279613320+278815409+278061070+277787417+278237842
4168+279014882+279165018+278667120+278221874+278357716+278707964+278803411
4155+278801011+278566132+278060206+277987460+278761945+279562739+279449321
4141+278707722+277980331+277430972+277149206+277139245+276952080+276609532
4128+276683279+276835435+276855529+277358260+277963430+277725064+276925720
4114+276355197+276245888+276837696+277921965+278531226+278238861+277472852
4101+276947885+277083831+277903424+279221381+280420052+280921247+280394192
4087+278991836+278094249+278749223+279991016+280346943+279642477+278531882
4074+277580901+277188445+277334576+277677021+278074500+278311089+278102397
4060+277782739+277960375+278466058+278675976+278591957+278284866+277350993
4047+276290892+276666741+278691771+280436969+280361530+279024118+278003860
4033+278080663+278561799+278634614+278514360+278631299+278910130+279006630
4020+278902155+279281785+280429892+281116819+280613224+280306185+281154797
4006+282233041+282554149+282330352+282340434+282685261+282735911+282097751
3993+281373346+281499245+282401976+283291830+283612437+283278537+282680324
3979+282361322+282295516+282291960+282750446+283532354+283877475+283881912
3966+283978774+284062379+283971472+283553070+283106529+283557696+284554580
3952+284597444+283743860+283543489+283802675+283516006+283829260+284952491
3939+285595381+285502799+284478865+283468205+284202986+285719657+285738007
3925+284841369+285353233+286049379+285417054+285666538+287743496+289123306
3912+288811675+287960008+285844899+281524915+277933168+277667440+279998525
3898+283966638+286830648+285739285+283026913+284005722+285880116+284781243
3885+283586370+283362073+284164610+287368544+288646262+286268497+283313944
3871+281503613+282495369+283725233+282802149+284378118+288635714+290076463
3858+287030709+279922395+275102114+281265125+288878828+291664758+290152005
3844+286775407+283705433+281485987+280959812+282765810+285304396+287754285
3831+289675548+290128700+289895029+288763443+284621422+282152354+284703162
3817+286778272+289787136+294367065+295858929+292994177+289612935+289049144
3804+287604011+286431926+289807402+293083565+295366417+298482656+300830555
3790+301872823+301725501+300499072+299642001+298993122+298639922+301202330
3777+305220317+306557470+304399705+301725639+302202166+304776590+307795431
3763+310079561+309602206+308847435+310946368+312420210+309867675+308094183
3750+315184664+325128986+337370662+359150843+379851502+391546012+396523611
3736+398468731+402539783+408499644+412456658+413173622+412864374+414957196
3723+420665052+429315378+439938825+450781374+457818719+459858233+465397119
3709+479688839+496269178+510425729+523311555+538488795+553405503+562504839
3696+565479728+563840197+559190007+555489556+556015316+557705531+556737287
3682+553377468+548282101+539680560+528263190+522497538+521011336+516859872
3669+513375933+511611521+508336705+503833043+498336105+491025143+482585114
3655+475311957+466630246+453128133+441014687+439012461+442134776+443015083
3642+439207221+432884286+427210956+421970856+415360148+406995972+398043993
3628+394984688+397214819+397097811+393094326+386857394+382103696+379734943
3615+376927331+373954824+371462226+369090988+368361628+368204224+366030543
3601+362699208+359791885+356927686+354470650+353546633+352319307+348332048
3588+344848420+345833927+347767067+347543891+345624286+343289713+341567631
3574+340630080+338774692+334121499+328434841+327321243+330431094+332415367
3561+332657290+332545253+331751814+329906335+327908218+326579627+324782795
3547+322084389+320807345+322239583+324047911+323858917+322414387+321205843
3534+320251133+319031367+317473731+316061622+314845516+313638594+312743855
3520+312340662+312319532+312476798+312133472+310942467+309980368+310034021
3507+310092784+309367395+308861832+309223698+309261435+308293501+307087546
3493+306350453+305979852+305680029+305567716+305433618+304650087+303796572
3480+303737671+303819566+303528962+303134158+302761244+302591100+302555331
3466+302258340+301659695+301227258+301092780+300739925+300205533+300213647
3453+300936654+301322446+300528005+299557344+299465332+299816150+300189962
3439+300427604+300174253+299812559+299748755+299309551+298349800+297727022
3426+297685971+297641674+297547142+298008443+298752718+299048570+298892755
3412+298760382+298986527+299300437+299422589+299485392+299676493+299899599
3399+299698279+299232144+299177697+299597739+300111346+300267921+299888240
3385+299543706+299896043+300711234+301493936+302176858+302450442+301978162
3372+301238962+300774796+300622364+300889905+301388839+301489828+301035881
3358+300424634+300193932+300592534+301222770+301394640+300840050+299886238
3345+299036659+298631532+298577119+298523431+298407908+298266904+297806294
3331+296912073+296175049+295921318+295438093+294157493+292802110+292427538
3318+292706473+292208368+290502547+288668065+287592290+287338369+287282679
3304+286233195+284163781+282595322+282533468+283609744+284670708+285301703
3291+285919182+285764661+284675939+284538163+285722194+286789804+287368355
3277+288303333+289752333+290602914+290603673+290551366+290879673+291715476
3264+292604760+292983198+292956613+292753497+292533049+292673812+293361844
3250+294243117+294860751+294933635+294501233+294143648+294487630+295406571
3237+296346677+296914317+296910485+296834908+297321895+298020803+298233310
3223+297999639+297827355+297857496+298145580+298903147+300225144+301703232
3210+302375762+302322661+302733278+303681014+304168692+304365214+305240928
3196+306576528+307958117+309221178+309969354+310625795+311255651+311155871
3183+310596517+310303737+310872690+312293569+313306317+313305108+313128854
3169+313396257+314125513+315022081+315714153+316272126+316836694+317331968
3156+318067197+319200613+320037694+320412196+320841456+321106443+320887514
3142+320537732+320561969+320938302+320885719+320151008+319712598+320054231
3129+320409572+320212774+319661776+319184075+319054120+319205378+319300393
3115+319025360+318710138+318700678+318475604+317767236+316935749+316273266
3102+315925452+315608884+314944778+314387116+314585432+315169093+315427864
3088+315284616+314884634+314508060+314701681+315419578+315958562+316214192
3075+316640345+317242684+317683545+317866774+317905098+317824825+317630824
3061+317434233+317519098+318010298+318478884+318720289+319065202+319546701
3047+319707143+319103664+318037194+317306867+316882164+316208771+315445196
3034+314717218+313596058+312366694+311925143+312231940+312355715+311939022
3020+311327741+310558504+309581697+308688719+308108063+307863827+307801266
3007+307763874+307811934+307987326+308268608+308677775+309287088+310460243
2993+312543156+315202583+317778319+320068456+322160933+323721987+324475791
2980+325047125+325821956+325974008+325089316+323966292+323065270+322321616
2966+321803762+321195381+320286038+319524673+319137776+319102974+319249156
2953+319065444+318682586+318737241+319072487+319129075+318775219+318246283
2939+317872160+317644738+317240405+316463089+315555438+314958865+314688837
2926+314492972+314112186+313494966+312873051+312211673+311608851+311391683
2912+311502649+311931944+312609999+313092015+313276970+313413140+313356897
2899+313102649+313141041+313514404+314037852+314655209+315196127+315693610
2885+316197999+316777516+317341739+317297649+316747410+316540254+316646421
2872+316511978+316360927+316519297+316637238+316446033+316123492+315869002
2858+315794046+315797326+315506238+314793002+313870366+313141041+313129130
2845+313622367+313783120+313560393+313752702+314708034+315731554+316129949
2831+316187262+316482285+317010014+317451427+317582039+317374953+317081690
2818+316870495+316838316+317296095+318166183+318856183+319142161+319437702
2804+320143170+321121979+322019860+322715937+323141952+323326493+323643164
2791+324217468+324500960+324170754+323786723+323833091+324055438+324166646
2777+324267462+324497749+324602915+324218055+323543902+323209588+323517766
2764+324034515+324250095+324191953+324157980+324344351+324597391+324736220
2750+324728451+324506450+324234420+324182355+324362615+324585307+324719820
2737+324868247+325190857+325582553+325680227+325396769+325017813+324792531
2723+324787491+324890136+325062179+325367319+325687063+325815396+325728977
2710+325624157+325653780+325846158+326162899+326420807+326505189+326487235
2696+326430337+326376476+326385039+326428610+326363218+326242447+326226150
2683+326063188+325625365+325255006+325009423+324800714+324687158+324528615
2669+324305336+324188466+324126699+324026402+323881220+323692156+323551084
2656+323459521+323221016+322800318+322484406+322510680+322646367+322495523
2642+322195735+322084907+322049414+321952742+321941452+321955331+321761951
2629+321532078+321687962+322202571+322590055+322642880+322683275+322911768
2615+323156073+323312579+323460004+323716981+324056267+324267392+324403908
2602+324789148+325347259+325734191+326073063+326596924+327119197+327512344
2588+327819348+328108192+328583337+329120526+329322709+329365073+329662444
2575+330099853+330446873+330669565+330712584+330662556+330611803+330481399
2561+330333662+330290021+330370501+330577933+330857040+331094475+331135250
2548+331040338+331154619+331405588+331396715+331334361+331607668+332034304
2534+332328983+332421685+332374661+332410809+332575015+332668856+332770776
2521+333124770+333623221+334037877+334282804+334310839+334292505+334460405
2507+334696597+334850133+335069338+335445843+335870443+336396928+337091935
2494+337617591+337767883+337910336+338275103+338672254+338963411+339159587
2480+339370713+339703612+340027119+340063441+339765517+339432549+339252427
2467+339194182+339452539+340037961+340436942+340490181+340570661+340786896
2453+340823597+340592239+340579154+340975857+341317525+341457113+341668412
2440+341989054+342276275+342491371+342665761+342761433+342705501+342552689
2426+342444934+342497724+342761709+343065433+343272105+343613359+344132214
2413+344442015+344368061+344186834+344196260+344391262+344639227+344863162
2399+345116617+345522503+345981594+346316495+346484084+346581102+346693346
2386+346419624+345243776+343142702+340266418+336760382+332812380+328518394
2372+324052883+319831988+315973926+312310141+309131825+306878630+306202337
2359+307770434+311202274+315809168+321688273+327821592+331042617+329597812
2345+325524998+322827041+322496179+323451580+325132197+326719180+327711558
2332+328757451+330751771+333412130+335816479+337873877+340187458+343127752
2318+346422525+349401350+351721525+353764975+356008744+358333166+360427818
2305+362243742+363850681+365370995+366924246+368509226+369996257+371317701
2291+372618879+374033129+375421311+376573165+377551180+378426342+379162262
2278+379999239+381002458+381794344+382388880+383152420+384113276+384981050
2264+385577105+386237171+387285377+388439026+389361731+390004396+390504676
2251+391041036+391539348+391999164+392725624+393679022+394454025+394974882
2237+395425480+395873661+396314108+396794052+397358274+397870293+398142634
2224+398291751+398665114+399276637+399715565+399891302+400192989+400743608
2210+401354198+401969554+402500700+402921605+403465112+404172306+404911091
2197+405695554+406435997+406941421+407316994+407759098+408221434+408721922
2183+409460258+410421667+411319789+412089751+412935808+413797505+414485779
2170+415224910+416318345+417564730+418608621+419443043+420282782+421260797
2156+422305205+423318851+424340542+425489736+426815738+428260025+429732244
2143+431118494+432387838+433548565+434660713+435873608+437172369+438582441
2129+440175604+441759583+443206426+444658412+446301673+448080412+449780882
2116+451441578+453238858+455170099+457036431+458753473+460593876+462706033
2102+464910615+467129249+469395115+471701203+474019963+476401145+478983544
2089+481774515+484720575+487865090+491224184+494665795+498066389+501670410
2075+505687636+509746570+513579256+517510582+521828667+526472712+531311724
2062+536230525+541207710+546393189+551836267+557410300+563007708+568481963
2048+573848530+579531045+585618997+591695831+597878591+604487746+611145514
2035+617692522+624385920+630717970+636375246+642169590+648523391+654961988
2021+660865641+666180973+671599813+677245350+682634152+687984907+693302034
2008+697997902+702315503+706757191+711110838+715151197+718901401+722157469
1994+724912153+727996697+731859316+735717378+738841282+741169087+743111307
1981+744935794+746288864+747454942+749453991+751666549+752393872+751722895
1967+751691891+753924267+757024762+758729512+759138782+758960629+758517316
1954+758911326+760703980+762466596+762609809+761479431+760532317+761038881
1940+762928138+764804483+766105419+767402764+768908714+770369712+772087238
1927+773907443+775173439+776647143+778960723+781842600+785700524+789966337
1913+793587275+796986627+800628764+804472394+808864710+814240117+820582524
1900+826899245+831479934+834543901+838048901+841740825+845144181+850351446
1886+857140136+862526107+866246411+870322470+875068745+879256461+881972406
1873+882743024+881785276+881629219+885643200+891782457+895823230+896999942
1859+896137969+894476099+894016628+894463048+893586919+891511015+889092751
1846+885358361+882200967+882784317+883758569+882248682+879995108+877591898
1832+872873588+866959509+864208623+863513410+861919763+860031058+857870428
1819+855607462+854295478+852508555+848256829+843672963+842098651+842052801
1805+840579028+837406857+834106596+832432987+831848326+830350316+827323292
1792+825360149+827010487+829467903+830251779+829859979+829033429+828499520
1778+828569332+827227863+822817869+818918238+821572934+827569738+830854739
1765+830291898+827970791+827840973+830252055+832501003+833981888+833198565
1751+829544067+827385232+829666565+833376649+835485698+835504480+835929356
1738+837722769+837104480+835243050+838518108+844027061+848796192+852314865
1724+853942968+854011675+851609501+847626593+848626049+855772910+863008641
1711+867521729+868595001+867960415+868770876+869155356+865788045+863959415
1697+867775080+875175499+884401579+890960465+894162258+894411259+890497818
1684+889517420+899191784+909910143+915450652+916935887+918596238+920757628
1670+923027775+929864387+938751423+943592783+946432331+951181921+954911685
1657+953933842+947945808+945981975+954228762+958407846+958882370+964603450
1643+972239474+976118252+975759597+971689062+970731176+977991282+984298612
1630+986412080+987080640+987520638+988228419+990904038+993321058+993398120
1616+995728549+1001279969+1003541415+1002877137+1004090722+1007411837
1605+1010090150+1012286066+1015180648+1018529108+1020627938+1021163020
1593+1021965264+1022769994+1023194524+1025131289+1028553082+1031397395
1582+1032504226+1030893593+1026467925+1024521562+1027565020+1027665421
1570+1024651793+1026705739+1031866049+1033634328+1029329777+1017178110
1558+1011496390+1024145644+1036137801+1043384925+1048251351+1051653809
1547+1051577300+1047013597+1039944557+1033597040+1039728287+1052845022
1535+1057512855+1057097922+1060383476+1063418786+1060459019+1053686142
1524+1046699412+1042373938+1044199598+1049470115+1056255559+1062607496
1512+1063573117+1057193214+1046213425+1044344331+1058643578+1070886324
1501+1073741823+1069881896+1067720437+1070748566+1070023314+1061748354
1489+1056627541+1061222317+1066618785+1067593036+1066650825+1066820485
1477+1063931772+1053951094+1044922087+1046234762+1051574814+1051677011
1466+1047827028+1046688225+1045891506+1038121728+1024102831+1016513901
1454+1019844407+1022094805+1018303309+1011258575+1006917979+1006631897
1443+1004981283+997953260+985235230+969474916+959905304+956846930+952361740
1429+945785177+940692331+937746995+936613855+936495569+939442631+949681839
1416+960117914+964867021+968221972+971804517+972418457+972561187+977145950
1402+983594698+988855133+992802893+993959166+996727107+1004891516+1010787504
1389+1010378441+1009157605+1010660172+1013349326+1015926753+1017667687
1377+1018706088+1020785928+1025213184+1029294974+1031301136+1032943257
1366+1032400579+1027299032+1024179272+1029137813+1035237158+1034314419
1354+1028957725+1024989249+1022827721+1021162261+1019978713+1018735435
1342+1016077217+1012341653+1009274441+1007137357+1005335243+1003823354
1331+1001897637+998616433+995975962+996832135+999694470+1001883550+1004328122
1317+1007837680+1009639863+1009453906+1011682070+1016660428+1021254445
1306+1025310962+1027862978+1027257394+1025955629+1026672525+1028569309
1294+1031223039+1035636139+1039927709+1042918895+1046764666+1051570602
1283+1056332069+1060968828+1064676150+1067175687+1069072057+1070021174
1271+1069472557+1067865998+1065492757+1063361749+1063291731+1063807824
1260+1061962276+1058848178+1056656958+1054767562+1052233361+1049447673
1248+1046053570+1042375526+1041229750+1042703177+1043991614+1044167973
1236+1042080399+1037474713+1033061543+1029601772+1026813391+1026089590
1225+1026873811+1026696900+1024861158+1022966032+1023933447+1027390319
1213+1028425543+1026390725+1025236248+1024959764+1023419357+1022399807
1202+1023474115+1023395810+1020967673+1019114737+1019092709+1020479062
1190+1021851743+1021152939+1017837209+1014463131+1014123189+1015254189
1178+1016470674+1019538784+1020769425+1015646265+1009021711+1005599297
1167+1003076420+1000695790+1000634127+1000743850+998601518+996765293+996713435
1153+996866039+995943507+994335153+993396325+992385061+989995523+987269842
1140+985562536+984469860+982295833+978796150+975076606+971599088+968645121
1126+965798944+962780552+961543281+962919553+963200801+959864977+955675259
1113+952650169+949851223+946886415+943635595+939750602+936100110+933440165
1099+931282642+929421074+928552541+928821429+929365833+930349200+931089366
1086+929481011+927313268+927748640+929533974+929770062+928892069+929755147
1072+931966048+931532471+929025684+930038328+934242893+935276805+932708078
1059+932562448+936669304+940641785+941838314+941909783+942252901+941899632
1045+940342860+939654068+940735143+943420015+946702668+947519620+948062367
1032+951396534+952073656+947913423+944079529+941971653+940716154+940380976
1018+940098761+938569195+936089407+935750017+938333176+940122308+939524458
1005+938947116+938955540+937596669+935528154+934671221+935798353+938914247
991+942003072+944599903+947942079+950562940+952404966+955254458+957050564
978+956405827+956145364+957122585+958336585+959821820+960651961+960222942
964+959001692+957132460+956461898+958054646+959058383+958427940+957160840
951+954630368+952426787+952695467+954153082+954886964+954384681+953496606
937+953493361+954192441+953651351+950622808+947473839+946765091+945848152
924+942572749+940023357+938899055+937410230+936244152+935003636+932284584
910+929526240+928376597+927769563+926406411+924823467+924431391+925741511
897+926434515+924645590+923194535+924183219+924967302+923673962+921978809
883+921765923+922861499+924406878+927250431+930919913+933021228+934199804
870+935831636+937132089+939331113+944517179+949413159+951132618+954969550
856+963684578+971605786+976143180+981081143+988279310+997212472+1006864671
843+1014111588+1018464061+1022524929+1027755188+1034700971+1038455801
831+1036396538+1035736334+1037987077+1038651770+1038255688+1036841715
820+1034688542+1037186145+1044505084+1050081500+1052532010+1053416149
808+1051910544+1048541576+1045250705+1042404597+1039400291+1038130083
797+1039066771+1039696454+1039105509+1035651124+1029246086+1022950012
785+1016587164+1009974626+1004859614+998980267+992048226+988880130+988304307
772+984505974+977431755+972749560+973586468+975594287+974971095+973625275
758+971328129+965966464+961865753+963059383+964592471+962848982+960491484
745+959110794+958207113+956850176+955504080+955192656+955839948+955733470
731+952730476+947898784+943620334+941099046+939971499+938227320+934452741
718+929669039+926878104+928356227+933746479+939668293+943200845+944966292
704+947608559+952493491+955566158+954610964+955062356+958004446+960146778
691+962299053+964072511+962802234+959586699+957489112+959344879+965497671
677+969309468+967905783+967778935+966169338+958042148+956169739+963183331
664+966659606+965855843+961716394+957744742+958220509+962564489+966113544
650+963830829+959925398+959638280+960598998+964006566+969892266+972573961
637+973367988+978023322+986927345+996679600+997993379+983466814+964829526
623+955347125+946482255+939048069+948980825+970349596+990243005+1003941915
609+999873383+992864349+1008694060+1031828071+1033657874+1028748222
##END=
