##TITLE=Sample description
##JCAMP-DX=4.24
##DATA TYPE=INFRARED SPECTRUM
##DATE=13/9/2023
##SAMPLING PROCEDURE=Instrument type and / or accessory
##ORIGIN=Default
##XUNITS=1/CM
##YUNITS=ABSORBANCE
##RESOLUTION=4
##FIRSTX=4397.6552
##LASTX=599.8556
##DELTAX=-1.9287962
##MAXY=1.7948195
##MINY=0.42428374
##XFACTOR=1
##YFACTOR=1.6715559e-009
##NPOINTS=1970
##FIRSTY=0.4467639
##XYDATA=(X++(Y..Y))
4398+267274283+265575848+263880569+263158954+263766855+265019224+265217964
4384+263980340+262343184+261271745+261344791+261550931+261221253+261799397
4371+263412466+264524074+264834764+264452294+263655904+263828704+264729982
4357+264638947+263712636+262677996+261407264+260566765+260889436+261947539
4344+263134332+263472015+262431349+261772564+263115915+265009988+264664032
4330+262192653+260778860+261723784+262892926+262950229+262642249+262576246
4317+262888736+263024291+262602241+262476938+262685289+262302623+261639737
4303+261575642+262099906+263119338+264007387+263458198+262290588+262190549
4290+262874794+263754784+264621011+264551246+263106626+261115170+259629828
4276+259413222+259851230+259938075+260364119+261613956+262726955+262498154
4263+261317601+261115045+261750474+261356041+259944726+259211593+259884071
4249+260698254+260950607+261211019+261035046+260288007+260058101+260298954
4236+260308635+260518252+261245768+261478295+261015255+260811166+260118131
4222+258704516+258577573+259807620+260949894+261465048+261342098+261579921
4209+261985586+261219434+260082937+259426969+259150546+259988514+261942885
4195+263077261+262337871+261471538+261400899+261067958+260566800+260656677
4182+261253024+261838478+262054923+261703048+260657996+259814627+260255754
4168+261178909+261588889+262049860+261886492+260115510+258503850+258021020
4155+257917166+258300134+259141846+260061934+260594845+260218883+259571313
4141+259808012+260779894+261165501+260793319+260667214+260581652+260006664
4128+259615226+259761710+259866884+259998641+260615117+260964870+260167874
4114+258742242+257799244+257687046+257954428+258476161+259138316+259351944
4101+259312649+259409835+259316375+259352586+259965693+260680746+261276880
4087+261553141+261125475+260687414+260980079+261206793+260295994+259096293
4074+258964393+259112963+258921282+259645553+260888188+260897191+260496054
4060+261045101+261611211+261569330+261243860+260381824+259426880+259139118
4047+259161779+259302397+259819708+260622249+261209967+261157353+260996945
4033+260969078+260427555+259722522+259630630+260054178+260533763+260701820
4020+260814892+261318475+261841152+262000741+262015895+262020174+262046651
4006+262226635+262373083+262160792+261738154+261394962+261061593+260849427
3993+261208113+261829546+262066459+262308079+263105128+264233870+264740394
3979+263960354+262961675+262770405+262998118+263211033+263170079+262967951
3966+262989221+263293154+263847656+264226293+264030939+263905957+264317185
3952+264169293+262892605+262519977+263776786+264701349+265196677+266289047
3939+267083173+266352055+264454059+263144530+263606286+264747508+264783773
3925+264071732+264236794+264338331+262995390+262500312+264773307+267074026
3912+267693694+267661192+266161551+262339672+259033605+258564754+260220613
3898+263239862+265316809+264673125+263742857+265080894+265589665+263974599
3885+263267123+263155246+262940441+264155939+264372366+262827529+261596448
3871+260765274+261333986+262478061+262633994+264047948+266633131+267727480
3858+265851985+259509428+253825639+258666754+265627730+268268789+267086435
3844+264275644+261545421+259451412+259603084+262716703+265622203+267143952
3831+268340409+268628687+267894664+266454305+263119320+261322718+263544276
3817+265264195+267236467+270348963+271393142+269231489+267066146+267408589
3804+266787495+266249342+269094669+271817670+273628143+275305646+276300046
3790+277033018+277219118+276710828+276865317+276992296+276229461+277103443
3777+279672151+280701817+279172883+277167984+277587538+280126454+283110028
3763+284281881+282430704+281561661+284205519+285944069+283942753+282869424
3750+289997192+300172361+313139317+335305013+355545346+365687603+367376660
3736+364186144+363088050+366101880+369162208+369554020+369266009+371934168
3723+377488714+384404262+391928495+399264275+404975396+409226671+417423988
3709+431690292+446831612+460240123+473911113+490331992+505902172+514754566
3696+516139779+512859333+507382165+502378859+500086038+498671085+495262555
3682+489558886+482767750+473817689+463000993+458742943+457673768+452145894
3669+448372759+447909274+445323663+440597492+435047474+427812215+419337906
3655+413273875+407617774+397677521+388244292+387023926+388623160+387231492
3642+382764235+377543414+372697681+368242690+364449801+359320728+350911387
3628+346617999+348551243+348536196+344146139+337828044+334148119+333292251
3615+332063470+330301528+328197838+325891289+325205724+325416750+323838875
3601+320361632+316956311+314436490+312749894+312109865+310910288+307383908
3588+304644289+306024832+308087978+307839869+305876030+303801009+302277513
3574+301239004+299722676+296243525+291855786+290698517+292454112+293491212
3561+293624110+293580732+292947568+291386453+289509459+288298614+287138119
3547+285650887+285184443+285963182+286694068+286559351+285679378+284716536
3534+284208621+283810444+282843964+281477097+280276575+279676038+279901719
3520+280249422+279967455+279280197+278172172+276770574+276340286+276964661
3507+276878368+275675778+275079110+275646164+275896859+275547177+275623236
3493+275823082+275091145+273860010+273345641+273662214+273945501+273739842
3480+273418294+273187836+273001985+272959409+273007477+273062711+272994408
3466+272629197+272160523+272021367+272395689+273079881+273537892+273255087
3453+272557292+271910880+271161524+270721127+271105148+271855325+272486617
3439+272781582+272867304+273346479+274056950+274093892+273587778+273306310
3426+273193363+273053440+273231428+273711726+273973885+274023218+274238950
3412+274605231+274876447+274798444+274386771+274236168+274713043+275387910
3399+275979443+276577788+277010767+277297299+277567588+277665772+277798367
3385+278157944+278300648+278086789+278117455+278695028+279491507+280123477
3372+280184702+279668247+279379647+279811753+280294404+280109160+279710805
3358+279903020+280450676+280629841+280450409+280250331+280149472+280342079
3345+280667835+280485907+279727939+279106933+279245590+279889470+279906836
3331+278823112+277709739+277136730+276277974+275226485+274808981+274473955
3318+273516658+272393460+271426161+270267502+269001797+268161619+267386267
3304+266176100+265156864+264615002+263977702+263378608+263338457+263648505
3291+264107426+264817131+265534752+265995259+266595921+267747057+268747197
3277+269003152+269193477+269918408+270709342+270888614+270768125+271037023
3264+271754787+272298111+272115897+271849905+272029729+272214046+272343913
3250+272683076+273181275+273323123+273007744+273129855+273846835+274524750
3237+275249396+276123431+276717532+276998697+277537866+278547153+279025241
3223+278423277+277925007+278241492+279028735+280070525+281114614+282035201
3210+282767157+283204932+283760950+284773750+285742565+286268772+286948435
3196+288137208+289432366+290748242+291965934+292801975+293335208+293480872
3183+293291063+293473241+294357332+295382023+296166361+296801914+297183778
3169+297422777+298188697+299569631+300544205+300810714+301276731+302072407
3156+302924638+303806750+304205765+304431838+305242135+306076144+306515310
3142+306676699+306369432+305916502+305593225+305196171+304968351+305124890
3129+305476979+305944886+306447773+306725301+306708756+306488887+305807994
3115+304536174+303338772+302893259+302797695+302201312+301210478+300455701
3102+300006087+299702779+299538109+299308470+298888078+298736888+298982840
3088+299029124+299039376+299717933+300629285+301030119+301183057+301340737
3075+301350864+301438441+301711226+302100007+302776478+303385306+303305289
3061+302655312+302080288+301931237+302002410+302173391+302352788+302223349
3047+301838276+301493818+301166939+300639804+299975956+299374616+298552784
3034+297316765+296245682+295633806+295005936+294224380+293550120+293043435
3020+292536554+291795773+291119890+290944487+290765127+290036648+289215368
3007+288752543+288356719+287843652+287617454+287862158+288363940+289416302
2993+291412982+294001731+296706457+299109177+300776874+301799408+302504228
2980+302931770+302976128+302807323+302585136+301895685+300573480+299268676
2966+298334128+297470416+296645357+296056016+295734718+295801399+296103477
2953+296116100+295898817+295999159+296288953+296185723+295758057+295465642
2939+295392881+295136142+294282788+293384951+293228215+293266227+292836314
2926+292436711+292338704+291969785+291164980+290455221+290059469+289792995
2912+289689569+289968380+290626862+291106536+290974850+290887309+291395528
2899+291949923+292262396+292541778+292708979+292945072+293494457+294149534
2885+294767936+295303522+295631844+295705906+295688505+295806873+295937346
2872+295788562+295496325+295452609+295614621+295625034+295392114+295134627
2858+295004225+294821566+294377354+293712257+293173498+293078647+293130280
2845+293002285+292912641+293055951+293470085+294247540+295149764+295841639
2831+296542430+297256342+297546617+297490438+297448344+297636298+298245464
2818+299056777+299434166+299386241+299577084+299997993+300272561+300651393
2804+301302654+301931272+302451276+302931306+303352607+303732118+304019701
2791+304161121+304241602+304323081+304412547+304525120+304700202+305073935
2777+305492063+305474662+305200985+305305000+305633554+305459614+304810421
2764+304486145+304621361+304836131+305153417+305421388+305441927+305528434
2750+305814734+306067764+306209184+306266487+306275188+306248052+306018021
2737+305593974+305391186+305716995+306315446+306653985+306549471+306254363
2723+306167714+306386406+306554784+306474909+306375637+306484787+306678339
2710+306784494+307005182+307318831+307316585+307127133+307114831+307043586
2696+306734251+306551931+306635942+306760032+306909440+307097145+307151523
2683+306977939+306662222+306403129+306152096+305707224+305200521+304824435
2669+304507612+304143221+303859703+303737538+303532824+303183623+302900355
2656+302648323+302243745+301935088+302109314+302383596+302190329+301755727
2642+301540994+301612524+301749344+301714578+301551976+301518351+301665762
2629+301847262+301967180+301940080+301838739+301963793+302357744+302731335
2615+302897466+302849471+302731799+302805076+303125251+303492459+303839520
2602+304254046+304673458+305107703+305732256+306484858+307177268+307733322
2588+308087658+308243020+308420313+308794082+309158829+309386578+309719162
2575+310230786+310554205+310432611+310293544+310554776+310910324+311001858
2561+310878730+310682183+310529601+310541333+310733031+311016621+311268688
2548+311369708+311341716+311362220+311569643+311899125+312205429+312418986
2534+312540509+312760199+313188739+313506881+313442982+313238304+313309549
2521+313691519+314133288+314415238+314374409+314203999+314368918+314932210
2507+315484270+315746429+315908067+316138562+316339745+316589424+317020888
2494+317465617+317733196+317879323+318111600+318602542+319219358+319678350
2480+320006155+320329290+320518171+320413764+320202061+320183091+320231016
2467+320169006+320145472+320167865+320170575+320333355+320621045+320696997
2453+320562958+320493139+320532613+320660590+320993138+321470423+321834814
2440+322130313+322555965+322840410+322723451+322569301+322616833+322656485
2426+322660016+322710187+322788242+322928343+323045730+323040025+323151706
2413+323434262+323579925+323728905+324042590+324215782+324264384+324389580
2399+324586413+324932084+325313341+325495198+325690497+326016449+326083130
2386+325596075+324251476+321667220+318011900+313795106+309268050+304491744
2372+299677319+294978836+290246086+285867065+282721817+280779320+279892483
2359+280907190+284338631+289841847+297065820+304308960+307936538+306136870
2345+301489254+298664252+298552642+299813676+301638019+303114732+303953733
2332+304657412+306265132+309097212+312092856+314589998+317196968+320401462
2318+323824790+326957112+329620600+331980137+334230989+336472569+338824084
2305+341114587+343099749+344796330+346236136+347577169+349020648+350503065
2291+351856151+353070704+354474602+356167368+357528262+358268562+358844620
2278+359488535+360203553+361068941+362007500+362934863+363808702+364552460
2264+365227470+365972476+366846993+367740231+368433069+368983346+369693015
2251+370560650+371227637+371475104+371576837+371982912+372737654+373535256
2237+374086852+374342200+374582073+375038498+375543382+375954164+376423212
2224+376971314+377471741+377966783+378416718+378583955+378562846+378786708
2210+379366260+380088873+380838123+381463924+381844111+382250722+382863971
2197+383457109+384009062+384647415+385263268+385853589+386592141+387394379
2183+388137923+389058118+390208273+391307116+392247101+393000416+393639054
2170+394383418+395235114+396190753+397369185+398599535+399659902+400594646
2156+401490985+402472406+403585119+404683249+405879188+407364352+408785259
2143+409892053+411004909+412277051+413696959+415278008+416850213+418396565
2129+419989060+421507100+422835724+424114283+425756771+427748815+429529549
2116+430974312+432402422+434016525+435998157+438364969+440740695+442801346
2102+444672723+446769852+449246884+451803860+454375671+457199157+460104764
2089+462804909+465555438+468794057+472466030+476086904+479533695+483352009
2075+487716036+492171205+496613929+501072735+505470922+510076070+514950900
2062+519838495+525082388+531124096+537498745+543605138+549352167+555099232
2048+561421962+568076849+574493646+580903133+587496188+594114988+600718634
2035+607124127+613403248+619978260+626578590+632744317+638847429+645123840
2021+651084319+656669460+662439168+668242965+673469741+678199086+682727746
2008+687218181+691788277+696191991+700359291+704771064+709216641+712682616
1994+715041904+717330518+720301130+723654996+726951381+729864155+731983249
1981+733427762+734772575+736417487+738231205+739880895+741196967+742176711
1967+743222637+744530223+745536568+745566378+744912478+744839950+745652742
1954+746623715+747467958+747832527+747390365+746870469+747020234+748007466
1940+749700374+751237955+752194450+753245796+754865818+756856400+758859321
1927+760404104+761306042+762825865+765997875+769892818+774170587+778894441
1913+783122360+786774756+790784733+795550592+800727661+806255677+812598697
1900+819345297+825054814+829642381+833999740+837581105+841105417+846794038
1886+853180276+858216852+862849064+868030982+873700776+878121178+879740772
1873+879641143+878490383+877725372+880194701+884344886+887139489+887915268
1859+887585073+887499779+887857787+887931671+886644624+883398589+879121104
1846+874347116+870451673+869810183+870071200+868671474+866317464+863682894
1832+859404127+853405208+849621661+848179929+846303453+844762877+843013986
1819+840164255+837943464+836693002+834390268+830700502+827939846+826766692
1805+825577919+823095325+819767418+817539923+816479092+814904997+812596772
1792+811664025+813249958+814801446+814984158+814860567+814722641+814221572
1778+813714014+812410707+809123879+805911219+807116680+811642060+815458697
1765+816059039+814234338+814199536+816405779+818037426+819336810+819711221
1751+817990928+817101613+819358062+821984715+822764203+822480863+823691958
1738+826237667+826179972+824173415+826287588+832037114+838568623+843265946
1724+845060765+845540297+844068398+839091800+836600362+842289911+849870484
1711+855064027+857674776+858037634+858123784+857858416+855669645+856951343
1697+864143527+873088952+881436533+886845309+889415051+889902855+888387097
1684+889736260+897718344+904997392+907876932+908851043+912053361+915890966
1670+919482173+927229412+935996190+940068498+942412524+948164189+953936749
1657+954077528+946610134+940508306+948040669+955088508+957172444+962204241
1643+969508107+972851489+971434005+966553113+963480733+969308777+977284443
1630+981244641+982758188+983436621+983296413+985450024+988625813+988485962
1616+988043515+992410430+997691407+1001130068+1004615584+1008725047+1011927437
1603+1014105082+1015602013+1016040537+1015809757+1015910028+1016443546
1591+1018088101+1020551368+1021381419+1020747916+1020963506+1022827501
1580+1024139794+1021404954+1018617554+1022364444+1025669102+1024815659
1568+1025901593+1029924193+1033120378+1032627939+1024255184+1017146012
1557+1025596716+1035128505+1040335170+1044588977+1050045107+1053484624
1545+1052098162+1047741303+1041539061+1041734254+1051572632+1059578179
1533+1062838335+1064662180+1065729073+1065872062+1064466773+1060085096
1522+1056621973+1058366657+1060981899+1063405300+1067393312+1069588928
1510+1066718373+1060017844+1059022696+1066557983+1070689910+1070002349
1499+1066758453+1065010846+1068977747+1072319632+1068477820+1062785133
1487+1064073107+1069455709+1072957700+1073139200+1071801947+1069379900
1476+1063400736+1055119337+1053851618+1058490533+1058099078+1051638314
1464+1046135686+1043494342+1037908559+1026955435+1020944607+1024088803
1452+1025190213+1020397610+1012975787+1008317117+1006112942+1001059180
1441+991951367+980599370+969581277+964038712+960069814+952014916+945052656
1427+943420866+942512581+940745076+940334864+942810826+951191925+962076942
1414+969136335+972093824+973418811+974144170+975980709+981435341+987243845
1400+988460074+987979330+991605482+999390591+1007628629+1012984488+1014424722
1387+1013455105+1011957818+1011341573+1013547174+1018139520+1022763103
1375+1026445880+1030297106+1034297027+1035895940+1034571952+1031705890
1364+1029698049+1031194123+1033988655+1035411488+1036024737+1035335393
1352+1031585864+1025571185+1020426707+1017837567+1017667691+1017040963
1341+1013064291+1008655299+1006774972+1005835736+1004321832+1001677706
1329+999611457+1000068239+1000283186+998726635+998432170+1001136273+1006674915
1315+1012608651+1015643233+1016714477+1018965720+1022836059+1025690426
1304+1026464636+1028181720+1031796818+1033568602+1032891667+1033570813
1292+1036068454+1038873327+1042038918+1045531708+1049957245+1055541887
1281+1061193709+1066082802+1068965695+1069560473+1070345167+1072563035
1269+1073741823+1071752382+1067105051+1061717884+1058408591+1057790991
1258+1057274732+1055449033+1052624477+1049250286+1045920239+1042933510
1246+1041063809+1040337808+1038609385+1035261367+1031928111+1029146060
1234+1027002433+1026084377+1026067047+1025969415+1024967706+1022089520
1223+1018097301+1016416873+1017959090+1019304402+1019067417+1019794202
1211+1022159196+1023780431+1023914791+1023538026+1022505722+1020444822
1200+1018365023+1017774095+1017773025+1016532121+1015261548+1015665983
1188+1016937554+1017280372+1016025917+1013974288+1011590111+1008965740
1177+1007914109+1009456182+1010522148+1008781387+1006030001+1003917326
1165+1002435942+1001050836+998946860+996268859+994542433+994419341+994345100
1151+992898662+990310948+986753616+982169543+978375869+976860182+975966517
1138+974848633+973840005+971594182+968349858+965424746+963319059+962369553
1124+960580439+957509628+956179078+956162319+954307665+950067694+945006728
1111+940543607+937528850+935589901+933054034+929968246+927961618+926518460
1097+923827622+920653330+919248969+918967839+918083089+917826136+919389604
1084+921021893+921189344+920458851+920113679+921893879+925975314+928435943
1070+926322554+922746965+922382253+926624578+932389865+935001398+934505536
1057+934237315+934905264+934710927+933824750+934397206+935531778+935581985
1043+936501253+938681965+939382363+939422086+940691517+940893913+939527492
1030+939231814+940459240+941183315+938965233+934316761+931100037+930328964
1016+929565523+929617940+931424526+931798081+929633344+928328683+930178558
1003+931501976+929500625+927631993+927688333+929172141+931329533+932071794
989+932041413+933435362+935992553+939431571+943837924+948027546+951663469
976+954188567+954803386+954711316+954568398+954455148+953608622+951268804
962+949868792+950302182+950361731+949465427+948042166+945844053+943496105
949+942611710+944003592+946147362+946753266+946424996+945991678+944284008
935+942066782+940295854+938760841+939026280+940339143+938666061+934388434
922+931221845+930051686+929133488+927141051+925144550+923654038+921737838
908+919796964+917957287+916125882+914301324+911586453+908887842+907591168
895+906308971+903971862+902192305+902249144+903408677+904677395+906355041
881+909340986+912779291+914180229+912733363+911477054+914126885+918632225
868+919738270+919087294+922189913+928813491+935862758+943009442+950733646
854+958289044+965013535+972343146+981870941+991379766+998066888+1003581853
841+1010614574+1018242858+1023392256+1025684720+1028478182+1031892810
829+1032240334+1031862072+1035674931+1040366692+1038959192+1033613317
818+1033269287+1038099687+1041137550+1041105315+1040623573+1041283392
806+1041110806+1036966613+1031734773+1027633083+1023310099+1020856959
795+1020672321+1019066490+1016298060+1013424367+1009368748+1006224766
783+1002948921+995132790+986525760+982725026+981558932+978919442+974244512
770+968856774+964591129+961709020+959225071+958387461+960584219+963362776
756+960885887+954110832+952616754+956997433+958643059+955258598+951290127
743+949389332+946800548+942323521+941050880+944983835+947544806+942552946
729+933725834+928046627+926345161+925660310+923886101+920362788+916568757
716+915500652+917772862+921477034+924777128+927589631+932980435+941002528
702+944780512+943445684+943145799+944113847+945576546+949425062+955062834
689+960812431+962635491+958028739+951835198+948523053+947726092+948352606
675+948428772+944734799+937686103+933268910+942141379+955759809+958417342
662+952915356+946564848+943993608+946650855+949709686+949693140+948051509
648+942105721+931050686+922259018+920878619+925485299+932647317+940075558
635+948944532+956821781+954282919+941279877+932271123+936261559+943074411
621+941699431+939032984+941295282+944108142+944915443+946951026+953880480
608+970091689+986086024+986013923+978560436+967594617
##END=
