##TITLE=Sample description
##JCAMP-DX=4.24
##DATA TYPE=INFRARED SPECTRUM
##DATE=13/9/2023
##SAMPLING PROCEDURE=Instrument type and / or accessory
##ORIGIN=Default
##XUNITS=1/CM
##YUNITS=ABSORBANCE
##RESOLUTION=4
##FIRSTX=4397.6552
##LASTX=599.8556
##DELTAX=-1.9287962
##MAXY=1.8327215
##MINY=0.45795816
##XFACTOR=1
##YFACTOR=1.7068549e-009
##NPOINTS=1970
##FIRSTY=0.47636098
##XYDATA=(X++(Y..Y))
4398+279086982+279034531+278770320+277898856+276947091+277233039+278037124
4384+277507219+276585294+277020756+278144890+278901465+279519737+280066700
4371+279976692+279540427+279819828+280549986+280532631+279874986+279271415
4357+278969945+278811911+278245549+277985511+278814355+279418886+279232793
4344+279113102+278532894+277001724+276062094+276557567+276876481+275733298
4330+274178766+273553248+274092774+275582126+277164804+277919564+277862817
4317+277148042+276039675+275201647+274591005+273909911+273412535+272984599
4303+273266793+275213817+277130494+276977961+275376844+274034299+273760765
4290+274265719+275414576+276923903+277797131+277715487+277054437+276106723
4276+275244634+274536058+273817266+273564859+274110304+274594532+274422199
4263+274136040+273968037+274066077+275041658+276397770+276875206+276122350
4249+274710033+273304874+272324090+272345340+273022907+273062996+272818917
4236+273368221+273962048+273333806+272194395+272335911+273839808+275063431
4222+274624913+273183682+272855549+273904795+274730723+274735734+274692171
4209+274526769+273105721+271154525+270154674+270193157+271451578+273371311
4195+274365575+274611451+275332425+275914187+275291777+274105677+273105145
4182+272342930+272036081+272277419+272125775+270926143+270149034+270915545
4168+272534872+274294738+275502140+275368027+274075296+272650425+271896224
4155+271860640+272124221+272624112+273381176+274056124+274583166+274783768
4141+274089910+272403832+271089939+271500816+272218193+271788668+271397678
4128+271675298+272110061+272769033+273236011+273014910+272663799+272209201
4114+271514575+271346938+271659706+271738382+271497813+270994570+270856284
4101+271834641+272640420+271838814+270702877+270780750+271434816+271016605
4087+269378211+268305271+268736857+269975269+271553634+272677401+272400654
4074+271542145+271111398+271274233+272002662+272514810+272398140+272151739
4060+271981151+272001265+272379544+272425395+271639364+271094740+271023240
4047+270625598+270739247+272194412+273876475+274284890+273338084+271970919
4033+270959545+270956088+271829979+272433130+272129372+271757519+272452424
4020+273741523+274324647+274029497+273633583+273609872+273631628+273649280
4006+274107004+274658472+274772331+274378967+273368011+272447500+272697568
3993+273786816+274774112+275268555+275378975+275501459+275503729+275106348
3979+274824643+274912695+274825341+274630082+275082043+275899765+276330024
3966+276381462+276020958+275643290+275803803+275980397+275816043+275395248
3952+274787871+274488356+274909867+275479861+275515951+275671244+276487464
3939+276922681+276103475+274755849+274374881+275524734+276903178+276658558
3925+275361776+275344036+276537086+277501388+278002605+278634810+279147761
3912+279229109+279455867+278950372+276219465+272965549+272092182+273665169
3898+276512519+278623601+278395743+276935497+276747484+277073801+276756004
3885+276961792+277333227+277835701+279590434+279926424+277738831+275906400
3871+275403995+275790341+276088861+275566499+276501450+279172834+280462929
3858+278686807+273471324+269573732+273770542+278730738+280551994+280313066
3844+278893782+276956624+275105877+274785235+276955803+279055012+279908195
3831+280877054+281811079+281477237+279487470+276230342+275403576+278198947
3817+280255482+281977162+284210099+284701906+282897271+281070270+280780725
3804+279938227+279718122+282332690+284646521+286322106+288067375+288590400
3790+288156528+287390454+286575648+287145310+288444240+288671469+289050551
3777+290298095+290776684+289919571+289250350+290836800+293577275+295146788
3763+295118153+294426827+295019607+297488713+299400344+298813536+298967816
3750+305349617+313436773+323907165+343594259+363019342+374205051+378273667
3736+378180568+378533128+379389454+379050898+378219330+379204828+383505458
3723+389287845+395022983+401242368+407545353+412861862+418426622+427441133
3709+440083107+453736455+466761893+480148481+495153611+508797461+517839140
3696+521633733+520598368+516576196+511591120+506242205+501705616+498199189
3682+494639857+489382225+480628746+470050170+466103811+465794379+461553533
3669+458153440+457392622+454590092+449744595+444362260+437885090+429932868
3655+422986469+416389765+406756563+397724906+395730652+396462975+395122403
3642+391782827+388332413+385107063+380724998+375137539+369065171+362270886
3628+358834266+359412309+358604662+354761669+349548385+346462090+345128676
3615+343135295+341183819+339615668+338395049+338036552+336856301+333714761
3601+330468284+328513665+326835095+325346039+324689599+323138315+319256874
3588+316233051+316773659+317616437+317061721+316108664+314961692+313327820
3574+311576370+309957340+307711936+304463259+302747428+303746790+304607726
3561+303966581+302966136+302351881+301371585+299866047+298883971+298385024
3547+297605732+296768437+296467840+296369677+295890216+295253017+294727390
3534+294090331+293308141+292576219+291903506+291278512+290721509+290241122
3520+289914840+289645286+289473965+289348862+288944340+288691967+288858260
3507+288353655+287003270+286243237+286180520+285994340+286120299+286550173
3493+286330277+285597483+285168028+284951903+284575493+284452065+284893952
3480+285154601+284622059+283939883+283710174+283692975+283700134+283700501
3466+283614474+283432100+283284804+283577178+284378260+284889395+284438271
3453+283468156+282670199+282227911+282517526+283430598+283850852+283571643
3439+283211837+282962748+283060089+283542624+284035286+284370717+284521680
3426+284353449+283983568+283830720+283991757+284402181+284894808+285133456
3412+285411233+285889089+285930854+285649044+285857747+286458105+286721006
3399+286612891+286618513+286745520+286944813+287486311+288210707+288743196
3385+288976991+288996075+288949997+288895730+288907987+289142270+289830803
3372+290812757+291333512+290990049+290329069+290364270+291127410+291616912
3358+291554613+291360489+291065775+290639305+290443767+290460179+290400116
3345+290386025+290246395+289951000+289950127+290195794+290376317+290066989
3331+289191317+288480191+287943075+286929535+285802415+285138991+284721549
3318+284167531+283080378+281424000+279750580+278263690+277142909+276878960
3304+276840670+275752417+273958975+272963524+273255025+273994996+274439345
3291+274557097+274396060+274531989+275688687+277185268+277990575+278102409
3277+278308319+279260904+280303498+280571777+280421251+280611586+281467791
3264+282505949+283002226+283042646+283109153+283420052+283742930+283842820
3250+284003386+284235260+284387392+284840262+285873566+287028238+287291733
3237+286781226+286761758+287193937+287559575+288282295+289115032+289443933
3223+289603626+289828428+290177828+291060048+292056721+292223485+291938951
3210+292524938+294180286+295629393+296142728+296460017+297287011+298445995
3196+299509646+300462529+301541300+302562592+303280318+303652958+303388293
3183+302891930+303465154+305029219+305928638+305819126+305867876+306585951
3169+307796828+309071470+309823139+310248299+311038137+311959974+312386252
3156+312761510+313657681+314421608+314470846+314467319+314998708+315779501
3142+316425430+316819510+317104568+317212474+316930070+316844130+317311579
3129+317459782+316952663+316507424+316250128+315948343+315829542+315659897
3115+314833114+313684396+313109251+313017130+312584218+311682599+310766453
3102+310146505+309853625+309753891+309670745+309398258+309087848+309142848
3088+309714955+310452166+310762263+310970600+311549027+311931270+311847949
3075+311586707+311417481+311629729+312088797+312425328+312490351+312392154
3061+312263610+312197994+312417436+312860580+313192362+313088648+312272655
3047+311055911+310257274+310175664+310089270+309274953+308370087+308157315
3034+307905885+306923390+305613059+304490392+303976149+303694199+302907574
3020+302127934+301724355+301119667+300369639+299890527+299372827+298628386
3007+298250928+298460138+298883622+299355122+299610358+299600754+300300950
2993+302359179+304857409+306906349+308756031+310710440+312413944+313288534
2980+313356979+313086448+312783021+312602551+312146102+310901003+309448195
2966+308565259+308009076+307484951+307151597+306836542+306378347+306064165
2953+306135404+306423570+306535316+306644408+307038419+307158442+306738974
2939+306202696+305587811+305010118+304727783+304285442+303528919+303156315
2926+303159982+302818072+302170083+301634713+301173550+300805590+300599383
2912+300470770+300643837+301151235+301568748+301880625+302235594+302407789
2899+302474103+302863539+303470671+303773609+303784818+303998114+304540643
2885+305044130+305207280+305161708+305152140+305274502+305649656+306187261
2872+306586265+306732863+306612526+306296598+305991810+305895254+306027359
2858+306012238+305534173+304855977+304344563+304058702+303838177+303589961
2845+303514497+303734672+304085381+304393941+304667824+305039905+305495760
2831+306006651+306684497+307374322+307782126+307918876+307938676+307926105
2818+308022311+308430046+309012594+309405243+309612113+309867977+310286607
2804+310803085+311413779+312288264+313223442+313934812+314605081+315278807
2791+315633916+315540503+315295569+315236867+315447020+315664786+315590649
2777+315456239+315416849+315260893+315106194+315156899+315265712+315235610
2764+315208686+315267737+315234353+315215356+315347985+315544275+315684202
2750+315698135+315775799+316005403+316121899+316011130+315942476+316180915
2737+316534417+316616342+316443973+316316477+316345601+316479557+316647107
2723+316726551+316646059+316489928+316416176+316482665+316716215+317141934
2710+317536259+317646224+317487544+317192429+317081381+317410579+317764326
2696+317710793+317499487+317397134+317427096+317484017+317420357+317454370
2683+317647900+317537237+316989190+316360093+315937657+315721882+315425614
2669+314893736+314414204+314233001+314184531+314003082+313736707+313586408
2656+313393925+312861698+312208610+312066937+312608034+313198264+313270760
2642+312947219+312627729+312420963+312198553+312083768+312217305+312405389
2629+312521151+312598326+312571611+312401512+312375007+312764618+313200918
2615+313204550+313027432+313233883+313841155+314447449+314873028+315107695
2602+315182950+315321376+315753625+316455287+317104429+317424303+317616856
2588+318036603+318549729+318893454+319212874+319660907+320110721+320320175
2575+320377865+320662294+321014714+321102400+321162953+321410541+321573830
2561+321437325+321259334+321267575+321347579+321395979+321408900+321429608
2548+321542332+321740507+321935400+322102007+322314674+322646526+323005057
2534+323259769+323408846+323388242+323283131+323414642+323710247+323824577
2521+323836345+324032251+324351845+324615392+324874050+325227134+325711764
2507+326196254+326386677+326367645+326538094+326985149+327552856+328049638
2494+328264470+328261642+328429820+328963863+329560973+329908853+330138562
2480+330469087+330768707+330807504+330686469+330619595+330642922+330707700
2467+330727256+330750513+330865437+330938387+331005854+331168096+331170156
2453+330996425+331055057+331394033+331659186+331807285+332013352+332202238
2440+332418607+332860879+333263550+333280032+333141397+333080006+332987571
2426+332954746+333145064+333483236+333817498+333949952+333837193+333730894
2413+333761974+333812818+333933819+334258581+334680983+335062876+335294750
2399+335382017+335597443+335973260+336240613+336370134+336452861+336454014
2386+336284509+335705907+334441846+332490404+329952819+326966117+323923298
2372+320956257+317844504+314840901+312260642+310132921+308747091+308268014
2359+309033511+311626726+315549548+320257598+325016876+327548525+326555729
2345+323641697+321839088+321729158+322442484+323771672+325259296+326505093
2332+327537351+328780634+330709062+332835701+334512246+336293448+338761227
2318+341289699+343268867+344986619+346835009+348705259+350441274+352291410
2305+354290762+356032504+357374648+358474582+359518782+360645605+361780808
2291+362784919+363755576+364899091+366158194+367296365+368205771+369020263
2278+370007018+371114984+372000015+372646992+373281188+373919364+374560963
2264+375350940+376264921+377039288+377562261+378000168+378554534+379265835
2251+379989917+380688262+381424321+382050660+382424940+382725887+383225254
2237+383867831+384497382+385207774+385946243+386410829+386551874+386620074
2224+386792652+387145701+387733941+388373305+388857830+389341308+389912123
2210+390373775+390738557+391179047+391718014+392317254+392921837+393452807
2197+393929300+394554556+395314152+395928164+396499328+397213911+397915783
2183+398526721+399128755+399911538+401026663+402157187+402857592+403327276
2170+404134888+405303232+406395657+407375953+408440791+409407676+410274933
2156+411349200+412492226+413507581+414584956+415862881+417310730+418767309
2143+420066151+421190320+422233961+423406740+424709353+425967932+427305117
2129+428860871+430499772+432028148+433418308+434938897+436759595+438676325
2116+440594242+442467705+444152736+445876354+447834535+449890982+451996319
2102+454110002+456288672+458607584+460980798+463448263+466016998+468700099
2089+471622616+474680591+477709023+480834604+484320567+488036833+491605314
2075+495186472+499211891+503666416+508319780+513087439+517878601+522559307
2062+527259011+532373294+537938229+543538015+549023191+554691247+560906162
2048+567457329+573641863+579470799+585573758+592101982+598768841+605388906
2035+611976844+618521621+624990060+631444392+637639751+643192219+648457709
2021+654085327+659983371+665574392+670691189+676008990+682077866+688059650
2008+692863627+696744160+700373683+703921212+707495699+711494334+715714925
1994+718947259+720906662+722722611+725537712+729701312+734050481+736888700
1981+737791820+737922145+738755773+740426940+742333612+744053319+745189431
1967+745731261+745959224+746127263+746591499+747289355+747869039+748793042
1954+750351276+751643274+752055478+751963148+751878779+751953579+752484445
1940+753814436+755586245+757380822+759074548+760698293+762560127+764792890
1927+766769264+768183624+770070811+772687981+775052814+777525971+781194326
1913+785825375+790333714+794370761+798985049+804596673+810039909+814585403
1900+819013703+824121560+829663063+834717981+838742108+842826369+848331135
1886+854311452+859316154+863615387+867902048+872126341+875848124+878859829
1873+881113055+881666618+881006826+882688399+886575916+889329697+890045083
1859+889553539+889232338+890073439+891004775+890429002+887965413+884005750
1846+879799616+877373951+877074051+876524329+874567231+871947057+869129303
1832+865520453+861041728+857346345+854860686+852907708+851938797+850947258
1819+848426539+844910020+841473818+838253078+835644079+834302075+833307811
1805+831392199+828435459+825365507+824121420+824705086+824373339+821938175
1792+819661762+820036182+821869382+822858686+822074296+820645130+820281675
1778+820873512+820390069+817840715+815493272+816760337+820011947+822246386
1765+822615219+821461088+820979810+822280957+824074138+825779527+826148709
1751+824346799+823374815+825712829+828820356+830272849+830198329+830575263
1738+832100601+832404132+831975515+834612101+838983760+843193455+846449116
1724+848287833+849176147+848683136+846391916+846740495+852584133+858690584
1711+862391554+864031851+864394888+864931480+865393062+865245906+867287443
1697+871127956+876575104+885008464+892231401+895661666+895906600+894507745
1684+896483281+903884733+910629535+914385681+915967102+918540481+922775180
1670+926659624+930588837+935235950+939541748+943310185+947977273+952334893
1657+952435465+946248905+942502538+950535916+956549268+958997771+965708630
1643+972915853+975077308+973256610+968700710+966582487+974096314+983440198
1630+986892672+985897850+985579233+986603319+988969129+991521068+991324743
1616+991615563+996163501+1001064768+1004827897+1007846167+1009772814+1010798716
1603+1011531493+1012590010+1014255870+1016065114+1016799636+1015964053
1591+1015969361+1019078914+1023187898+1025724262+1027699239+1030235463
1580+1031956916+1031320381+1029915519+1029515816+1028177234+1027616128
1568+1030597871+1031881208+1029428165+1027161599+1025160222+1025045891
1557+1030664918+1036819211+1042528334+1049031484+1055420235+1057495924
1545+1053260457+1046979262+1043755309+1049166209+1058974398+1062868481
1533+1061687112+1063527226+1066927878+1065594534+1060207590+1054710296
1522+1052724842+1056925738+1062411508+1065025116+1065788693+1067219745
1510+1068779236+1065661232+1059177009+1060957548+1067279390+1071312526
1499+1071377479+1070232288+1070974354+1071949271+1070711261+1068882392
1487+1069819106+1071802395+1072776753+1073406514+1073741823+1072449755
1476+1069580038+1065475524+1061574527+1059264730+1054895725+1048137094
1464+1045148367+1045554915+1042404505+1034565705+1029179041+1028639864
1452+1027727176+1024552880+1018919465+1011838935+1004428194+997314210+990888513
1439+982953053+971440452+962693084+959039676+953462763+946716634+944696259
1425+945136330+944492462+943960828+947028895+955619119+964392118+970254683
1412+974532334+977066393+977877742+980120143+985656617+990919802+993178895
1398+995005879+1000215984+1007929208+1013561925+1014693846+1012423089
1387+1010653934+1011072145+1011738992+1014281152+1020175495+1025056577
1375+1025691576+1026100218+1029138742+1032338809+1035121853+1037371657
1364+1037387651+1036349527+1036108713+1035823132+1035964840+1037072945
1352+1036623655+1032513343+1026128295+1021699646+1021631131+1021066044
1341+1014131692+1005436356+1002778259+1003828326+1002724551+999909799+999756357
1327+1002593528+1004867776+1005700427+1005699170+1005230114+1007418178
1315+1013115218+1018190530+1021404775+1025648763+1031326806+1035302603
1304+1035117313+1032645344+1031278616+1032123698+1034496004+1036732677
1292+1038786157+1041333276+1044345889+1049758465+1057016322+1062540994
1281+1066454562+1070047068+1071830680+1071039586+1070091488+1070809877
1269+1071194494+1069275250+1067344761+1067755639+1068417038+1066479286
1258+1061679010+1055221256+1049537137+1047263377+1047088075+1044362092
1246+1039617340+1037761862+1038200257+1036689166+1033547626+1031685792
1234+1031421302+1030965237+1029482223+1028384524+1028640353+1029429911
1223+1030390581+1031729373+1032388467+1030587604+1026967370+1024404816
1211+1023716598+1024364238+1026470448+1027916656+1026440207+1023797754
1200+1022500169+1022960354+1024288530+1025420591+1024930583+1022340651
1188+1019878110+1018677465+1017859411+1018108396+1019399067+1017729297
1177+1012208816+1009498058+1011647011+1012438943+1009720573+1006982647
1165+1005836897+1005198336+1003275041+999531537+996168879+995696541+996920304
1151+996600150+994587738+992731141+990849053+988518861+986994990+986336385
1138+984373420+980867028+978445833+977165498+974385528+970041247+966623973
1124+965208007+963883812+960998939+957187200+953031632+949479214+947476090
1111+945869666+944308150+943600935+942340575+939339556+936441484+934958958
1097+933644262+931540986+928757523+927025943+928823034+932222220+933265372
1084+931954098+931439855+932843669+932010251+928369344+926910844+927231207
1070+927886669+930693669+933127854+933089302+934652704+939245969+942507846
1057+942037952+941342541+942925498+944005736+943343290+942756482+942988216
1043+944009298+944049946+941725901+939794993+941027625+943530535+944095133
1030+943577468+943513144+943476268+944100092+943760453+940350652+937919609
1016+938669148+939498027+940453598+942652278+943688516+942152353+939270274
1003+936098562+933616605+933683513+936448258+938725859+938950609+939444947
989+941432287+943843774+946789548+951269740+955423772+957040882+958452728
976+961924968+964971523+963892542+959921914+957218280+955721437+953444884
962+950730424+949588795+951718961+955555563+958393014+959554827+959395658
949+958305712+956856920+956052625+955511004+954327750+952823225+950974939
935+948937593+947029035+944654773+941767107+939464782+938226772+937695977
922+937911368+938197369+937724472+937238375+936523198+933985578+930067610
908+927447855+927029854+926299312+923996568+922414030+922180340+920991848
895+919052768+918290030+917970575+916629827+914421370+912890165+913126927
881+914175877+915082140+915709456+916537148+918888152+923047492+928186639
868+932459332+934179667+935835958+940555427+946529249+951117835+955176603
854+960731796+968454798+977871805+988722449+1000220454+1009023206+1012979447
841+1016905935+1024604214+1030664150+1032912278+1037012881+1043197625
829+1046565242+1045495270+1043758661+1044948830+1047802484+1051249860
818+1053718198+1051869913+1048868265+1049458914+1050985719+1050796449
806+1049826909+1047083885+1042058789+1036098936+1030012110+1026693242
795+1028597820+1030653953+1026399908+1019454661+1016257038+1015206622
783+1011360172+1004589738+998892558+997191847+996758481+991924891+984503604
770+981130190+982078009+981996644+978118835+974212251+972476480+971088520
756+972783992+977167943+975619766+967789558+962137984+961814339+963559887
743+964579293+964682170+963054374+959008177+953780402+949696700+948227235
729+947080717+943772466+939895914+935562738+929393569+924973232+925803088
716+930201496+935397284+940167667+944742424+948240575+951149473+956501357
702+962415883+965562731+966961028+966985542+964942679+961613614+959257162
689+960689681+963998631+963463645+960142683+958895733+961398572+967675437
675+970160117+960166848+943339588+931389988+937255905+953807221+964600665
662+969176889+969643430+968504525+970580633+975719640+976010739+969630509
648+965237410+967155676+972736919+975962199+968717262+957677557+958585427
635+969113892+971526776+958802843+947913577+959592122+987042622+999341080
621+989086463+980467534+984493407+984411274+970703973+958822678+959848929
608+969339480+976983491+975639741+964466918+955330325
##END=
