##TITLE=Sample description
##JCAMP-DX=4.24
##DATA TYPE=INFRARED SPECTRUM
##DATE=13/9/2023
##SAMPLING PROCEDURE=Instrument type and / or accessory
##ORIGIN=Default
##XUNITS=1/CM
##YUNITS=ABSORBANCE
##RESOLUTION=4
##FIRSTX=4397.6552
##LASTX=599.8556
##DELTAX=-1.9287962
##MAXY=1.8217634
##MINY=0.44926354
##XFACTOR=1
##YFACTOR=1.6966494e-009
##NPOINTS=1970
##FIRSTY=0.46986136
##XYDATA=(X++(Y..Y))
4398+276934860+277022406+275514522+274618722+275035110+275403561+274984135
4384+274612574+274336586+274130211+275203562+276652848+276735739+276642414
4371+277334754+277409126+275976439+274666131+275371101+277113694+277634613
4357+276425604+275653183+276937600+277935877+277121071+276411587+276418719
4344+276147439+275537849+275013381+275045842+276278318+277781038+277601994
4330+276086012+274796888+274296450+274768766+275322831+274711450+273807253
4317+273323133+272622976+271818165+271167824+271271618+272375796+272749816
4303+271974497+271736029+272235536+272186002+271333940+271106152+272354735
4290+274182064+276115505+277789470+278006473+277367707+277268410+276982340
4276+275863652+275066464+275427644+276259067+276297166+275445104+274634197
4263+273663357+272530688+272925418+274575019+274513013+272240789+270966735
4249+272468682+274645667+275033459+274259088+273803354+273435763+273255348
4236+273590057+273911117+273841962+273449077+273392675+273936394+274952201
4222+275905774+275746210+274864040+273990618+273130283+272318252+272215951
4209+273545968+274838219+274570136+273531037+273074881+273532337+274286262
4195+275082431+275366744+274578673+273806111+274169452+275176652+275390212
4182+274729718+274662512+275149847+274719811+273222255+271708943+271348501
4168+272922677+275115998+275598414+274333741+272890919+272226596+272346813
4155+272557879+272191430+271936556+273046461+274483626+274590758+274201140
4141+273820761+272981205+272632198+273145582+273783083+274494816+274790178
4128+274006252+273160443+272995012+272668260+272225313+272750694+274254539
4114+275493935+275199293+273571420+272489866+272826454+273235254+273108063
4101+273211294+273794448+274340662+274325046+274146792+274091005+273788950
4087+273501510+273728648+273996837+273354856+272409399+272342176+272884894
4074+273457052+273577480+273440119+274008096+274515771+273773475+273070947
4060+273480361+273860687+273836552+274207147+274758613+274831369+274249357
4047+273456876+273631951+275160140+276603717+276569834+275810938+275779479
4033+275983729+275758945+275803262+275747229+274965006+274352922+274183996
4020+274094412+274463725+275306618+276074402+276487259+276796462+277548367
4006+278256938+277917750+277056518+276615504+276433737+276288401+276511815
3993+277446979+278445713+278163841+276852637+276256590+277155113+278649735
3979+279379999+278921261+277863894+277082146+277125656+277652670+278035561
3966+278195546+278420085+279141707+279861642+279724491+279350032+279056848
3952+278047172+276966267+277485781+278622473+278712285+279304485+280821503
3939+281243635+280648871+279810386+279112408+279635048+280676764+280443092
3925+279813530+280039281+279549839+278097637+278135420+280240422+282310522
3912+283418126+283412663+280645094+275261914+271599774+272207133+275486821
3898+279769230+282231408+280715303+278232293+279246467+279947256+277775435
3885+276935791+277029257+277530802+280891010+282396311+279758287+276523356
3871+274728154+275959436+277684358+277260048+278503292+281794732+282656877
3858+279121102+270654967+264794570+272707326+282635921+286290104+284334091
3844+280107347+276026887+272831372+272830705+276543082+279685092+281322802
3831+283237799+284572366+284375967+282124223+277200695+275435864+278540092
3817+280447624+284041030+289260149+290427949+286933208+283374406+282806569
3804+281119571+279758955+282933813+285816962+287947241+291374180+293847757
3790+294327731+293778180+293373333+294278004+294713696+293385436+294000646
3777+297153108+298601094+296775452+294408655+295230786+298316113+301443632
3763+302719302+300858880+299670932+301507957+301729983+298124756+296954970
3750+305249141+314580513+323397605+342154359+364393418+378350181+382549787
3736+381919751+384458514+390440937+395785526+397866112+397554115+398594479
3723+403655351+412919342+423937063+432930582+437338759+439137632+445939094
3709+459667999+474268358+486937648+499957437+516872916+534219379+544972319
3696+547826099+544561991+537449129+531803013+532268285+535786389+535810418
3682+529374597+519520514+508625329+498156773+495571709+495735910+490554855
3669+487578504+489169191+488305114+483578757+476649910+467327180+456570025
3655+448798109+440898598+427101118+415929981+418237267+423854505+423718690
3642+419171570+414264571+409416205+403568227+397246897+389719877+380022548
3628+375963149+378813311+379099451+373865349+366042774+361711112+361296885
3615+360220688+357830880+354847748+352213220+352174892+352902802+350950478
3601+347532954+345203607+343069657+340546177+339161637+337665346+333504068
3588+329948761+331336146+334138460+334705401+333170044+331264515+329892973
3574+328761164+326769248+322038008+315823265+314436687+318043461+320666818
3561+320760161+319648517+318110034+316182618+314209461+312895183+311540118
3547+310147077+310374197+311663849+311817441+310377605+308672813+307761836
3534+307381861+306746380+305496462+304167499+303011274+301892815+301756823
3520+302648021+302889897+302032003+300936414+299978748+299321276+299163327
3507+299010544+298535119+298470302+298684846+298413390+298169723+298277364
3493+298088993+297232328+296133999+295559013+295464055+295227695+294901681
3480+294899186+294906248+294299398+293475757+293278568+293487051+293479850
3466+293250586+293171278+293578040+294133072+294032738+293570153+293629577
3453+293610167+292650376+291607887+291586071+292179870+292445019+292354189
3439+292253293+292209186+292255190+292344984+292366923+292400948+292495695
3426+292195029+291438645+291086950+291589672+292537044+293291900+293583679
3412+293538553+293386964+293329297+293208921+293211081+293724781+293979093
3399+293524536+293424782+293982536+294440589+294742152+295031981+295162211
3385+295215785+295342853+295528484+295745698+296060330+296254568+295979845
3372+295571625+295723074+296275119+296410092+296059451+295737583+295621441
3358+295746471+296122722+296611462+296977489+296812515+296046699+295457028
3345+295449054+295475999+295259066+294801066+294186102+293720021+293117897
3331+292130862+291372845+291294169+291561831+291311489+290392590+289661852
3318+289121611+288125319+286721194+285392196+284440555+283621322+282625364
3304+281309365+279516921+277804277+277290279+278177700+279470671+280258743
3291+280435908+280424402+280682280+281400248+282542684+283656155+284214172
3277+284617913+285557240+286627921+287004805+286720702+286474347+286908300
3264+288059080+289244094+289762203+289607628+289367579+289515357+289980664
3250+290649906+291263325+291170808+290803427+291077096+291619182+292111347
3237+292836499+293547529+293803878+293830841+293927978+293916771+294050532
3223+294608707+295345031+296055130+296345697+296217399+296337055+297000359
3210+297846098+298369758+298643005+299309963+300680381+302037027+302858947
3196+303564233+304072610+304475807+305327728+306226023+306885779+307422472
3183+307654582+308121365+309219905+309952065+310064870+310639189+311703792
3169+312812977+314087909+314975137+315310179+315923107+316624212+316794772
3156+317002641+317800180+318755070+319408714+319543476+319369192+319793431
3142+320672298+320839626+320339118+319877605+319584298+319319622+318925209
3129+318490149+318377976+318746534+319271388+319452452+319224347+318722715
3115+317897457+317291592+317314251+317012021+315991331+314932980+313993969
3102+313422567+313333897+312967904+312322621+312148759+312390740+312803211
3088+313434827+313859769+313822706+313870660+314305614+314757150+314864405
3075+314731575+314751249+315087872+315644379+316173624+316335893+316127216
3061+315827270+315769198+316323984+317235980+317483722+316794877+316067705
3047+315700448+315439847+315224777+314853022+314246700+313631560+312891213
3034+311809079+310736044+310185615+309921572+309449028+308803815+308094560
3020+307401570+307010985+306794334+306290523+305595601+304939357+304259541
3007+303659051+303359561+303551937+304179303+304771784+305160084+306108300
2993+308251313+311001598+313686364+316198778+318246903+319558547+320259617
2980+320567855+320608009+320583909+320426348+319636994+318203833+316844412
2966+316294966+316451052+316417889+315784375+314976437+314497604+314376298
2953+314102593+313428960+312965831+313285873+314110674+314594671+314165653
2939+313359647+312869081+312351991+311489249+310817934+310803495+310940646
2926+310682400+310393379+310184385+309681067+309059884+308569704+308156566
2912+307954142+308068141+308473832+309158215+309826719+310033147+309762605
2899+309531866+309568929+309506150+309345884+309574304+310296909+311084085
2885+311592147+312077268+312887384+313661140+313919105+313806476+313414416
2872+312777987+312305723+312195940+312348794+312351323+311845967+311370436
2858+311420568+311620884+311508641+310935482+309995663+309085845+308597106
2845+308665962+309257916+310029283+310641472+311145283+311595308+312010379
2831+312496835+313026748+313517771+313987997+314313027+314244768+314049651
2818+314250705+314765898+315229098+315578860+315935086+316322614+316700516
2804+317184443+317876168+318516146+318917375+319462429+320315861+321043912
2791+321428629+321564937+321563707+321541013+321559140+321681044+321879639
2777+322017984+322039273+321899593+321580289+321247354+321011170+320894325
2764+321081572+321509149+321698364+321484979+321319197+321519864+321901384
2750+322338552+322631121+322420266+321992514+321906197+322078198+322094323
2737+321981904+322087051+322304686+322403931+322637585+323055607+323297236
2723+323216295+322851637+322482975+322514803+322841274+323288805+323825498
2710+324041166+323868393+323763914+323755447+323700187+323785555+323982744
2696+323968445+323826341+323839270+323852444+323689542+323507635+323486486
2683+323654095+323843766+323790754+323354429+322744348+322376669+322303070
2669+322237094+321949970+321393428+320828595+320511329+320280133+320015598
2656+319921307+319990691+320008116+319978184+319956403+319854313+319638223
2642+319330197+318923628+318683579+318875183+319095663+318925174+318723663
2629+318955175+319475814+319934306+320119691+319990831+319934376+320139575
2615+320212963+320153522+320380713+320877041+321299664+321508447+321505847
2602+321515086+321890143+322453711+322939324+323500187+324168691+324742553
2588+325106191+325413305+325757552+326018538+326332081+326799917+327142899
2575+327422786+327980382+328534360+328626051+328346972+328023172+327925895
2561+328118306+328328388+328263783+328021345+327904957+328089534+328533271
2548+328883806+328960778+329059249+329284684+329453101+329532215+329527859
2534+329551116+329892236+330401562+330640486+330615052+330562882+330563445
2521+330652185+330955680+331396290+331642171+331699469+331852148+332125184
2507+332425482+332782868+333146542+333502909+333931083+334281196+334542323
2494+334896653+335283267+335745553+336388201+336953420+337213740+337393434
2480+337773443+338157704+338346392+338578993+338776990+338574636+338194100
2467+337997402+337941298+337940701+337961182+337954929+338010963+338220202
2453+338373758+338432673+338731847+339175478+339447953+339624064+339816791
2440+340082310+340478128+340819494+340857084+340716947+340740309+340947089
2426+341018581+340830631+340730859+341056768+341622268+341923936+341804246
2413+341637866+341732298+342068394+342499308+342842536+343080126+343263333
2399+343359732+343512727+343852687+344219207+344481212+344586675+344478051
2386+344119260+343113606+340984504+337840087+333921562+329446039+324850439
2372+320222238+315581670+311475126+308138262+305203049+302806602+301921692
2359+303192935+306562400+311570366+317917728+324526639+328242985+326950102
2345+322538833+319510593+319137364+319936624+321176425+322434811+323548878
2332+324915747+327063434+329839364+332527713+334833488+337232710+340305847
2318+343851071+346921327+349082117+351065251+353351458+355627968+357788442
2305+359740942+361374243+362992051+364735417+366348974+367796117+369326098
2291+370854569+372079510+373150296+374349521+375480874+376364273+377230247
2278+378117053+378837305+379453956+380102084+380753444+381469902+382416676
2264+383433046+384274639+385129406+386185368+387179183+387946861+388656784
2251+389302699+389890683+390572748+391287484+391832398+392200639+392694332
2237+393377626+393994944+394565503+395138768+395519375+395796030+396295238
2224+396916105+397452060+397988578+398504193+398991527+399448333+399612885
2210+399579687+399840041+400377894+400855743+401357937+402014040+402606416
2197+403130111+403837258+404648253+405365729+406048742+406844033+407719457
2183+408406827+408917382+409621509+410568214+411497248+412293874+412999159
2170+413783173+414826980+416007515+417145788+418272960+419351194+420331554
2156+421328355+422411016+423592746+424883416+426131543+427314854+428654637
2143+430115692+431482139+432729739+433965676+435238148+436566268+437958396
2129+439332010+440757548+442356877+444052711+445765092+447393123+448855548
2116+450292257+451970174+453992408+456139532+458097793+459887672+461872246
2102+464179918+466575206+468915514+471329210+473907073+476432942+478898914
2089+481647371+484672238+487798212+491043525+494290418+497619694+501452710
2075+505662925+509850129+514133171+518438380+522447682+526597718+531450967
2062+536731794+542018276+547318635+552799390+558553534+564586862+570639652
2048+576313698+581831165+587595988+593725504+600311053+606930187+613414770
2035+620223821+627123931+633494128+639407063+645459116+651727434+657829583
2021+663818822+669681800+675413249+681465091+687300598+691734455+695344356
2008+699645279+704636100+709599379+714527879+719263299+723357161+726527575
1994+728514432+730311794+733679433+738118630+741668949+744211786+746772259
1981+748842447+750039564+751684036+754199963+756241554+756604526+755971328
1967+756422900+758378491+760373006+761987758+763055735+762956736+762564747
1954+762756491+763039223+763278675+763710081+763923887+763674177+764214278
1940+766454147+769028040+770545480+771002742+771113545+771742386+773507568
1927+775805614+777563911+779486549+782379640+785436933+788754685+792920987
1913+796741040+799380768+802597484+808082174+814707773+820868169+825858006
1900+829595291+833044151+836950275+841616277+846884632+852073872+857484647
1886+863062855+867820408+871342411+874152383+877662793+882006013+885764587
1873+887847211+887467026+886637658+889696637+895089284+898468586+899321702
1859+899098060+898907299+899175418+899596636+899368496+897858294+895257139
1846+891478752+888189736+888239271+889114309+887636567+884301952+880456534
1832+875432058+870002874+867449216+866217952+864761710+864891203+864870265
1819+863337859+861504453+858864936+854586216+850195358+847764658+846868050
1805+845788691+843307473+839538993+836855843+836289324+835025739+831250724
1792+829176110+832173891+834871234+834161030+832445733+831288244+830950567
1778+831528258+831036637+827595997+823183077+823232120+827819359+832741254
1765+834166861+831798062+830690739+832622441+834797248+836264381+834919433
1751+830204880+827972389+831565426+836369352+838758386+838688406+838948655
1738+840735899+839653449+836859848+840817332+848433127+854816955+858836620
1724+860432613+860046174+856324909+849882413+849057471+857447689+866689056
1711+871872535+872715182+871453354+871723651+871582917+866820024+864058813
1697+869780847+880817328+892352806+898717312+899929114+897883377+893018675
1684+893679556+905676863+916614205+920761536+920840439+922609345+925686592
1670+927862805+933982098+942370208+946344766+948192575+953483765+959160340
1657+959357283+951682820+944870818+950744828+955592597+957600603+966294140
1643+977459129+983491579+983341640+977487304+973825480+981505986+989820673
1630+991380972+990118933+989855874+990858296+994871076+997656737+994182864
1616+992519561+999596379+1005650188+1006966961+1007930950+1010557328+1013529604
1603+1015969087+1018014261+1019389562+1019696183+1020583306+1023081176
1591+1025832691+1028358103+1030405175+1032440231+1035737116+1037713715
1580+1035056352+1028976897+1026003848+1028384592+1027803669+1025293011
1568+1029134072+1035690814+1038750917+1035160479+1021615660+1014053896
1557+1026942683+1038674964+1045153996+1050337475+1055116950+1056035901
1545+1048488822+1034994381+1025737486+1033501814+1048838936+1055936060
1533+1057018229+1059837826+1061619309+1057789209+1052150154+1048053411
1522+1044529582+1044491921+1049433771+1056967570+1062500811+1062179154
1510+1055501562+1044700879+1044571106+1060341251+1070113866+1068336950
1499+1060493859+1056565252+1061449838+1065570751+1061847940+1057395252
1487+1060506506+1066928627+1071047291+1070633029+1066818105+1060956532
1476+1052330445+1043009121+1041490065+1048208408+1051773130+1047976334
1464+1043387901+1039502084+1028740607+1010791370+1003554074+1012168286
1452+1019452305+1018811660+1011598183+1003673097+999299524+995757215+989971173
1439+980116422+966136895+956814165+953672980+948696492+943078937+941756262
1425+941796030+940203411+937962909+938484952+946617170+958072480+967027671
1412+972899573+975461381+975499322+975812197+979226770+983854972+986511914
1398+988650115+992339270+999378006+1008809079+1014274869+1013207104+1008434093
1385+1004822858+1006335028+1011256291+1014067738+1014533572+1016227087
1373+1020501592+1025406203+1027902667+1027672701+1025875691+1024567912
1362+1025966750+1026725434+1025549396+1026783189+1028816630+1026254822
1350+1021561629+1021074294+1023885953+1023397424+1017658738+1010025237
1339+1003815728+999326223+994979771+992353322+993880177+997455719+999664884
1325+1001033931+1003471165+1006012106+1007339277+1008714507+1011121950
1314+1013897002+1017694993+1023625493+1028092093+1027765517+1026545635
1302+1027931545+1030318191+1031975381+1034116251+1037149023+1038437199
1290+1037945649+1038678337+1042481526+1048614450+1054214861+1058890208
1279+1064225522+1068713763+1069811389+1068736738+1069448699+1072459268
1267+1073741823+1071574604+1067780970+1063125577+1058256308+1055679113
1256+1056190407+1056236990+1053232815+1049028010+1045006307+1041457042
1244+1039512693+1039603331+1040585307+1040638846+1039437162+1038426870
1233+1038352182+1037202281+1033191328+1028570785+1026031390+1025902601
1221+1027303898+1028588772+1028471575+1027562180+1027076040+1026626436
1209+1025855666+1024970862+1023587903+1021954040+1021093687+1021873871
1198+1024345885+1027313313+1028501015+1026974231+1024272602+1021884481
1186+1020934966+1020888663+1019730471+1017609203+1016333604+1017041419
1175+1017257895+1014170671+1010807108+1009839184+1009531860+1007381364
1163+1003158431+1000862774+1002186854+1003204523+1001152322+996846481+993192456
1150+991446175+990090547+989053416+988697611+988051697+986605221+984154778
1136+980642190+977547237+975378824+972314505+969020009+966810282+964021529
1123+960600703+959429653+959605447+955955076+949981436+946514939+943228383
1109+938277681+935098484+935179636+936273047+936708599+935794706+932873581
1096+928660766+923528437+919290750+919167651+921683368+923090848+922471843
1082+920762590+919849892+920554264+921621819+922406008+922955173+923088670
1069+922920042+923371684+925398871+927442711+928356884+929898915+931865467
1055+932817723+934642557+938289766+939817604+937817959+936106879+935937618
1042+935450846+934305301+934305442+936742465+939055406+937144502+932421799
1028+929853456+930039860+930411193+930624647+931319956+931656509+931600511
1015+931909170+932754276+933316720+931085001+927507703+927190401+929942407
1001+933880078+938123176+939429128+936400080+933729929+934942925+937999656
988+940046446+940797543+942882134+947659290+952171489+953944260+953352517
974+952518160+953652182+956102064+957639457+958242161+958742424+957934135
961+955808230+954535581+954635001+955568356+956454987+955686607+953875614
947+953086717+953337762+953802050+953136743+950203322+947409510+946538758
934+946255604+946525408+947806769+949290342+948786497+944776176+940410612
920+938124862+936298833+934480674+933008975+930900986+928247487+927123161
907+927712726+927146628+925882341+926877245+927542763+923832108+918137757
893+913820674+911578978+912806588+916915346+920892363+922974425+921838435
880+918878947+918423651+920882948+923935533+927365774+930233009+931317497
866+933009466+937633241+943347757+947251702+950176411+954914783+961826767
853+968995136+974804857+978907150+983288523+992270413+1005313986+1016044407
839+1023085884+1027918827+1028959612+1028239993+1029144822+1029712536
827+1028688473+1028328382+1028340257+1025877939+1022112690+1022608597
816+1027092481+1030190736+1031504277+1031568988+1030010656+1028691494
804+1027937939+1026405885+1024340686+1022492244+1020081639+1018384962
793+1018398100+1016382647+1011163334+1005627915+1001295304+999217599+998701668
779+995826634+989228367+981623042+975845852+972692161+971064691+970630545
766+970293711+968430303+964893545+958809805+952010450+946589908+942367678
752+942049393+945618050+948041653+947900217+948583441+951686263+953668342
739+953650285+955306281+955792772+950674074+943847528+938232503+932473511
725+927672115+925149513+922676515+918534454+914633601+912192924+910796966
712+911614952+916107127+923039065+929323754+934168361+938801692+942733882
698+944011027+941642438+936914325+933864620+934871469+936662507+939233379
685+945711217+950532286+948386006+943881675+941174004+938867176+935015365
671+926988118+915655204+916414521+929037719+935552023+935456256+934919458
658+937749173+942688423+945186293+943013804+942071385+946264808+947394755
644+941039383+930701654+923100685+923767467+929584987+939645604+949230901
631+949113213+942298401+933372719+933562636+947251562+943829892+916271398
617+895256226+884742000+879608828+885745195+897256292+898347033+887459789
604+880840022+891218503+912981540
##END=
