##TITLE=Sample description
##JCAMP-DX=4.24
##DATA TYPE=INFRARED SPECTRUM
##DATE=24/8/2023
##SAMPLING PROCEDURE=Instrument type and / or accessory
##ORIGIN=Default
##XUNITS=1/CM
##YUNITS=ABSORBANCE
##RESOLUTION=4
##FIRSTX=4397.6552
##LASTX=599.8556
##DELTAX=-1.9287962
##MAXY=1.2867056
##MINY=0.34438249
##XFACTOR=1
##YFACTOR=1.198338e-009
##NPOINTS=1970
##FIRSTY=0.4869464
##XYDATA=(X++(Y..Y))
4398+406351472+406574404+407160210+407310149+406776694+406245552+406298300
4384+406321205+405494213+404153611+403451912+403921377+404382288+403972733
4371+403660171+403979896+404361696+404602161+404801293+404817906+404419045
4357+404142544+404703057+404998534+404310439+403931027+403759376+402858943
4344+402234191+402615195+402897790+402478287+402032025+401868432+401637144
4330+401127340+400668096+400861209+401514288+401759180+401654180+401977237
4317+402507435+402284229+401286506+400571750+400563071+400417931+399615609
4303+398759668+398526863+398928956+399496483+399704892+399706657+400088407
4290+400493286+400006735+398653027+397499246+397659482+398863947+399337690
4276+398477969+397695543+397530781+397616582+397937078+397986817+397555153
4263+397189221+397050373+396794837+396518982+396846615+397219437+396735423
4249+396172000+396082419+395908928+395692337+395765181+396254592+397045523
4236+397149926+396351633+395870355+395930564+395802336+395643817+396288315
4222+397479749+397793455+396999887+395918726+394754202+393888363+393819126
4209+394236066+394572628+394633484+394810209+395192630+395389300+395615664
4195+395791319+395423048+394906479+394665890+394440048+394183815+394180134
4182+394224577+394221965+394428881+394348552+393846109+393599451+393603630
4168+393542052+393190668+392523041+392212816+392605906+393176045+393640636
4155+394008036+393925941+393403453+392845402+392201624+391864839+392369594
4141+392890938+392865322+392870943+392739059+392049024+391492067+391410220
4128+391183011+390846250+390906907+391208975+391362844+391197435+390773879
4114+390412348+390161413+389629798+388930934+388793728+389244914+389484583
4101+389295723+389066399+388948119+389077864+389222407+389109100+389323278
4087+389615448+389011512+388065219+387885510+388254204+388207648+387750741
4074+387504283+387464640+387500776+387381799+386586963+385418833+384791892
4060+384785824+385015819+385661089+386632375+386909548+386154504+385222586
4047+384503254+384181291+384616710+385286451+385372351+384693508+383858507
4033+383496553+383375338+383096200+382553195+382018297+381888080+381807303
4020+381412720+380934724+380483065+380329843+380800850+381303641+381213116
4006+381042683+381354251+381687605+381445647+380953675+380834201+381096402
3993+381347561+381329978+381128534+380765237+380321835+380284182+380529596
3979+380613283+380772922+380993466+380863422+380279556+379601533+379494370
3966+379803500+379628716+378964819+378661607+378917964+379069545+378625994
3952+377895744+377249405+376978002+377424737+377598477+376973924+377143237
3939+377999277+378101293+377433516+376320795+375633048+376329947+376967880
3925+376352803+376020394+376571432+376431739+375365176+375081065+376271528
3912+377755355+378455363+377868239+375510739+372657437+371623354+371797616
3898+372975197+375195093+376389734+375093251+374213186+375589651+375541975
3885+373568116+372765645+372241292+372813046+374312118+373789904+372252806
3871+370808647+369540963+370617896+371795253+371944347+373324741+375225434
3858+376533730+376161778+371328747+368724391+372533163+376562454+377836928
3844+376258024+373907438+372033182+370446768+371108874+373810496+376098012
3831+377475819+378005743+377674454+377636602+376457181+373021828+373110861
3817+374845176+375081015+376991482+379473454+379722102+377463758+376320745
3804+376855121+375754835+375368410+376672179+377806512+379519861+381379096
3790+382515244+382938352+382628252+382270625+382445907+381888602+381144973
3777+382376645+384058211+384011232+382301340+381516252+382400843+383297048
3763+384506836+385188067+384337821+384433644+385934879+385765467+382129962
3750+380643599+384423597+386779181+385144147+386027469+389133249+389983022
3736+388168876+388897161+394173245+400257969+404688857+407078015+409439320
3723+413945787+420779437+429725720+439952196+450547589+461603171+475571992
3709+493499922+511206611+526434684+539814789+552436666+564542795+575237816
3696+583740523+589658719+591872173+588790169+584498701+583616423+583262079
3682+581697476+579058799+574953357+566844835+558911098+556512961+552579916
3669+548926754+550379145+552048301+551466847+550003364+548587879+545678819
3655+543268695+543563103+541263301+532723937+528544332+531928951+536179931
3642+538843130+539794844+539544058+538740666+538423876+539045470+537226200
3628+533232074+534884567+539083172+541471013+540409275+537232915+537128611
3615+539037064+539719886+539954259+539254524+537726678+538427855+540202508
3601+540171570+539051985+539377381+541056982+542657497+543815431+543007314
3588+538858400+536955618+540253242+544394945+546398648+546205510+545170681
3574+544808081+545503487+546318369+545040961+542128021+543142606+546930561
3561+549334368+550608593+552085556+552758431+552545446+553653641+556038994
3547+557030948+556368369+556535444+558311987+560704602+562880454+565004128
3534+567035984+568116623+568331049+568366464+568119010+568162880+569923358
3520+572736520+574746391+575815241+576637633+577357114+577790742+578143743
3507+578751807+579010801+579075512+580041750+581512445+583294659+585375010
3493+586405313+586314090+586087179+585855344+586132939+586917231+587361603
3480+588293968+589834846+590041265+589531336+590232712+591173682+591381295
3466+591432775+591520814+591495297+590932098+590049671+589987845+591000440
3453+592765294+594628185+595055695+593901890+593654983+595339359+596555737
3439+596083660+595686491+596090076+596377968+596207014+596005718+596663025
3426+598086169+598203107+596438103+595189047+595885996+597537643+598695477
3412+599129504+599276086+599152085+599209833+599606704+599248331+597766693
3399+596318530+595711261+595964385+596800256+597661395+598434544+599273847
3385+600406961+601472181+601485213+601123110+601466710+602169179+602805347
3372+603126116+602988189+602744665+602696915+603016043+603860022+604334337
3358+603712494+603335221+604191485+605578469+606821408+607048816+605865117
3345+604787214+605017707+606077256+606925761+607447677+608511603+609572694
3331+609623031+608778007+607318304+606207374+606184992+606656173+607197885
3318+607963673+608307025+608005803+608069718+607996999+607097362+606221351
3304+605523059+604857595+605028799+606128438+606469849+605580906+605048296
3291+605489585+606290389+606644285+606421702+606571765+607306864+607436833
3277+606584698+606104314+607345512+610080036+612480710+613442173+613988113
3264+614944204+615661795+616069608+616496472+616055980+615487757+616882649
3250+619178273+619620805+618147075+617535479+618758223+619950229+620617036
3237+621456985+622400343+622779109+621789095+620030956+619581113+621046585
3223+622512008+622419692+621097021+619610707+618928481+619149275+619689495
3210+620197285+619871790+618422283+617343037+616849025+615692186+614766236
3196+615159228+615513571+615204540+614959375+614180853+612782578+612058024
3183+611624097+610118336+608135672+607305123+607254787+606536948+605336188
3169+604754486+605065059+605321416+604823474+604050076+603151981+601678500
3156+599925285+598593362+597573555+596437855+595156020+593890848+592964451
3142+592269143+590895987+589019070+588048256+587540267+586191732+584675375
3129+583751664+583025817+582211831+581385858+580512136+579292972+577583627
3115+575880848+574892824+574579615+574355887+573745236+572630525+571395545
3102+570539977+570146887+569712761+568953687+568279470+567712390+567001017
3088+566518744+566241993+565475509+564503750+564146471+564006355+563254444
3075+561764251+560019740+559080560+559047782+558642257+557450898+555966027
3061+554569095+553625240+553318099+553376891+552914911+551575080+549814652
3047+547983396+546801189+546659631+546542942+545639127+544408474+542960709
3034+540830767+538461081+536471753+534702621+533059777+531881550+531245681
3020+530569523+529231284+527425345+525740670+524134286+522661203+521696805
3007+520817959+519625506+518428825+517508795+516928833+516490082+515699026
2993+514333579+512964800+512206871+511828005+511393880+511031926+510800339
2980+510258627+509270056+507996528+506618994+505591626+504779282+503634181
2966+502562992+501909516+500920000+499185835+497332146+495938347+495051344
2953+494366084+493413077+492280112+491608381+491430314+491029116+489951362
2939+488655351+487704333+486827228+485814434+484971251+484311259+483404808
2926+481868257+480036006+478612663+477692035+476832439+475657096+474279513
2912+473152517+472366336+471554787+470746521+470339106+470113488+469565111
2899+468769479+468150273+467724105+466952448+465770141+464838522+464224439
2885+463323658+462377962+462255554+462458043+461680665+460174854+458958526
2872+458063515+457233911+456508610+455892090+455363161+454885016+454382548
2858+453637004+452356711+450720682+449102609+447478716+446176090+445747087
2845+445611299+444973341+444218048+443784718+443339500+442835341+442603207
2831+442413004+441925607+441208216+440348519+439507973+438907817+438413855
2818+437774952+437184992+436861984+436537285+436058742+435558612+434964027
2804+434234499+433557496+433146200+433065473+432910834+432321372+431685702
2791+431353144+431047644+430465892+429763720+429393311+429289356+428959434
2777+428546547+428365744+428161315+427720475+427220046+426851577+426389199
2764+425575064+424782118+424402457+424256372+424127000+423984994+423679942
2750+423198415+422747875+422301861+421911904+421914242+422097880+421730355
2737+420954122+420566751+420438374+420146403+419931280+419870101+419785345
2723+419656569+419360869+418880435+418517437+418358619+418135687+417751848
2710+417420335+417273305+417196084+417044031+416826744+416622265+416413186
2696+416237456+416143648+416005745+415850633+415791443+415635311+415236475
2683+414910185+414827468+414633434+414273321+414123431+414191549+414080556
2669+413660954+413203600+412933391+413048189+413538794+414009702+414225695
2656+414169913+413877097+413433719+412932595+412674248+412835031+413033317
2642+413029462+413145952+413457097+413675677+413744168+413700522+413676000
2629+413931636+414351984+414658876+414950847+415290094+415449310+415509271
2615+415832876+416434250+417057436+417522947+417810142+418101516+418500824
2602+418847458+419062730+419222096+419465819+419967093+420587841+421176009
2588+421841672+422352844+422426359+422344936+422477939+422761205+422957079
2575+423201896+423655072+423996633+424045527+424050849+424082782+424027670
2561+424021503+424152964+424209468+424069053+423820257+423622095+423638211
2548+423858009+424000214+423886858+423778625+423828414+423802550+423804887
2534+424100638+424264878+423912424+423558627+423635724+423828215+423785290
2521+423543855+423406574+423629904+424048262+424334165+424480846+424539390
2507+424428869+424263286+424206484+424294920+424578783+424926462+425101893
2494+425120644+425033750+424820716+424661798+424664186+424677765+424666573
2480+424603603+424442696+424344660+424320486+424181763+423940974+423793845
2467+423806927+423851095+423809563+423540025+423025968+422618901+422461674
2453+422235061+421859479+421590040+421426497+421129205+420584906+419982960
2440+419639161+419423640+419125999+418948479+418738031+418250336+417811087
2426+417527075+417167857+416692895+416215297+415898582+415679853+415308970
2413+414784717+414230669+413726660+413379230+413076764+412626399+412082374
2399+411491047+410854183+410304314+409952233+409648350+409125066+408456892
2386+407804584+406987067+405695160+403771786+401412297+398957134+396570785
2372+394168421+391464561+388650155+386360873+384917161+384175322+383536320
2359+382819401+382733700+383852190+386138786+389000022+391120190+391189551
2345+389249266+387078588+385778548+385362080+385881285+386373457+386036422
2332+385527787+385578621+386014512+386411308+386748194+387292865+388224534
2318+389261303+389931169+390313118+390725880+391258391+391940965+392600982
2305+393053238+393417132+393781746+394082645+394228232+394218036+394255664
2291+394487673+394821773+395040030+395007226+394962013+395153535+395362465
2278+395338242+395203623+395180096+395195838+395097628+395099717+395388255
2264+395768687+396101842+396386401+396594213+396806103+397045150+397232444
2251+397502852+397996666+398578343+399025998+399223115+399338561+399773084
2237+400528104+401135099+401501629+401944534+402488932+402978069+403548207
2224+404340855+405182545+406007673+406866722+407674192+408566145+409729301
2210+410972861+412220873+413685127+415249830+416633606+418013577+419685916
2197+421527120+423364594+425332236+427517438+429812664+432130372+434543132
2183+437107150+439628889+442151922+444968566+447876283+450584645+453253165
2170+456011117+458867354+461892605+464973465+467736043+470008289+472138778
2156+474285979+476094554+477484274+478516516+479053304+479182229+478925822
2143+478108951+476825624+475032369+472401452+469022901+465244595+461171135
2129+456791479+452222713+447658225+442954368+437873237+432658953+427669840
2116+423019253+418638155+414367453+410229705+406249730+402250928+398288835
2102+394591703+391153316+387860243+384685450+381664526+378762479+375941184
2089+373375624+371116634+368915987+366761275+364749340+362699603+360567622
2075+358589510+356887924+355304022+353663765+351960214+350212073+348546871
2062+347093336+345710978+344270673+342882520+341606430+340284257+338833134
2048+337334062+335939593+334738759+333533075+332280338+331225688+330273924
2035+329205347+328110632+327133028+326239509+325361235+324533820+323816005
2021+323157530+322330363+321263353+320353569+319782088+319159574+318257376
2008+317280966+316418982+315605220+314727319+313805100+312936451+312083295
1994+310940706+309546709+308555899+308105235+307793245+307420224+306831185
1981+306094892+305446091+304833301+304179153+303563230+302839969+301770099
1967+300719602+300256105+300082489+299704942+299179172+298609407+298019273
1954+297523421+297097875+296553328+295794105+294881536+293863743+293186914
1940+293337201+293658245+293519671+293119343+292777509+292541818+292280438
1927+291902393+291266649+290596012+290333363+290134306+290057508+290574375
1913+291010292+290760426+290312248+290352438+290779327+291165578+291388908
1900+291425193+291164260+290721778+290489594+290300858+289781753+289558199
1886+289918636+290242564+290409265+290533415+290601235+290609019+290587929
1873+290308468+289074060+287383442+287536987+289299852+290694770+291334344
1859+291735070+292223188+292814291+293322653+293554986+293378759+292790192
1846+291881478+291648001+293291242+295338492+296523808+297324861+298150859
1832+298243822+297438018+297534140+298837636+300155781+301529608+302729796
1819+303276631+303386133+303252756+302585900+301602079+301271187+301504291
1805+301333560+300329769+298896080+298165084+298425122+298531440+297574603
1792+296777603+298166502+300167867+301093518+301227814+301241617+301400211
1778+301961247+302420864+301791437+300161923+300075551+301933144+303789843
1765+304720542+304546703+304518401+305391825+306117996+306619021+306354208
1751+304197706+301750377+301762886+302971181+303660072+303658779+303551989
1738+303896832+303286181+300920474+300952333+303682629+306418969+308202078
1724+308879877+309013477+308422200+305919411+304121157+307405600+312066757
1711+315322998+316902921+317229809+317706362+319027068+319715014+320007283
1697+322814875+328739711+335191661+339690120+342709651+344984509+346423744
1684+349544072+356856489+364516485+370765274+375822182+380890456+385712668
1670+390773083+398573892+406864683+413406388+419957990+427800505+435042964
1657+440134839+443202617+449462125+459766642+466724144+473676820+484541403
1643+495135503+503080283+508433787+511668391+516240141+525052177+533474803
1630+539613245+543859052+546897833+549410420+553079946+557292179+559355222
1616+560032225+562853943+566232543+568001078+568675694+569465357+570150916
1603+570610955+571607883+573215809+574632537+575897958+577847346+580553817
1589+583924310+587962555+592407717+597266314+602431406+607045683+611197831
1576+618478887+628637369+637098045+645270979+655414391+666024357+675948418
1562+683584464+688258528+697256142+712833933+726852344+739633437+750979398
1549+761531866+770455816+777064495+781945325+788183943+803129496+818040581
1535+827671477+835721853+844783382+852912694+859307095+865137650+870653355
1522+876503806+883935971+891862943+900383108+908573799+913700342+915182478
1508+913375146+914124221+923872353+932830424+937689966+938598706+938225859
1495+939933413+941583867+939817719+936225637+936602961+939078790+940525710
1481+940834095+940371319+938440932+933957619+927306861+922547991+922720488
1468+923271402+921048248+919281703+920418050+920124885+915003714+912758078
1454+919597946+927323474+932938856+937827844+945313329+953975749+960429837
1441+964868882+968780291+973298124+979883425+987159706+992988669+998831162
1427+1004720808+1007457570+1008769398+1011567539+1013438140+1014721417
1416+1018779159+1023141506+1025529794+1026289614+1026053650+1024571912
1404+1023180104+1023380952+1022124832+1018481021+1015838564+1015061933
1393+1016317655+1017885640+1016442600+1012058865+1010140117+1012793815
1381+1016881003+1019601849+1019486852+1016456328+1013737173+1014025264
1369+1015623591+1017005949+1016907365+1014079878+1011852546+1013250224
1358+1015263676+1015377181+1013947571+1012885037+1012334223+1011182954
1346+1009988412+1009400989+1008124576+1005155232+1002571169+1001989317
1335+1002358682+1002983608+1003156901+1002867218+1003354764+1004475592
1323+1005282167+1006401602+1008290308+1010713414+1014243222+1018653319
1312+1022751350+1026158899+1029605045+1034083484+1038751628+1041708239
1300+1043332431+1045226309+1047600969+1050188115+1053095086+1055681039
1288+1057032459+1057591332+1058240033+1058669881+1058248290+1057719858
1277+1058169403+1058800099+1058397608+1056879560+1054398856+1052197986
1265+1051655826+1052078810+1052769492+1053788951+1054033271+1052940894
1254+1052316565+1053352836+1054780358+1055599765+1056249859+1057605458
1242+1059524604+1060800320+1061518757+1061931097+1061203210+1059990364
1231+1060018914+1061254740+1062368207+1062774677+1062844611+1063374535
1219+1064514761+1065429469+1066216049+1067802637+1069512480+1070269215
1207+1071179646+1072941018+1073716754+1072754197+1072069385+1072450488
1196+1072799858+1073259152+1073741823+1073114808+1071419987+1070036833
1184+1070128154+1070861811+1070982379+1070166255+1068386180+1066425452
1173+1064650649+1062758363+1061406047+1060882788+1059519530+1056836387
1161+1054796075+1053662215+1052264935+1050743307+1048990987+1045714352
1150+1040627402+1035201128+1030963528+1027878987+1024667114+1021012360
1138+1016559786+1010569866+1004403271+998862995+993410858+988330871+982669728
1124+975424186+968334626+963226486+959293988+954418430+948323559+942442668
1111+937461961+933346123+929582539+925272220+920830489+918049060+917282675
1097+916889137+916476598+916928033+917774797+917897852+917767336+918836535
1084+920422526+921242530+922510289+924351245+925339368+926867065+930141710
1070+933198695+935244478+937508218+940556648+943970564+946776365+948814189
1057+950867035+953216228+955330253+956588461+956956533+956701867+956950664
1043+959238976+962151220+962972119+963142228+964965974+967062192+968031216
1030+968223906+968236540+968865246+970577974+972589536+973596461+973862268
1016+974123699+974245660+973954883+973140450+972973723+974063215+974978222
1003+975081978+974415768+972731393+971156145+970766785+970196074+968386156
989+966623291+965664017+964547267+962502778+959909762+957447063+955727273
976+954940395+953865924+951201085+947555980+944558981+942916386+942352540
962+942344582+942589698+943238598+944094216+944742022+944946451+944581264
949+944489843+945338895+946258279+946611827+947024067+947994185+949555307
935+951888185+954799235+957256661+958195244+958466722+959865593+961671532
922+962555601+963568992+964927177+964600090+962472934+960830837+960356223
908+959517616+957590512+955717126+954769093+954135313+953011898+951945883
895+951517328+950876087+949675775+948599315+948085805+947690376+946821628
881+946520605+947458591+948308638+948784146+950567603+954543674+959826100
868+964914941+968747463+972190327+976633053+981555067+985830669+988120174
854+987611638+985876329+984312920+982856151+982227942+982571343+982582187
841+981979444+981123329+980838621+983187416+987929374+990013356+985768494
827+978947030+975208217+976418974+980796541+984689348+986802875+987982695
814+988282623+988795934+990642162+992074857+992099826+992802843+995188644
800+997786933+998713479+997535152+996198753+997093565+1001263718+1007780280
787+1014525046+1019383294+1021235889+1022878882+1027016804+1030900061
775+1032158667+1032560064+1034192413+1036692018+1038087408+1038179227
764+1038247469+1039095129+1040357913+1039827094+1038001757+1039314380
752+1043529001+1045851434+1045963646+1045737829+1043325169+1038455778
741+1035258428+1035569001+1037749976+1039787701+1039543380+1037743609
729+1036916741+1036635514+1035428935+1032679539+1029103771+1026640874
718+1026328908+1028009106+1029294472+1027663417+1024402898+1021981483
706+1021488764+1021506173+1019291177+1015287451+1012590779+1013525283
694+1017023556+1018799552+1016794556+1013614814+1011735559+1011024086
683+1010270932+1007779782+1005179007+1006602649+1011094020+1014027552
671+1012236535+1009289275+1016129540+1025124418+1025077464+1023727436
660+1025782968+1026366909+1024517796+1023986678+1024663035+1023331312
648+1021100896+1022204614+1026064991+1028871886+1030108508+1030795210
637+1028071380+1024145447+1025403655+1028127088+1029260848+1029510640
625+1022807357+1011085365+1004516677+1000591142+994493785+997339775+1011569529
611+1018479330+1012309850+1009570899+1019307690+1031292803+1034820423
600+1029713079
##END=
