##TITLE=Sample description
##JCAMP-DX=4.24
##DATA TYPE=INFRARED SPECTRUM
##DATE=24/8/2023
##SAMPLING PROCEDURE=Instrument type and / or accessory
##ORIGIN=Default
##XUNITS=1/CM
##YUNITS=ABSORBANCE
##RESOLUTION=4
##FIRSTX=4397.6552
##LASTX=599.8556
##DELTAX=-1.9287962
##MAXY=1.4091988
##MINY=0.39122418
##XFACTOR=1
##YFACTOR=1.3124186e-009
##NPOINTS=1970
##FIRSTY=0.64336789
##XYDATA=(X++(Y..Y))
4398+490215452+490617927+490834470+490316911+489847038+489366220+488428473
4384+488217698+489077239+489340288+488756149+488583205+489147861+489504784
4371+488637159+487260831+486884878+486923664+486373359+486241199+487091157
4357+487894201+487651498+486645945+486426496+487668756+489188099+489638443
4344+489148133+488540287+487548541+485940092+484797020+484919915+485882096
4330+486529136+486298105+486267041+486767842+486681324+486387620+486632820
4317+486626280+485892360+484799926+483990524+484112875+484647738+484505904
4303+483982849+483837246+483795100+483466289+482982110+482629910+482842956
4290+483701997+484288907+483845103+482999323+482824608+483315099+483320322
4276+482448292+481765237+481795530+482072339+482173753+481830545+481324385
4263+481054070+480796653+481057385+482231840+482889235+482427492+481659327
4249+480679934+479782607+479607075+479960183+480510987+481218839+481522444
4236+480994348+480087847+478698803+477214203+477261390+478158581+478012523
4222+477426340+477528526+478101765+478475129+478135101+477317070+476965415
4209+477436514+477718319+477128548+476861004+477592880+477830133+477264433
4195+477456951+477691932+476502581+475329762+475569512+476706317+477691478
4182+477476752+476273640+475295473+475056358+475276534+475262773+474810295
4168+474631720+475070664+475641678+475899776+475653668+475016256+474609375
4155+474726911+475005038+475056994+474715512+474408319+474547837+474531441
4141+473880768+473295766+473515534+474087683+474161938+473816732+473445957
4128+472918905+472402663+472408976+472708494+472643685+472342124+472622385
4114+473217515+473077725+472460841+471670968+470625721+470136456+470445420
4101+470867152+470902804+470724274+470901169+471255776+471134652+470476212
4087+469992034+469894526+469558630+469188672+469096115+468740962+468328813
4074+468633281+469125907+468814990+468135977+467979928+468334263+468398254
4060+467861075+467574728+467735818+467990283+468484317+468716029+468174127
4047+467498066+467280251+467278571+467385798+467847360+468213639+467780144
4033+466846666+466300858+466396413+466786399+467065752+466991724+466938815
4020+467109079+467086961+466974693+466904026+466543106+465750372+464493579
4006+463505465+463665148+464211410+464331716+464398296+464426908+464000044
3993+463479669+463618006+464126300+464349065+464366460+464260141+463997455
3979+463777325+463836002+464014941+464029973+463996820+463899221+463769559
3966+463832414+463807254+463376393+462960293+463124471+463731546+464042735
3952+463488207+462213429+461436545+462301309+463268031+462620219+461845969
3939+462036262+462512447+462340639+460665837+459234874+460280166+461990937
3925+461979537+461540547+462263477+462165561+460481585+459753841+460576187
3912+461438861+461997204+462088036+460335164+457146879+455374433+454956562
3898+455610505+457958415+459917066+458874726+457426913+458685342+459486569
3885+458876179+458909015+458101294+458107652+460099865+460467188+458747562
3871+456100543+453763078+454599502+455855024+455675314+456694446+458757281
3858+460468733+459909799+453218587+449001178+452651070+456975116+459100170
3844+458607635+456778465+454680888+452745989+453042964+454093433+454202295
3831+455217022+457019487+457926533+458699103+457665074+452946046+451853885
3817+453490992+453687143+455729676+459239143+460695767+458000198+455460406
3804+455093309+452618961+451847164+454269011+456056489+457953465+460065985
3790+461451305+462281871+461837476+460415732+459800438+459230105+458789753
3777+459953762+461215869+461107598+459524673+458376468+458632296+458684751
3763+459102396+459151945+457345165+456848270+458455537+457801458+452250457
3750+449485311+453169810+454746332+452528629+453466376+456272078+456600163
3736+453050049+449861037+451525937+455449097+458196258+458516576+457421282
3723+456830603+457612982+459502918+461592594+462714502+459874784+453392984
3709+451817689+455108887+458204887+458228821+456403875+457313601+460228392
3696+462454224+463303365+461595955+456861803+454988444+458198983+461807911
3682+463191414+462482745+460540808+455987957+452936918+454582744+453563657
3669+450996388+452454692+454587558+455215160+455246452+454882216+452881828
3655+451485790+452607380+451457859+444644296+440966201+443171732+445347652
3642+445151637+442914905+439434732+435543272+432907970+431635281+426483031
3628+417305663+415423357+417349353+416823074+412387305+407125104+405474191
3615+404450472+401415465+398133441+394618297+391742382+391777806+392276246
3601+390307150+387107010+384387326+381577128+379462950+379003455+377511498
3588+372972113+370088863+370694166+371285867+370192593+368237440+366777115
3574+365718720+364517266+362867466+359353594+354960925+354021566+354833193
3561+354602707+354009122+353768304+352989058+351305355+349900960+348977201
3547+347289411+345329602+344651384+344995001+345215245+344599042+343497049
3534+342734153+342032636+340635417+338961206+337755505+336762828+336212910
3520+336498734+336721386+336392416+335942685+335259267+333847810+332292429
3507+331770396+331326456+329731473+328531222+328593964+328647419+327983053
3493+326984698+326022926+325110090+324248505+323488607+322686131+322116161
3480+322324053+322362906+321257620+320249364+320473469+320820265+320103534
3466+318864339+317853609+317245626+317157497+317123980+316848782+316625518
3453+316202333+315310251+314210801+313249483+312745662+312676199+312857135
3439+313022086+312903460+312698407+312614683+312526962+312198764+311589896
3426+310993586+310621652+310419779+310138700+309852557+310097803+310887971
3412+311397265+311181108+310878184+310749884+310432268+310177939+310237638
3399+310428249+310731809+311160898+311437957+311410958+311537827+311950294
3385+312149919+312401455+313320582+314522445+315500998+316354045+317205411
3372+318102828+318974995+319869620+321145261+322713993+324229726+325619497
3358+326829648+327936365+329148719+330656163+332377062+333913004+335134941
3345+336044121+336730355+337774648+339205157+340198221+340667458+341031988
3331+341319198+341806806+342435316+342554124+342248703+342040312+342053119
3318+342091541+342013426+342021782+342020351+341740794+341665177+342237235
3304+342974085+343273149+343338865+343606024+343840052+343780648+343794545
3291+344258332+345111765+346079691+346885596+347678648+348692557+349518150
3277+350049039+350650663+351541949+352882490+354130087+354658205+354829310
3264+355196724+355804979+356663157+357855847+358686140+358501842+357964867
3250+358026519+358721360+359396149+360020708+360933749+361622322+361975930
3237+362578326+363074948+363050424+362814125+362481999+362618360+363608676
3223+364366553+364160819+363660155+363538395+363865117+364632145+365556154
3210+365935399+365629274+365210199+365065209+365236608+365627889+365914690
3196+366195269+366963774+367846318+368191569+368212279+368347641+368592069
3183+368887091+369346223+369943510+370548177+370925855+371050181+371356171
3169+372003710+372653543+373015735+373225738+373508656+373681736+373710144
3156+373942310+374362407+374774011+375430316+376331049+376815227+376668988
3142+376330413+375953938+375606734+375626853+375893989+376013728+376318900
3129+377028023+377225628+376443748+375828885+376189851+376777464+377057430
3115+377331129+377489676+377398685+377308580+377085656+376536101+376054125
3102+376133035+376712315+377470919+378137329+378426197+378264834+377856954
3088+377737283+378260951+378894253+379098851+379319005+379899147+380100090
3075+379587231+379194906+379387219+379589797+379410745+379365102+379682014
3061+379858909+379725568+379649224+379918858+380250325+380278120+380237064
3047+380351240+380430263+380442957+380321583+379971722+379878324+380099022
3034+380048770+379811404+379830660+380145437+380462463+380569781+380626346
3020+380853130+381267709+381593114+381500647+381194726+381268209+381656515
3007+381774142+381785405+382109493+382519689+382747132+382971804+383571838
2993+384442688+385191687+385893771+386577007+387138347+387879716+388860200
2980+389666241+390047643+390081342+390115585+390297521+390233212+389788046
2966+389347784+389037776+388741664+388611048+388760784+389022016+389385979
2953+389967075+390501847+390619384+390511521+390551351+390632509+390775433
2939+391180951+391539736+391666492+391698874+391494684+391108013+390902188
2926+390855910+390593133+389965985+389303686+388986274+388995448+389131105
2912+389282113+389396334+389531991+389839139+390310510+390721024+390946923
2899+391013457+390884067+390820440+391258975+391938306+392379612+392661145
2885+392874100+392979783+393048997+393137013+393276939+393338841+393219306
2872+393121844+393134379+393191194+393287521+393408827+393754851+394260375
2858+394348618+394099739+393909809+393579681+393125795+392910479+393067935
2845+393405148+393719835+394230945+394979399+395536833+395794659+396120700
2831+396698481+397169807+397290023+397400792+397774565+398343171+399019732
2818+399628940+400024467+400250956+400411410+400845859+401607165+402056782
2804+402034165+402087574+402513848+403094399+403452685+403659827+403999855
2791+404433032+404802399+404889280+404793816+405020486+405458659+405818171
2777+406439233+407133051+407318802+407415175+407897128+408323901+408419274
2764+408508835+408805854+409222091+409682653+410266429+410898209+411262308
2750+411407594+411725051+412212136+412499755+412531319+412753357+413414521
2737+414155527+414558956+414604281+414642067+415000444+415554518+416138248
2723+416979441+417982087+418660691+419138512+419687226+420084388+420328408
2710+420677202+421151116+421616039+421981500+422266621+422536301+422858027
2696+423295155+423773611+424109507+424402984+424889888+425381469+425592971
2683+425615861+425615906+425532795+425421935+425636434+426159807+426585671
2669+426825331+426950315+426919160+426777190+426679410+426797900+427090196
2656+427388624+427798139+428331276+428657862+428730300+428811867+428913462
2642+429025776+429353360+429831362+430300509+430803081+431283399+431747004
2629+432252120+432662543+432923048+433224110+433721369+434304054+434814256
2615+435191617+435476556+435868541+436515036+437375439+438240112+438918535
2602+439455986+439901334+440186501+440479433+441110623+442009857+442829432
2588+443356938+443602956+443842661+444210802+444544836+444885818+445449838
2575+446113818+446465110+446522879+446758542+447150708+447363118+447634977
2561+448206899+448789176+449189063+449478499+449740639+450107463+450683609
2548+451322520+451829815+452215260+452540392+452841635+453051411+453215317
2534+453652808+454382869+455031271+455306582+455341007+455566452+456067525
2521+456634134+457143881+457495355+457742781+457971041+458180408+458600414
2507+459241868+459637259+459734085+459987188+460515920+461022216+461229267
2494+461095108+460897141+461093428+461769125+462356262+462431970+462304760
2480+462320293+462429563+462451953+462293633+462097936+462094803+462256801
2467+462298447+462168694+462100298+462016824+461708586+461339991+461187348
2453+461212872+461092656+460668472+460193149+459938366+459875192+459907983
2440+459946632+459762334+459299137+458871865+458642651+458317201+457745733
2426+457221497+456872067+456534855+456206997+455910840+455457136+454811504
2413+454212196+453753904+453365053+453007494+452574545+452020970+451479341
2399+451026817+450677660+450264829+449538402+448677635+447916056+447217742
2386+446506801+445488441+443804965+441420904+438481770+435011997+431158778
2372+427373228+423774383+420185529+416633236+413526880+411376075+410058833
2359+409432321+409941569+411906987+415281114+419546573+422705248+422452191
2345+419057535+415827104+414550418+414329288+414427795+414689027+415067342
2332+415329482+415705026+416633281+417610177+418303268+419404195+421011962
2318+422434478+423492078+424503762+425597785+426563463+427402476+428354892
2305+429264209+429753883+429950988+430281071+430761616+431242071+431833476
2291+432551319+433159801+433603333+433978604+434255777+434502522+434825837
2278+435075080+435145929+435214597+435401802+435680292+436059197+436502773
2264+437047582+437814293+438558205+438923485+439067363+439377916+439977860
2251+440746569+441492071+442168586+442852776+443492413+444040038+444606919
2237+445275441+446023349+446814676+447611179+448317487+448870834+449422047
2224+450177449+451033856+451795026+452601022+453544128+454388091+455114155
2210+455937500+456860441+457804274+458792750+459850850+460905724+461858186
2197+462777449+463797853+464900914+466005019+467112258+468347525+469752101
2183+471048225+472075033+473066053+474213803+475567241+477046982+478421811
2170+479651219+480941030+482386890+483796689+484987176+486107449+487352934
2156+488652737+489923201+491140210+492192859+493065525+493768836+494211550
2143+494419055+494469557+494384402+494245748+494111862+493777056+492993632
2129+492003747+491160238+490224580+488825862+487081484+485299183+483506482
2116+481583892+479627739+477727493+475775927+473699695+471479540+469154292
2102+466791940+464482134+462366208+460353876+458214243+455985504+453837515
2089+451725994+449469279+447152479+445104087+443358346+441609971+439710588
2075+437790495+435959599+434184474+432391546+430488803+428520524+426743491
2062+425246539+423853407+422397283+420809907+419146687+417569756+416104913
2048+414532115+412751495+410917738+409228767+407869742+406803650+405704404
2035+404365408+402880172+401354244+399863241+398587373+397420275+396089545
2021+394701363+393268537+391667991+390242386+389173842+388116015+386983071
2008+385923609+384810557+383580059+382431900+381403457+380322832+379162388
1994+377924646+376538032+375301312+374478490+373878137+373287163+372487049
1981+371449341+370449647+369646672+368915907+368040357+366961844+365717744
1967+364550942+363889550+363584674+363123929+362409197+361591620+360757036
1954+359921610+359052328+358188904+357330998+356356509+355167476+354136377
1940+353851120+353814537+353388695+352722399+352004737+351320411+350767177
1927+350225638+349304423+348175543+347554185+347035196+346307156+346042018
1913+345963835+345423136+344664600+344269096+344242051+344216777+344002845
1900+343619445+343034920+342244956+341650326+341302917+340734969+340314349
1886+340407338+340473873+340314713+340098624+339938601+339817795+339604658
1873+339130335+337807665+335804575+335349917+336632870+337618690+337722034
1859+337479240+337248823+337095567+337024196+336899802+336359149+335282474
1846+333743853+332543261+333119838+334229053+334332238+333969956+333843450
1832+333048172+331058730+329850486+330108925+330479450+330992649+331543885
1819+331602199+331281608+330718179+329708379+328554135+328200527+328467231
1805+328415889+327629104+326167644+325003544+324736135+324346785+322873925
1792+321428383+322173681+323666024+323929481+323119989+322137757+321426113
1778+321236206+320783705+318845310+315965580+315542213+317511922+319236931
1765+319865509+319148279+318153036+318207376+318584623+319116988+319060082
1751+316790832+313867457+313660838+314893969+315506675+315234884+314777637
1738+314845216+314044170+311354574+310945876+313197800+315305619+316451575
1724+316496378+316051461+314942133+311487393+307776370+309156899+312511066
1711+314483523+314408156+312509817+310720137+310411967+308901026+305613416
1697+304964037+307295689+310528686+312396914+312254489+311011684+308110540
1684+304406171+305832798+309099176+310576736+309724462+308070915+306977460
1670+305584713+305909255+308239953+309014657+307981446+308005675+308765823
1657+308083768+304163651+298094046+298665763+300246236+299462767+301181621
1643+305192366+307621548+307731545+305584418+304282141+308819664+314362150
1630+317819570+320129943+322592960+325382176+329431365+333921383+336872780
1616+340064835+345782285+351335284+355536866+359365879+363486325+367442662
1603+371259003+375313483+379265482+382732371+386221037+390169176+394193114
1589+398176404+402242715+406328827+410388461+414216066+417052333+418540521
1576+421566263+427619882+432606046+436232322+441046632+446758678+451839216
1562+455169653+455330335+456451289+465026488+473915784+481624130+488454678
1549+494712078+499303941+501389302+501493123+502724256+513080757+525179593
1535+532934899+539872538+548168157+555302219+560779102+565721121+569919865
1522+574597064+581557184+589518497+598746004+608192507+615186416+618407719
1508+618477251+624213549+637511590+647518253+654102965+658821765+664632227
1495+672617883+679383895+684065182+689184505+697336065+706230720+713704220
1481+720167036+725999661+730606512+733808013+737762147+746391436+756788085
1468+764380666+769684968+776210049+783893689+789393643+792539146+800383922
1454+813760351+825389269+834058615+841572400+850693725+860797849+870244806
1441+878558001+885121232+891959500+901474218+911008010+919515585+928257233
1427+936160504+941751744+947162773+952505316+955633652+960521491+969152869
1414+976417502+980470870+983408914+986116518+987401787+988567340+991319633
1400+992291896+989945258+988623928+990077690+993650648+996850924+996081125
1387+992588916+992914366+998107854+1003513524+1005968616+1005301275+1003649772
1373+1005303091+1009360092+1010586230+1009039819+1008161930+1007347623
1362+1005385839+1004577073+1005096267+1005690307+1006254645+1006951688
1350+1007658268+1007561260+1006332306+1005349870+1004605413+1002308187
1339+999864994+999910773+1001252086+1002585950+1004096664+1005995411+1008448323
1325+1010719571+1011474201+1011040933+1011109693+1013205273+1016459229
1314+1019582298+1024033599+1029267234+1032765074+1034856748+1037114644
1302+1040581510+1045056155+1048951747+1051466424+1053132279+1054492484
1290+1056168421+1059198660+1063296625+1066558938+1067686978+1067304122
1279+1067283140+1068348324+1069009852+1068276839+1067114284+1066397621
1267+1066368918+1065633999+1062346707+1058783013+1057985238+1059162599
1256+1060211343+1060456225+1060791485+1061895909+1063549047+1064900532
1244+1065138966+1064877370+1065105812+1065358597+1064835133+1064060883
1233+1063350125+1062416919+1062245702+1063371470+1064802161+1066379273
1221+1067584611+1066956055+1065546891+1064981373+1065066573+1066107232
1209+1068457141+1070941389+1071707464+1070848105+1070610126+1071539244
1198+1071871688+1071036853+1070534826+1071285096+1072612693+1073509021
1186+1073654261+1073444076+1073440080+1073741823+1073384854+1071708282
1175+1069554297+1068014336+1067472070+1067622578+1067814869+1067280688
1163+1065616196+1063682297+1063057556+1063211243+1062016806+1059757638
1151+1058197784+1057666873+1056812782+1054271400+1050943234+1048678616
1140+1047442305+1045350541+1041182090+1036155188+1032425363+1030236500
1128+1027945723+1024464414+1020015656+1015650373+1012101213+1008904480
1117+1005219072+1000611449+995494533+991122256+988409293+985757914+980793595
1103+974904790+970518525+966510029+961317631+956180278+952200121+948545596
1090+944551815+940513253+936543905+932323226+927870199+923327430+918322600
1076+912614915+907291538+903534373+900652735+897598154+893887586+889238908
1063+884865540+882085453+879854988+877051284+874192990+871101259+867847847
1049+866118501+865393573+863002427+859163514+855829443+853254272+851770172
1036+851548815+851551812+851445358+850993560+849861615+848836579+848295040
1022+847278905+845775821+845081503+844974866+844551136+844189989+844479743
1009+845353726+846198824+846958541+848102840+849748166+851456984+852285551
995+852071915+851284222+850491715+850316591+849968706+848710958+847458752
982+846313272+844331868+842171617+840840114+839192789+836434410+833630434
968+830964340+828012762+825441951+823483164+821807682+820786914+820542759
955+820898547+821770622+822886036+824790143+827811479+830946810+834256537
941+838579584+843221087+847218683+850601440+853866660+857594486+861841960
928+866303435+870432465+873444809+875539026+877751324+880395891+882946901
914+884667890+884739466+883497886+882501280+882183097+882113701+881644464
901+879882782+877468202+875412952+873620932+872159994+870665902+868411276
887+865697224+862919861+860502010+859086307+858422508+858622429+860088544
874+861750584+862803960+863611817+864722871+867033631+870537466+873767080
860+876597761+880669749+886107483+891294794+895505754+899231218+903043700
847+907242579+911467891+915142399+918657043+922579249+927040723+931654432
833+934797120+935402332+935071613+936220544+938763833+941822956+946200320
820+951674750+956180278+958237254+958869261+960333197+963258797+966735836
806+970027398+973529779+977373870+981604632+986043398+989540784+990031185
793+985312384+982947216+991666429+1004031719+1012648565+1020935873+1028967852
779+1033797286+1035072836+1035248505+1036973309+1039939330+1042973019
768+1044287173+1043337981+1043503658+1046214896+1048821767+1049964340
756+1049838447+1048697237+1047468374+1046559420+1045786079+1045734486
745+1046964984+1048724850+1048974364+1045810603+1040930849+1038682581
733+1040248793+1043485038+1046072835+1046200363+1043578867+1039248463
721+1034817963+1033169911+1034776907+1035450424+1033367834+1032258233
710+1033647959+1034021368+1032439260+1031129103+1029842653+1028852042
698+1029189936+1027888499+1022887030+1019027861+1019830450+1020722418
687+1019084358+1018281405+1018537823+1019343592+1022599820+1026507220
675+1028358735+1029591140+1028952229+1022147023+1016206081+1021437627
664+1030791118+1037558720+1036435676+1029332814+1026399857+1029882528
652+1032824660+1032689502+1033577473+1034871099+1032529456+1027761788
640+1025512794+1028612155+1028145098+1017079701+1010561614+1019895576
629+1027736719+1027532256+1032303194+1038558596+1034369344+1033392449
617+1039479357+1039384620+1041782942+1048433098+1040383043+1023475074
606+1017722972+1024736364+1037428921+1045222377
##END=
