##TITLE=Sample description
##JCAMP-DX=4.24
##DATA TYPE=INFRARED SPECTRUM
##DATE=24/8/2023
##SAMPLING PROCEDURE=Instrument type and / or accessory
##ORIGIN=Default
##XUNITS=1/CM
##YUNITS=ABSORBANCE
##RESOLUTION=4
##FIRSTX=4397.6552
##LASTX=599.8556
##DELTAX=-1.9287962
##MAXY=1.2868723
##MINY=0.3435283
##XFACTOR=1
##YFACTOR=1.1984932e-009
##NPOINTS=1970
##FIRSTY=0.48918635
##XYDATA=(X++(Y..Y))
4398+408167813+407686597+406875029+406091784+405817582+406657447+408260018
4384+409120175+408298586+406901164+406034393+405236054+404516517+404359510
4371+404599969+404832321+404505377+403983827+404262282+404963368+405191891
4357+404831849+404329745+404528925+405258856+405185998+404120816+402994414
4344+402249737+401685442+401502499+402248618+403036041+402976635+403112455
4330+403946005+404584328+404366995+403300471+402125778+401461171+400766277
4317+399632066+398935357+399224629+400042935+401212158+402351963+402475525
4303+401555514+400584403+400328353+400995621+401841603+401439761+399814810
4290+398614082+398359474+398443920+398845415+399036489+398343783+397973770
4276+398725534+399184047+398534037+397730178+397762902+398459387+398720187
4263+398190158+397428796+396855225+397067510+397997716+398313943+397439787
4249+396336062+396092371+396581818+396962624+396894489+396369781+396014439
4236+396423319+396739969+396314528+395597652+394945230+394652054+394783797
4222+395003044+395402077+396258852+396925871+396754566+396437592+396366400
4209+395832839+394963905+394728493+395189195+395497838+395423189+395416151
4195+395475359+395394368+395043030+394409606+393814252+393527442+394029596
4182+395184197+395463696+394533913+394010349+394698654+395674465+395703061
4168+394704547+393651103+393043416+392739671+392894316+393489297+393890642
4155+393845410+393747361+393459308+392445003+391286250+391002747+391369030
4141+391586587+391622718+391795615+391822744+391593053+391695453+392008447
4128+391780397+390959405+390321828+390775666+391828538+392112190+391608022
4114+390968904+390466874+390358133+390685973+391067375+390879061+390165393
4101+389736968+389818182+389914191+389779813+389686912+389724112+389610671
4087+389409153+389071590+388386891+387798301+387352371+386761344+386403465
4074+386307530+386248671+386293182+386253868+385750968+384660324+383583605
4060+383369007+384028268+384786248+385135249+385083427+384542706+383750186
4047+383338993+383546902+384095681+384453509+384434884+384397361+384374285
4033+383902841+383155752+382593446+382098205+381878186+382155622+382354504
4020+382134734+381839867+381980412+382730261+383602678+383975227+383609590
4006+382792801+382228903+381878907+381332218+381153204+381355144+381003234
3993+380259402+379857983+379706720+379513930+379467977+379642241+379684415
3979+379567219+379525965+379488467+379370624+379186911+378822069+378460784
3966+378413314+378061652+377187918+377106331+377963206+378652306+378961620
3952+378795015+377737244+376550043+376599502+377142810+376968024+376980432
3939+377515211+377337291+375922686+374020250+373486615+374956399+376101203
3925+375408497+374782458+375151278+374765275+373819428+374446338+376389878
3912+377797396+378217217+377673014+375236495+371795719+370126083+370454694
3898+372419992+375063300+376372620+375185022+374068914+375080806+374608243
3885+372030110+371231523+371440725+372666295+374540209+373990336+371831129
3871+370570845+370643579+371957550+372173341+371549913+372779760+374743442
3858+375781047+373754378+366156172+364078800+370208441+375587436+377349302
3844+375864374+373187596+370751972+369081864+369731675+371486902+372373715
3831+373254238+374499850+375003248+375029109+373546046+370496668+371549814
3817+373894749+374121855+375929798+378917358+379863528+377575462+375887624
3804+375683222+373242053+372398458+374731357+376990851+379273545+381165463
3790+381841334+381751193+381391972+381486166+382118521+381817661+381304467
3777+382671054+384504635+384846301+383446541+382045587+381568101+381731026
3763+383109152+383721316+382349406+382459142+384271885+384201438+380729230
3750+378905546+381762433+383966052+383739891+385903077+389322095+390033153
3736+387385866+386355995+390536152+396654876+401390948+403860116+406275573
3723+411262001+418549922+427549752+437717910+447974543+458585025+473015300
3709+491793033+509426112+523572858+535680503+548206650+561500327+573739267
3696+583421732+589152016+590082670+586551926+582412699+581395610+581381387
3682+580199880+577414435+572551345+562920850+554848540+554847645+552403219
3669+546991972+547053193+548880184+548659817+547323591+545450946+541297097
3655+537403950+536378257+532701696+523393372+520569632+525899019+531232882
3642+533819793+534233621+534101083+533763246+533647120+534683804+533162223
3628+527845867+528132577+531867524+533661045+532162192+529869750+530422334
3615+531989171+533226180+534157032+532921914+531307432+532267477+533663631
3601+533349916+532513307+532107486+531090795+531065381+533318683+534099640
3588+530938562+529896855+533459030+536838734+537832946+537347851+536691375
3574+536654573+537419466+537811263+535682194+533239707+534605723+537271013
3561+539406548+541507020+543644345+545019661+545311793+546005817+547747714
3547+548522604+547651879+547785959+549846844+552360548+554277258+555787996
3534+557310820+558343576+558393060+557859027+557885684+558798732+560082291
3520+561938922+564074556+565444402+566254651+567184012+567679899+567402688
3507+566852989+565930392+565309575+566893074+569848059+571473929+572257970
3493+573557194+574128726+573936508+574211780+574991245+575615692+575779712
3480+576525159+577906145+578083344+577055860+576839770+577701444+578731464
3466+579968721+580862821+581031217+581837836+583493298+584282063+583417405
3453+582027617+581291967+580971835+580955424+581555800+581848330+581730164
3439+582465118+583971580+585336104+585782855+585381958+585424678+585844823
3426+585968608+586243681+586392084+586169927+586091846+586471955+587784608
3412+589413811+589968433+589530435+589002320+588642402+588158053+587710506
3399+587733184+588000648+587970162+587966730+589027535+590349736+590596809
3385+590994822+592412212+593530309+593219876+592091286+591924531+592934508
3372+593794690+594016748+593951498+594130189+594612002+594790344+594593203
3358+594726288+595640480+596425217+595778887+594864098+595201388+595600097
3345+595229188+594922286+595350586+596519361+597639746+598189594+598283241
3331+598095151+597839722+597721457+597937000+598095947+597284951+595538876
3318+594633188+595798432+597682168+598741133+598938921+598648182+598266929
3304+598035869+597657352+597186430+597660733+599004519+599683374+599312018
3291+598637340+598232563+598370224+598845025+599468677+600312745+600827183
3277+600967430+601847107+603327956+604212607+604099663+603699909+604191023
3264+605379392+606515144+607553470+608088547+608538233+610026840+612068976
3250+613797446+614583028+613655210+612349072+612487380+613713099+614991983
3237+615554512+615892199+616392613+615839433+614477843+613770540+613727372
3223+613559623+613254312+613321899+613768999+614271749+614341177+614088185
3210+613892585+613121624+611625308+610561271+610769503+611311742+611043830
3196+610716836+610653277+609848746+608399477+607216131+606360326+605289475
3183+603996169+602912189+602305744+602311911+602328274+601634349+600458612
3169+598978061+597681223+597356019+597251530+596216487+594636719+593607047
3156+593138712+592345968+591310229+590640375+589918700+588808958+587973892
3142+587379931+586218864+584672417+583270295+581912435+580703625+579889397
3129+578965756+577397874+575603806+574382662+574027967+574093962+573900949
3115+573103232+571879601+570704112+569487594+568032257+566951560+566382316
3102+565788106+565454000+565697493+565613742+564179990+562271238+561697071
3088+562215786+562472657+561810064+560085473+558551062+558236749+558124054
3075+557427892+556545281+555927696+555733688+555614776+554788861+553260069
3061+551770566+550348501+548898536+547929687+547565891+547016590+545659625
3047+544169277+543250908+542527243+541606536+540312036+538358624+536195040
3034+534588267+533376025+532473024+532075508+531273663+529447020+527649322
3020+526624424+525978592+525245528+523941230+522142687+520507168+518959577
3007+517256918+515819486+514993421+514428852+513657543+512850974+512203749
2993+511518329+510787005+510074132+509438346+509082258+508665495+507854102
2980+507087468+506426815+505637453+504818251+503862433+502664912+501419598
2966+500322439+499276554+498018061+496498470+494963710+493752811+492882285
2953+492063680+491136657+490266379+489568874+488821785+487845427+486565201
2939+485169544+484151162+483609321+483396116+483201212+482143590+480059430
2926+478137698+476978969+476023101+474892471+473694453+472505387+471210340
2912+470020379+469463917+469298605+468779143+467930002+467213997+466584725
2899+465869714+465379347+465180415+464614702+463567127+462812777+462421279
2885+461788725+461002397+460327172+459583316+458695880+457715394+456825224
2872+456171185+455388736+454280088+453219582+452497409+452156788+452058765
2858+451807265+451002237+449609713+448008212+446477182+445023039+443971336
2845+443702976+443735949+443201618+442239832+441711270+441633985+441530391
2831+441304504+440766940+439904421+439075969+438346137+437704532+437244402
2818+436801978+436237856+435694325+435243843+434831606+434443590+433994700
2804+433367268+432700250+432358634+432314869+432078737+431480051+430771803
2791+430201217+429785648+429346854+428786860+428121184+427559749+427265528
2777+426933561+426417730+425961679+425564710+425155706+424900327+424816129
2764+424722432+424568807+424388973+424190090+423869909+423311507+422781602
2750+422564667+422382048+421961655+421479046+421043236+420677350+420503881
2737+420424060+420229505+419829452+419329338+418968177+418580160+417946959
2723+417550090+417692774+417856097+417779707+417676710+417509856+417223792
2710+416924698+416698438+416501495+416222443+416073543+416096072+415865858
2696+415503006+415394041+415263417+415027161+415060059+415206448+415103998
2683+414800801+414497902+414367254+414369318+414239664+413872734+413432572
2669+413078672+412875016+412844430+413016506+413341014+413450725+413164586
2656+412818643+412599768+412475759+412450619+412495677+412687522+412991490
2642+413099883+412979753+412849925+412787162+412873946+413110626+413448213
2629+413884023+414169714+414131992+414001816+414099541+414493600+414972454
2615+415361093+415636862+415904575+416348666+416941010+417497224+418046326
2602+418658241+419172728+419492213+419690598+419842930+420024555+420317631
2588+420742799+421137778+421343822+421481334+421756009+422182171+422552284
2575+422740274+422895143+423119090+423353532+423469111+423394462+423410675
2561+423694650+423903280+423876623+423794763+423627710+423383222+423280922
2548+423300765+423343784+423369794+423241185+423092135+423101386+423147289
2534+423177875+423182202+423156291+423267693+423582801+423803963+423662224
2521+423349454+423117300+423068413+423259636+423519938+423727971+423942967
2507+424165174+424346152+424309798+424095250+424102361+424386635+424700450
2494+424944639+425041221+424883169+424527429+424208094+423949233+423688633
2480+423706984+424076799+424371616+424242260+423791978+423469161+423358704
2467+423191402+423107354+423089798+422744253+422279448+422023373+421733927
2453+421341534+421089885+420984451+420827842+420538247+420216176+419863669
2440+419403141+418933861+418486015+418040557+417702820+417416408+417076881
2426+416732778+416478867+416345234+416062676+415407991+414651552+414050504
2413+413621657+413393159+413256144+413005142+412534345+411859244+411149405
2399+410570439+410141492+409776427+409343228+408781941+408155131+407547394
2386+406888109+405903843+404398973+402401696+399981441+397426433+395150627
2372+392870718+390023380+386855911+383943871+381622335+380187190+379725569
2359+379822921+380277505+381569494+383908859+386762090+388776251+388570779
2345+386393295+384297149+383219385+382758833+382965275+383545012+383717213
2332+383327331+383133248+383601285+384406412+385202215+385902853+386595310
2318+387419485+388334821+389070720+389480743+389883133+390611149+391491398
2305+392192982+392613996+392826033+393000347+393262365+393518117+393584759
2291+393495712+393491361+393628648+393757805+393908968+394151193+394379020
2278+394481296+394347937+394094249+394050036+394194013+394299895+394399162
2264+394601451+394882641+395206328+395525788+395819387+396200714+396560433
2251+396677803+396825634+397255924+397708817+398044689+398382301+398752514
2237+399192601+399696819+400195019+400771325+401469253+402138460+402789837
2224+403603618+404451516+405108538+405829716+406895818+408097391+409188434
2210+410165438+411196328+412487819+413953973+415437408+417040974+418834295
2197+420678743+422479872+424414684+426631284+428968237+431268039+433585149
2183+436104821+438908020+441736186+444334536+446853909+449536357+452422810
2170+455492579+458638488+461619135+464318741+466828616+469159054+471288670
2156+473327076+475186692+476591350+477510664+478113776+478376665+478112483
2143+477294475+475965361+474025775+471370680+468163698+464603264+460530480
2129+455962257+451284024+446590175+441798800+436906118+431887165+426965688
2116+422377025+417900210+413348722+409012528+405110975+401363645+397477211
2102+393591697+389982624+386682965+383623764+380798060+378113200+375392508
2089+372599304+369932820+367577367+365537494+363675168+361757140+359691928
2075+357648947+355863732+354302166+352703524+350931562+349069783+347410268
2062+346014785+344610202+343126045+341624382+340103995+338607356+337256483
2048+336071844+334918760+333715793+332416867+331143678+330059374+329013067
2035+327944529+327032799+326240204+325362765+324462474+323735800+323103321
2021+322326268+321350681+320398817+319665678+319010868+318260447+317467604
2008+316650988+315698179+314602661+313510127+312553562+311719515+310851948
1994+309690683+308343417+307465903+307101882+306774316+306364118+305771500
1981+304980994+304257479+303714444+303189910+302563325+301799874+300804841
1967+299813687+299312826+299129908+298756911+298163224+297510627+296833687
1954+296215481+295669015+295058443+294385108+293680118+292736609+291927428
1940+291986611+292365924+292331608+292003644+291694429+291474460+291246459
1927+290852873+290045880+289233616+289060670+288943499+288807056+289353000
1913+289906404+289685266+289258557+289432449+289967178+290314065+290418803
1900+290405400+290119261+289522714+289173663+289053682+288658429+288609144
1886+289188956+289713092+290034790+290117918+289984758+289931470+290006541
1873+289760164+288431299+286633501+286892138+288913013+290445460+291101164
1859+291565397+292152271+292788605+293302893+293483872+293236102+292762594
1846+292073146+291825923+293342183+295310241+296420356+297221828+297970036
1832+297725325+296644826+296836422+298256746+299650961+301221106+302502203
1819+302938187+302949302+302768448+301996170+300886751+300506692+300746728
1805+300590566+299508575+297912768+297114728+297374235+297425186+296320268
1792+295460957+297113485+299349107+300188749+300019408+299744956+299919768
1778+300823093+301426429+300415357+298173071+297859106+299887566+302063931
1765+303290794+303166088+302880348+303503701+304235522+304848456+304463199
1751+301887478+299114243+299212590+300640846+301506225+301627524+301470815
1738+301536338+300493637+297758546+297884893+301031200+304142645+305941363
1724+306429641+306486785+305756157+302816018+300570549+303841413+308706393
1711+312122974+313605515+313542627+313770752+315157606+315708101+315548955
1697+318374286+324843230+331628823+336073460+338909011+340859887+341641316
1684+344222036+351674051+359411459+365534783+370490004+375584775+380287303
1670+384994281+392697548+401104610+407537398+413828695+421574185+428722556
1657+433404717+435784888+441761500+452117052+458487002+465004012+476522669
1643+487766203+495949964+501232702+504216034+509339875+519062176+527390810
1630+533036946+537339993+541170875+544522679+548624706+552981514+555088253
1616+556085151+559724412+563738312+565835004+567026209+568591157+569984725
1603+571047469+572502258+574217698+575457541+576697534+579006835+582192134
1589+585835721+590000013+594614837+599674024+605071346+609840839+613829673
1576+620783836+630823633+639034947+646780611+656931809+667904796+678063554
1562+685654648+689926910+698507740+714106342+728026952+740670818+752122484
1549+762984815+772058847+778356485+782061493+786600921+801855122+817816973
1535+827224515+834545459+843724179+852734105+860125222+866257598+870930807
1522+875529815+882703401+891097135+899708401+908053795+913971722+916172606
1508+913878921+913655818+923619723+932424450+936636536+937373977+938108931
1495+941631717+944254833+941818713+936676521+936798466+940133560+942063897
1481+942017048+940968677+938230080+932084675+923388962+918745094+921596386
1468+924778103+923554672+921135958+921824461+921906123+916019826+911064232
1454+917340137+926014067+932531177+937544561+943774612+951255746+958699381
1441+965682191+970445218+972533506+976989582+984665371+991970351+999129712
1427+1005257413+1007633556+1008144910+1009717467+1011451855+1014327715
1416+1019827984+1024956549+1027598664+1028427812+1027903626+1025108633
1404+1022816638+1023673239+1023481170+1020434428+1017065615+1014862245
1393+1016037336+1018000098+1015927128+1011062247+1009506898+1011723696
1381+1014642624+1016431719+1015951795+1014451550+1015358481+1017923609
1369+1018665525+1018272436+1018162625+1016615532+1014498001+1014525254
1358+1015440142+1015465407+1014145692+1012033035+1010301730+1009769985
1346+1009808479+1009253757+1006447026+1001067409+997904192+999250564+1001087899
1333+1001792118+1001980606+1001550217+1001444783+1003532375+1007046507
1321+1009136884+1009197956+1009776451+1012734569+1017178609+1021351902
1310+1024639949+1027911285+1031886045+1036134535+1039832481+1042791991
1298+1045341603+1047790952+1050559389+1053025051+1054390420+1055534478
1287+1056912380+1058151228+1059124901+1059726769+1060468487+1061075428
1275+1059999207+1057703830+1056400627+1055803533+1053827244+1051114707
1263+1049998003+1050660048+1051567974+1051646552+1051261519+1051732888
1252+1053468470+1055331269+1056682613+1057893114+1058659201+1058725445
1240+1058734298+1059566729+1061562712+1063150985+1062886107+1061995290
1229+1062048802+1063085238+1064155691+1064656701+1064875725+1065133839
1217+1065992031+1067507395+1068443967+1068499270+1068837156+1069794715
1205+1070280706+1069470456+1068823529+1070157666+1072047122+1072855979
1194+1073401252+1073741823+1073550848+1073348932+1072908099+1071788212
1182+1070016922+1068063211+1066746083+1065758684+1064584091+1063903445
1171+1063327437+1062195714+1060963728+1058983858+1056214924+1054070040
1159+1052619229+1051410917+1050653981+1049395438+1045990718+1041395290
1148+1037626922+1034271040+1030033193+1025140661+1020734617+1016529295
1136+1011099447+1004354163+997205344+990302008+984029684+978691445+974127747
1123+969417834+964171502+958507213+951890936+944708000+939159988+936700095
1109+935376202+931922446+926405764+921443308+918915181+918627227+918290236
1096+916440667+914773517+914982993+915872716+916699676+918779907+921467279
1082+922720749+923506829+925265288+926785625+927934357+930008223+933160797
1069+936662894+939628771+942339616+945142368+947383138+948662171+949808019
1055+952386376+955354440+956692655+957663642+959843240+961998369+962523748
1042+962064415+962293883+963833019+965576061+966371987+966951576+968133032
1028+969601051+970703730+970961944+970847160+971380497+972533506+973210173
1015+973114089+972931271+972894667+973074701+973573224+973659262+972810619
1001+971820037+971637417+972243265+972505159+971286402+968688749+965761565
988+963760906+963153766+963025057+962056059+959850501+956990954+954138767
974+951657091+949288209+946361821+943594877+942326188+941943045+941633209
961+941806678+942140187+942142773+941952992+941461928+941170195+941926236
947+943068204+943415937+943577271+945168727+948167725+950825754+952399107
934+953747170+955260843+956938635+959072578+961087957+962017467+962145181
920+962458001+962980297+963035700+962520267+961449118+959668180+957449094
907+955472805+953918450+952449338+951811363+951883078+950681628+948375311
893+946694634+946139813+946546430+947139148+946716019+945499650+945392127
880+947081656+948950224+949651758+950111589+952292778+956293399+960785282
866+965805230+971991616+978511113+983681255+986190085+986346843+986069035
853+985731746+984369559+982849520+981974419+980787988+979216426+978705469
839+979861861+981443171+982891097+984528307+984632547+981967854+978215500
826+975972145+976765386+978933147+980143747+981257368+984564811+989483602
812+992377863+992464498+992163912+992519801+993278229+994120308+995231144
799+996607355+998253417+1000860022+1003897415+1006286090+1008050119+1010035957
785+1013668753+1018925430+1023117224+1024869715+1026779760+1029792684
773+1031292830+1031308745+1031805179+1033619936+1037197229+1040771639
762+1042000541+1040723795+1038330545+1037584948+1039484748+1041709503
750+1042429537+1041838113+1040884532+1041085852+1042581820+1042642693
739+1041162341+1041004389+1041027763+1039215692+1036220971+1032811874
727+1030673356+1029109850+1026721971+1027156538+1030189056+1030662912
716+1028924048+1028259217+1029136507+1027418730+1020803149+1015963532
704+1017528331+1019799835+1016933524+1012047955+1011366215+1014568721
692+1016614637+1015863072+1014055974+1012428213+1012292840+1013370057
681+1011124016+1004364607+1000822723+1006005894+1014624024+1017865123
669+1014228348+1012553938+1016934519+1019960572+1020877052+1022566382
658+1024432662+1022763026+1018552333+1019187622+1025729599+1030769440
646+1031121052+1027405501+1022092824+1022426732+1027317573+1027842853
635+1025564585+1023685971+1020963886+1020780570+1021395767+1017402507
623+1011636265+1008106715+1006247796+1004750037+1006051251+1011431166
611+1013400195+1006079300+996620783+995597178+1002341668+1009235455+1015318297
##END=
