##TITLE=Sample description
##JCAMP-DX=4.24
##DATA TYPE=INFRARED SPECTRUM
##DATE=24/8/2023
##SAMPLING PROCEDURE=Instrument type and / or accessory
##ORIGIN=Default
##XUNITS=1/CM
##YUNITS=ABSORBANCE
##RESOLUTION=4
##FIRSTX=4397.6552
##LASTX=599.8556
##DELTAX=-1.9287962
##MAXY=1.3562578
##MINY=0.30923823
##XFACTOR=1
##YFACTOR=1.2631135e-009
##NPOINTS=1970
##FIRSTY=0.57236302
##XYDATA=(X++(Y..Y))
4398+453136648+452277720+451947965+451648883+450842146+450026773+449664930
4384+449910453+450469639+451148872+452102461+452730920+452790991+452956717
4371+452753146+450899763+448160367+446956773+447498499+447760396+447457444
4357+447833019+448827803+449565928+449653983+449492975+449560266+449156850
4344+448251158+448190615+448493755+447758178+446578650+445989075+445954202
4330+446162823+446721915+447571405+447778752+447030812+446428637+446535425
4317+446538445+446083688+445921548+446178820+446186842+445635490+444941392
4303+444967298+445759171+446399569+446208691+444961069+443199658+442339314
4290+443162426+444717340+444970271+443315365+441717556+441607607+442581015
4276+443944909+444731402+444501310+443975298+443477363+442647645+441690942
4263+441190223+441185929+441925847+443383128+444039569+443059366+441539466
4249+440743016+440958102+441604492+441982332+441743746+441204096+440960697
4236+440656802+439840533+439091790+438679691+438542703+438995572+439434852
4222+439254308+439285547+439695569+439673721+439220898+438937625+439117130
4209+439279318+439019119+438813188+438826590+438717348+438477865+438055668
4195+437500069+437301735+437615870+437927079+437658245+437036676+436629863
4182+436415060+436487259+436729950+436341540+435665138+435828977+436411474
4168+436465552+436321202+436382075+436448941+436419354+436441391+436846742
4155+437053475+436072989+434723912+434177420+434201156+434333237+434247732
4141+434022075+434275714+434580034+433928878+433093921+433496771+434298082
4128+433988241+433207316+432822492+432607548+432791631+433497054+433881217
4114+433318020+432205217+431261633+430653276+430476508+430817540+430902149
4101+430335885+430139533+430798853+431420894+431718041+432328427+433008180
4087+433007896+432478676+431908495+431270032+430321965+429272206+428636338
4074+428864307+429651744+429979611+430099612+430643319+430778751+430171244
4060+429709975+429590163+429015735+428088950+427966023+428799894+429514378
4047+429268430+428582213+428291106+427961257+427389425+427288205+427597480
4033+427766321+427773541+427323880+426315977+425839560+426314420+426866952
4020+427142392+427114598+426741996+426510725+426304133+425600314+425053161
4006+425242293+425633912+425653212+425325581+425292219+425838616+426417999
3993+426575703+426193381+425476585+424881064+424424938+423963008+423696581
3979+423805115+424046202+424107878+424214335+424216553+423597438+423073691
3966+423319638+423652177+423707576+423920916+424193808+423897463+422896875
3952+421907423+421532414+421857780+422633562+422410879+420910657+420646164
3939+421915162+422810614+422420316+420848226+419953434+421073693+422120810
3925+421660956+421411376+421827108+421081904+419586967+419782092+421635899
3912+423285615+424007224+423490886+421015840+418064236+416996073+416778156
3898+417679224+420332076+422050829+420155638+418078251+419343474+419681675
3885+417716408+417019054+416363226+416620168+419057369+420472368+419852498
3871+417494480+415220175+416384933+417389957+416201511+416747342+419110031
3858+420958883+419691679+411957267+408677891+414017713+418981348+420855210
3844+420340712+419039673+416866116+413797720+413546299+415729482+417141462
3831+417781717+418497381+419115741+419915070+419250842+415741657+414957664
3817+416011718+416470722+419119611+422137232+422706940+420326083+418352700
3804+417980712+415931308+415116690+416774334+417985148+419730279+421970372
3790+423118520+422973462+421760430+420694108+420984082+420893857+420058099
3777+420670561+422026716+422320701+420837892+419369711+419561674+419975755
3763+420317306+420029833+418344395+417868073+419365180+419595839+415643080
3750+412721771+415690693+417482824+414686518+414844742+417985195+418749982
3736+415198563+411959957+413040483+415912952+417840609+417977834+417428463
3723+417349847+417884872+419432896+421371831+422080086+419588147+415643835
3709+416449959+420017375+422694813+423509337+423301801+424599961+427088503
3696+429157301+429942285+428332915+424807969+424485906+427977207+430972319
3682+431911609+431843941+431290512+427663308+424192109+425170614+424183993
3669+422071687+423908930+426252272+426959442+427253333+427972960+428749213
3655+431033192+435081697+436084126+429337609+423420905+423542321+423416847
3642+420486761+416374410+412759192+409354623+406140226+403284981+396657851
3628+386901925+385111185+387034006+386316337+381532232+375515723+372764199
3615+370807073+367765126+365015655+361568310+358526647+358088736+357465019
3601+354590380+351460898+349374735+347527581+346104206+345533836+343739865
3588+338753485+335141594+335370954+335852090+334839044+333193174+331652959
3574+330010416+328451656+326672054+322580041+317311308+316189374+317564947
3561+317934718+317322468+316655315+315567191+313759228+312361925+311616934
3547+310228077+308495096+307860574+308152412+308327978+307748926+306833159
3534+306255994+305495501+303898141+302154850+301155206+300538922+300089638
3520+300096434+300034522+299519387+298723007+297515968+296030092+295031060
3507+294935220+294695525+293379245+292297468+292443352+292902261+292854389
3493+292301833+291295393+289891412+288792671+288625364+288594290+288002143
3480+287521007+287236011+286601701+285717692+285209989+285320812+285248920
3466+284608876+283736216+282878444+282441383+282101672+281428738+280879013
3453+280706940+280714136+280236776+279035612+278224155+278127560+278179373
3439+278274977+278148889+277616719+276857477+276308649+276515241+276929487
3426+276685545+276194641+276015277+275875033+275591358+275617713+276142002
3412+276408500+276056261+275692176+275344561+274799721+274642087+275034319
3399+275184521+274894641+274849245+275201178+275653694+276134193+276455571
3385+276629603+277116330+277960347+278910632+279872267+280578445+281277569
3372+282438434+283569475+284358210+285273694+286695536+288704475+290808477
3358+292414637+293873687+295645315+297291586+298478995+299616147+300982118
3345+302139868+302785975+303412051+304246512+304963426+305439630+305698035
3331+305848968+305935253+305876692+305918666+306137527+306003794+305589879
3318+305585042+305891745+306084746+305846798+305129412+305064150+306170559
3304+307042370+306934048+306825042+307187050+307354900+307214490+307170841
3291+307344188+307928880+308938859+309950654+310893649+312107365+313335828
3277+314061141+314546996+315408637+316813421+318341744+319356725+319530686
3264+319464102+320116722+321071113+321292144+321015737+321267347+322469761
3250+323911399+324499157+324329750+324775093+325817632+325939851+325510599
3237+325953819+327001501+327877488+328407960+328424122+328259315+328583832
3223+329238999+329741865+329964313+329876070+329633638+329545325+329684224
3210+329975119+330307752+330390686+330244259+330197802+330312188+330671270
3196+331277833+331848981+332283942+332583024+332773855+333083342+333646492
3183+334240125+334592908+334674167+334681103+335064842+336018642+337060781
3169+337712551+337860133+337702287+337825921+338317816+338544369+338343251
3156+338193214+338471698+338998701+339333151+339452279+339528017+339540569
3142+339601537+339759548+339689119+339483541+339411673+339204774+339156076
3129+339665690+340109263+340101902+340083191+340412356+340720592+340532121
3115+340211969+340211662+340463202+340853358+341171834+341018400+340631594
3102+340768984+341197387+341321422+341411316+341620976+341672057+341643650
3088+341875299+342441115+343182189+343776648+344120913+344641546+345133747
3075+344856042+344058766+343525416+343414051+343558354+343973472+344317313
3061+344061550+343570859+343606887+344082667+344344116+344286262+344240018
3047+344384533+344799109+345134927+344870505+344380380+344225743+344093143
3034+343754824+343512935+343497575+343708154+344025781+344201299+344226097
3020+344171594+344036304+343931309+343877797+343719456+343610827+343849744
3007+344216942+344418721+344638101+345040786+345452412+345786461+346270994
2993+347061570+348041867+349021740+349826141+350506437+351215305+351829560
2980+352412741+353093249+353419676+353232880+353132392+353322539+353335515
2966+353052077+352869763+352787254+352474063+352005574+351690235+351728458
2953+351962254+352034288+352130883+352542085+352983063+353226132+353431828
2939+353714488+353883635+353711609+353374588+353269546+353365126+353158369
2926+352482580+351769182+351358357+351108918+350855892+350830269+351145702
2912+351602771+352003521+352156837+352256830+352521275+352633914+352668386
2899+353096363+353683272+353944816+354041080+354139351+354006468+353835928
2885+354051698+354396883+354514076+354625559+354858081+355073899+355336763
2872+355548145+355455230+355267066+355402568+355764694+355808650+355506005
2858+355422906+355700022+355875516+355559730+354915675+354486046+354612889
2845+355077249+355547791+356178680+357046503+357794184+358300259+358728685
2831+358990016+358975482+359038101+359505056+360219988+360753149+360907881
2818+361050179+361472564+362090028+362671935+363058599+363554080+364179165
2804+364418742+364438325+364776125+365247752+365537561+365851272+366262261
2791+366574485+366766354+366835273+366840794+367016313+367423103+367962658
2777+368515166+368889207+369207755+369696794+370020131+370018597+370141099
2764+370481849+370753703+370959681+371227689+371605033+372104549+372555484
2750+372792961+372976855+373413067+374074699+374517777+374577471+374682112
2737+375090412+375582236+376090765+376731752+377470892+378270928+379099396
2723+379777804+380045788+380106567+380563401+381392836+382102011+382544735
2710+382817085+382988332+383186643+383525953+383886285+384222670+384671859
2696+385121590+385322874+385253365+385171705+385340546+385629742+385818237
2683+385994109+386090232+385911458+385736081+385932410+386382330+386765313
2669+386959754+386989530+386920894+386950623+387310413+387882977+388202326
2656+388152448+388131921+388367935+388633371+388747308+388963196+389453062
2642+390007080+390463961+390820306+391192979+391698063+392212679+392612438
2629+393007336+393524477+394083379+394497837+394794512+395201609+395794794
2615+396516238+397331234+398051852+398508638+398952731+399668111+400431907
2602+400969055+401454438+402065814+402701116+403335614+404047361+404713004
2588+405143271+405507473+405989269+406337144+406475926+406739286+407271432
2575+407908432+408425526+408716916+408905104+409173891+409530826+409876389
2561+410135973+410431563+410994949+411643321+412007193+412243797+412683407
2548+413166194+413487313+413780307+414148945+414625786+415120277+415491793
2534+415815602+416112654+416408291+416937984+417730848+418376106+418625687
2521+418817509+419183079+419604852+420110195+420647910+421014000+421212617
2507+421314261+421493531+421889255+422202541+422345192+422672304+423173589
2494+423537603+423669400+423690777+423859665+424222640+424396719+424260155
2480+424152471+424198952+424223915+424192864+424219668+424140768+423849992
2467+423716164+423834278+423786712+423393724+422848365+422364445+422097876
2453+421998922+421874344+421673084+421446248+421296188+421163446+420833409
2440+420336654+419856273+419430442+418957187+418424899+417936968+417478813
2426+416914956+416296029+415854957+415528317+415049258+414369080+413683523
2413+413217063+412965500+412739703+412265692+411563100+411062523+410771841
2399+410273623+409596607+409017366+408462616+407851523+407229010+406459174
2386+405514929+404406892+402753920+400215358+396990673+393532853+390076849
2372+386519460+382809039+379223148+375992140+373339901+371551663+370637500
2359+370311380+370510964+371826962+374882050+379169943+382210356+381708599
2345+378381869+375352002+373880518+373356606+373502749+373970389+374214449
2332+374124861+374485146+375694380+376945281+377661416+378200381+379166546
2318+380665564+382108146+383154460+384098540+385130533+386172860+387118190
2305+387891565+388452591+388939555+389513039+390105139+390734046+391376024
2291+391845622+392237005+392720051+393144820+393337728+393483305+393766177
2278+394012903+394197010+394549533+395028969+395395460+395602265+395902078
2264+396526856+397329771+398096115+398825793+399581661+400361454+401039508
2251+401539095+401961480+402436576+403039505+403770033+404489802+405195273
2237+406078361+406948332+407527573+408076660+408883303+409887289+410942947
2224+411974208+412950919+413809989+414508806+415225460+416217083+417392222
2210+418486811+419510050+420540131+421550535+422697361+424093579+425503671
2197+426779936+428049264+429410940+430784744+432065161+433317313+434711171
2183+436343616+438124469+439954210+441803723+443595665+445336125+447126086
2170+449059217+451066103+452895419+454526165+456182252+458005197+459979099
2156+461853480+463380128+464716275+466112918+467479219+468542804+469253041
2143+469861822+470467583+470836362+470785068+470410626+469816851+468931262
2129+467811805+466497695+464834153+462896916+460806505+458457029+455942628
2116+453512364+451082761+448387722+445420404+442367533+439410785+436607495
2102+433740501+430714102+427771559+424941654+422085796+419189639+416229352
2089+413288932+410473420+407756296+405200982+402890436+400661244+398325216
2075+395939262+393557745+391240852+389096410+387035610+385039836+383193131
2062+381352254+379410723+377523814+375805792+374143406+372357079+370459458
2048+368661263+366961763+365179399+363335384+361626211+360142505+358630816
2035+356953400+355307813+353754079+352309823+351013172+349702837+348250488
2021+346781293+345307425+343669483+342089158+340816550+339676236+338501663
2008+337272917+336016259+334801151+333625634+332439594+331313201+330245510
1994+328912902+327212293+325704120+324685057+323865626+323064763+322183562
1981+321234385+320358163+319526321+318622233+317615911+316520638+315264688
1967+314027000+313266413+312811916+312131125+311176026+310174022+309272247
1954+308473791+307673990+306805483+305868953+304892525+303735034+302544652
1940+301987637+301875659+301583042+301032374+300309490+299545010+298874530
1927+298179842+297150940+296016312+295332549+294723296+294150897+294212337
1913+294264032+293541715+292613113+292293834+292307967+292129476+291770323
1900+291410675+290970758+290309905+289766692+289406360+288784791+288311488
1886+288393596+288499016+288367737+288088357+287809424+287646270+287504892
1873+287107658+285816576+283802163+283278463+284519784+285487954+285517282
1859+285200811+284970932+284843097+284707430+284417574+283795910+282809360
1846+281408423+280237129+280668387+281657202+281826703+281554826+281314777
1832+280360551+278441648+277381271+277602798+277816917+278140490+278534232
1819+278467248+278047693+277504316+276610822+275498892+275040831+275169987
1805+275022404+274176807+272761005+271686991+271414524+271081112+269792696
1792+268325341+268716370+269928010+270193186+269553379+268714978+268040770
1778+267773422+267321898+265683908+263174721+262612445+264201688+265713944
1765+266251894+265578276+264729541+264860890+265210441+265554116+265324260
1751+263284411+260796979+260591991+261608860+262154078+261959212+261542465
1738+261473287+260586777+258099769+257821615+259958177+261926440+262989600
1724+263019872+262565893+261435088+258126312+254752417+256144270+259221302
1711+261022942+261032285+259312116+257527040+257108005+255744700+252969110
1697+252558875+254593250+257312520+258800167+258492992+257241265+254552455
1684+251215603+252537452+255604739+257173219+256580152+255057020+254008440
1670+252720874+252740505+254485565+254989328+253906725+253743311+254290652
1657+253656838+250264657+244822199+245044976+246308524+245575235+246986908
1643+250410493+252539858+252804846+251310806+250588512+254755083+259719284
1630+262974170+265423167+268034824+271053200+275428486+279999794+283047097
1616+286526506+292336965+297907917+302154850+305881576+309886266+313898388
1603+317798248+321853548+325917837+329721126+333474442+337515137+341750862
1589+346012801+350222007+354388837+358580890+362670685+365940789+368063288
1576+371624310+377576665+382365182+386194684+391349976+397200616+402405054
1562+406066187+407026523+408957248+417360842+426199232+433871213+440362392
1549+446395227+451302896+454315090+455730326+457979291+468209464+479682917
1535+487284775+494443768+502745812+509804529+515554185+521061009+526043047
1522+532064982+540215408+548228611+556814919+565655056+572605947+576873690
1508+579636398+587967227+600722985+609922887+616724521+622437181+629254528
1495+637836401+645019224+650123528+655919287+665138868+675259091+683977528
1481+691657909+698673826+704481288+708935285+713998865+722804884+733189270
1468+742275070+750244481+758354090+766498288+773289728+779093982+788762893
1454+801737182+813325209+823236339+832412459+842346712+853025319+863918729
1441+873791447+880875788+887129042+896693147+907566360+916774568+926019394
1427+936123243+944127574+950222462+955282975+958044645+961559068+969277719
1414+977496569+982531506+985214842+987700836+989596404+991640618+995155796
1400+997255031+996532195+996274734+997139041+998919187+1000477734+998358491
1387+993288823+992314566+997098837+1002475042+1005267384+1006316954+1006332904
1373+1006397552+1007329717+1007820857+1008249236+1009013126+1008174395
1362+1007328679+1009189517+1011391341+1012102946+1011768661+1010551760
1350+1008080489+1005624696+1004576164+1004494811+1003528576+1000437718
1339+998577918+1000764075+1004174117+1006255231+1006659827+1005960491
1327+1005512199+1006912003+1009187630+1010258718+1011557822+1015408229
1315+1020274891+1024389176+1028300928+1031208788+1032827926+1035254084
1304+1039082878+1043443017+1047584294+1050713564+1052841584+1055086821
1292+1057563094+1059167791+1060551080+1062706375+1064453866+1064963032
1281+1065256262+1066204660+1067089353+1067146640+1066871058+1066439188
1269+1065410852+1063723385+1061532132+1059554550+1058017992+1056881029
1258+1057297704+1058905706+1059786246+1059762841+1060227932+1061736459
1246+1063419019+1064447732+1064551735+1063819650+1062598880+1061567807
1234+1061468522+1062233922+1062987714+1062536779+1061350834+1061895202
1223+1064761253+1067179861+1067125405+1066309041+1066289128+1066266005
1211+1066102072+1066767149+1068513413+1070337916+1071456570+1072418936
1200+1073542026+1073741823+1072622697+1071702329+1071539717+1071012902
1188+1070063089+1070052235+1071022340+1071424859+1071292448+1071452701
1177+1070874168+1069374606+1068724912+1068422716+1066548099+1063832674
1165+1062334717+1062562827+1063142870+1063189776+1062580853+1060781644
1153+1058272905+1055679039+1052773821+1049887951+1047656965+1045476188
1142+1043089291+1041761873+1040580175+1037966772+1034978597+1031852630
1130+1027576299+1022138182+1015738644+1009243690+1004059920+999434204+994321595
1117+989163779+983132312+975649793+968172088+961660429+955628302+949986330
1103+945535495+941266147+935221468+928599765+923552654+919256125+914433255
1090+909498169+904727017+899817980+894417709+888143126+881169868+874558735
1076+868872595+864007726+859935722+855677416+850613128+845833671+842217792
1063+839457821+836776089+833841709+830805401+827977385+825368040+822685175
1049+820516101+819257202+817919592+816549233+816330372+816738082+816367368
1036+814979643+813423927+812856908+813227622+813475363+813282644+812991585
1022+812794242+812618700+812519320+812871914+813713571+814509361+814936041
1009+815575164+817221483+819298728+820786398+822050582+823648862+825260733
995+826161470+826152504+825791228+825214394+824415584+823621682+822767944
982+821243373+818228300+814541827+811619621+808971110+805854110+802693696
968+799590758+796564737+794298737+792744531+791439293+790699563+790794837
955+791705248+793701046+796792470+800047072+802636786+805057754+808496298
941+812796979+816652387+820469384+825373231+830930546+836333177+841310543
928+845344985+847846268+850209948+853569593+856043600+856651485+856910739
914+857821103+858606889+858406243+857480495+855698085+852825522+849959093
901+847897420+845801017+843020094+840081089+837236462+834286793+831635167
887+829722893+828434926+827776738+827167438+826237633+826132685+826702064
874+826502833+825841342+826212151+828527510+832706822+837761578+842307923
860+845982882+849937009+854616521+858568477+861298814+864853819+870711443
847+876979797+880976394+883405289+886308714+890896113+897565665+904238992
833+908406129+909455983+908498713+908221055+910505742+914591054+918364354
820+921223138+924709154+929724932+934416146+937110241+938924363+941101742
806+944022154+947020711+949339657+952606811+957797187+963036829+967726627
793+974065009+981762802+988466708+994789989+1000738499+1004335596+1006392928
779+1009221417+1013295686+1018604695+1025485747+1033258475+1040503068
768+1044597629+1043839024+1042044156+1043441318+1045565469+1044606689
756+1042455924+1042245369+1043416403+1043844026+1042793229+1041922976
745+1042693566+1042303505+1038335599+1035364883+1036389160+1036996101
733+1034788521+1032835854+1034060777+1037926378+1040677195+1038326916
721+1031214168+1025043966+1023278166+1023942677+1024768384+1024338118
710+1022826759+1022158945+1023056002+1024625308+1024817272+1022914719
698+1021085309+1020694587+1020411832+1017473016+1012864005+1012204118
687+1015765447+1018408579+1019037604+1020029604+1022881970+1026050312
675+1027181613+1028343775+1029737162+1026298902+1021757653+1024541407
664+1028288470+1029845696+1030932168+1030681880+1029333699+1029347478
652+1028346229+1024167484+1023234658+1029714229+1037797459+1040946453
640+1038193938+1030152989+1019391613+1013018500+1012660055+1013197345
629+1014328458+1018584498+1020746305+1010077702+992596471+986677502+992993800
615+997847154+999032817+1003434765+1008313790+1010140086+1014194536+1017680269
602+1016229123+1017146565
##END=
