##TITLE=Sample description
##JCAMP-DX=4.24
##DATA TYPE=INFRARED SPECTRUM
##DATE=24/8/2023
##SAMPLING PROCEDURE=Instrument type and / or accessory
##ORIGIN=Default
##XUNITS=1/CM
##YUNITS=ABSORBANCE
##RESOLUTION=4
##FIRSTX=4397.6552
##LASTX=599.8556
##DELTAX=-1.9287962
##MAXY=1.5159212
##MINY=0.58825076
##XFACTOR=1
##YFACTOR=1.4118117e-009
##NPOINTS=1970
##FIRSTY=0.83087146
##XYDATA=(X++(Y..Y))
4398+588514376+588439438+589684674+591080419+591404404+591586577+592299438
4384+592157246+590281518+588460843+588783814+591181406+592921655+591738311
4371+589895176+589553163+588979244+587576744+587078269+587973049+589085677
4357+589218117+588518091+587986053+588229823+588951971+589043923+588414360
4344+588269255+588647660+588151549+586875029+586458797+586585368+586809379
4330+588262458+589545184+588855924+587658943+587189051+587283114+587612081
4317+587423279+586819765+587124541+588459829+589131273+588491578+587796956
4303+587482428+587013844+586654015+586459261+585081501+582505747+581544979
4290+582785318+583680605+583395841+582592759+582427811+583672710+584902958
4276+585474893+586532763+587999056+588627859+587475335+585185316+584084425
4263+584626131+584857531+584364208+584085438+584288172+583911540+582000560
4249+580572222+581188106+582540915+583160557+582233268+581250167+582037965
4236+582997888+582735627+581943269+581050558+580664807+581118656+581533158
4222+581363988+580812656+580507078+580840943+581482580+582264299+582694759
4209+582538002+582653934+583268341+583305999+581940989+580352094+579650759
4195+579220088+578868661+578695565+578551431+578684672+579032511+579035297
4182+578704304+578762692+579290382+579486825+578717223+577509941+577099239
4168+577585090+578006516+578050845+578089349+578068999+577976203+578048523
4155+578017788+577843848+577781617+577720358+577762239+578004531+578065326
4141+577881549+577716812+577285507+576240007+575329142+575212956+575032430
4128+574735844+575469350+576884811+577576435+576652271+574979192+574760036
4114+576018697+576358388+575356879+574947824+575294903+575310903+575138061
4101+575199784+575540741+575350335+573940278+572891105+573563857+574562833
4087+574561777+574173198+574210815+574581156+574375720+573228558+572324701
4074+572710114+573590497+573729439+573523708+573806910+574344563+574424229
4060+574050764+574024504+574287863+574303695+574257635+574262195+574084877
4047+573488497+572445150+571106653+570174130+570650102+572032886+572897100
4033+572688456+571641267+570607968+570311425+570719087+571159384+570676235
4020+569810839+570045743+570943859+571420126+571777042+571947436+571158202
4006+569808644+568784886+568423495+568788897+569423062+570126592+570865079
3993+570876056+570316744+570233869+570408654+570232940+570155216+570425204
3979+570547764+570135331+569142773+568299077+568375324+568816803+568943712
3966+569315447+569849089+569512818+568742499+568093177+567620879+567965804
3952+568811822+569221848+568980147+568794934+568737559+567998735+567118858
3939+566588044+566140907+565649314+564449843+563229305+563930893+565476598
3925+565562724+565428596+566587031+566751767+565282140+564888029+565933530
3912+567163483+568341718+568711468+566662897+562967381+561285647+561864506
3898+563345237+565087090+565015318+562171139+560988091+563541089+564215783
3885+561200408+559546285+559432928+561450806+565028279+565901106+564480916
3871+562327348+559921734+560043662+559748174+557779354+558468150+561958780
3858+565514764+565131208+556294316+551485032+556616740+562423184+565232533
3844+564144054+560658406+557006839+554742278+555993636+558618617+560197168
3831+561569947+562823542+563099103+563298163+562011511+557831958+556849068
3817+557265681+557117325+560617412+564862825+565344412+561901700+560860633
3804+562276263+559427904+556502834+557175080+558584884+561318197+564407329
3790+566166154+566711618+565724928+563920422+563510100+563265613+562514122
3777+563582632+565450423+566028859+564440344+562083789+561146368+561039893
3763+561521058+561212482+558808009+557623779+558675865+558151637+553057167
3750+550027268+553933793+555806101+552523862+553221355+557042007+557900183
3736+553733846+549990242+552393069+557678536+560847081+560367773+558752449
3723+558127910+558530675+560376175+562865634+563914132+561030225+556101589
3709+556410460+560411681+563203847+562486385+560294651+560581230+562035237
3696+562895989+563109742+561429570+557176135+555275245+557659496+560369884
3682+561334789+561232241+560449171+555537127+550250815+550001092+548120340
3669+547185199+551352973+554895405+555422714+554596117+553481505+551240080
3655+549295072+548842531+544808422+534265478+530394586+535572480+540561784
3642+541817068+539841409+536594802+533094926+530153011+527899131+522365208
3628+514971515+514847984+517401193+517779091+514221967+508007058+504421226
3615+502696767+501592034+501754871+500493423+497552605+496131275+495499601
3601+493697840+491692501+490569825+488890498+486517815+485082469+483256601
3588+479263232+476805775+477405490+477924524+477047856+475225957+473060863
3574+471322978+470590106+469831355+466031347+460350925+459724360+462073485
3561+462182957+460379634+459246235+458700898+457832293+457140373+456059578
3547+453610142+451544473+451209342+451386787+451362596+451050854+450573235
3534+450438474+450276017+449027952+446917826+445470532+444962474+444363393
3520+443551572+443017001+442728817+442129863+440852836+439363408+438348600
3507+437998060+437707469+437035012+436527883+436241261+435531567+434553363
3493+434176141+434076758+433168933+431676169+430586593+430160945+430195860
3480+430512330+430208272+428824095+427809583+427779650+427803546+427900606
3466+428330433+428456413+427727215+426199452+424479510+423508272+423547409
3453+423717296+423334163+422729213+422372382+422077275+421490774+420994791
3439+421035279+421221842+420925637+420156246+419852695+419996533+419394075
3426+418563213+418177125+417410562+416663759+417059473+417975489+418455514
3412+418658627+418584069+418229307+418116119+417917143+417681732+418246490
3399+419037961+419441950+419846193+420116349+420132773+420310259+420791509
3385+421322998+421670963+421902574+422070604+422245473+422929203+424409892
3372+426090106+427184537+427511731+427661480+428530929+429987469+430889089
3358+431391532+433150019+435965996+437757076+438423496+439357412+440661332
3345+441875200+443247134+444556669+444641866+443826035+443798255+444536869
3331+445113870+445571350+445702861+445170949+444859841+445552352+446696897
3318+447367876+447494490+447675903+447531262+446554071+446138852+447209219
3304+448451458+448804658+448487132+448158419+448756782+450094435+450588941
3291+450101527+450127492+451244975+452793889+453934254+454280489+454220412
3277+454498252+455100795+455612442+456362159+457642267+459097119+460022507
3264+459955295+459601251+459573682+459530408+459665169+460528497+462022991
3250+463323956+463422958+462632711+462543546+463727396+464885367+464995895
3237+464547449+464173815+464100608+464457397+465274537+466279297+466966024
3223+467530950+467924596+467377275+466813235+467673775+469126854+469921618
3210+470066132+469583912+468855304+468882830+469398446+469318273+468976471
3196+469334316+470012852+470166823+470311464+471225453+472149744+472310892
3183+472325753+472464737+472387097+472592363+473376320+474230528+475216204
3169+476270106+476721929+476757266+476881135+477103711+477555365+478236055
3156+479034661+479954181+480705545+481075422+481127182+480759754+480111234
3142+479853997+480201666+480629129+480656191+480160377+479714887+480020422
3129+480735436+481156355+481133008+481027039+481260466+481505671+481380282
3115+481496045+482157145+482841550+483248959+483078059+482448158+482159678
3102+482211270+482369927+482810098+482994550+482802920+482975974+483252843
3088+483093680+482987373+483228568+483505310+483815152+484164849+484189589
3075+483811437+483468622+483638974+484215258+484556552+484548615+484677044
3061+485074236+485533025+485834044+485861274+485781946+485715114+485307663
3047+484539074+484226108+484587287+485209842+485931695+486355316+486460102
3034+486620026+486552688+486204385+486218190+486851891+487602325+487906594
3020+487827857+487864418+488025862+487821482+487478709+487594810+488049842
3007+488383580+488531936+488843677+489264132+489380486+489229386+489429333
2993+490390227+491569940+492677206+493890019+494847156+495617686+496535560
2980+497208777+497523347+497906692+498315916+498288136+497686227+496988607
2966+496797357+496874702+496644399+496407427+496700297+497250742+497230900
2953+496511200+496122283+496785283+497923453+498491250+498322291+498144805
2939+498158737+497991636+497840367+498060452+498326640+498076326+497408513
2926+496822942+496430478+496214319+495994909+495537767+495106124+494998509
2912+495420906+496222467+496832019+497184839+497538588+498014602+498302364
2899+497911589+497543528+498205008+499141669+499185872+498830434+498969544
2885+499500020+500068999+500593692+501016088+501298699+501439878+501252512
2872+500602515+499963875+499952561+500363769+500597027+500648196+500841135
2858+500945794+500380361+499552582+499208459+499008216+499016111+499737795
2845+500407888+500483121+500686995+501210082+501547873+501882286+502560021
2831+503284913+503647486+503762025+504004571+504318803+504683656+505046693
2818+505075318+505088616+505503583+506008601+506283064+506580747+507171047
2804+507758813+508068571+508276582+508659799+509158274+509583246+509907189
2791+509985040+509959075+510225474+510499726+510451259+510686205+511535178
2777+512244957+512496537+512771844+513101993+513328116+513721002+514193934
2764+514383537+514550765+514932505+515311966+515697463+516078148+516226884
2750+516399473+516902423+517325790+517333601+517208127+517366278+517893081
2737+518403883+518535690+518433014+518518802+519080731+520066155+520913016
2723+521178824+521155267+521134622+521309913+521947075+522731074+523130039
2710+523228155+523396312+523658320+523937638+524279270+524631711+525082310
2696+525711535+526069295+525919883+525891724+526381079+527075110+527569025
2683+527688545+527766903+528111237+528566016+528910688+529074285+529339755
2669+529717442+529727364+529564527+529828266+530329653+530454451+530218745
2656+530175725+530619188+531296332+531754530+532041405+532457257+532867959
2642+533203935+533584282+533844559+533852961+533763922+533851061+534323782
2629+535106936+535734473+535921458+536109922+536592860+537121310+537688263
2615+538333995+538778177+538928517+539244312+540064956+540865842+541097453
2602+541133339+541611548+542363545+542757613+543032920+543741601+544450873
2588+544716258+544815008+545046154+545549822+546144596+546464402+546616347
2575+546941978+547357873+547572555+547704614+547892191+547987099+548069636
2561+548368163+548989831+549693024+550111832+550340741+550499609+550692548
2548+551166113+551563981+551463121+551383961+551925963+552886435+553695089
2534+554196730+554770100+555376612+555635665+555683161+555725590+555784738
2521+555848531+555907257+556130804+556633374+557331880+558032961+558559637
2507+558879147+559143309+559474598+559731075+559887031+560119233+560571900
2494+561190824+561569862+561607859+561710914+561881055+561712054+561318029
2480+561252843+561666669+562181694+562371213+562210487+561990401+561869741
2467+561796238+561741016+561751993+561806793+561849771+561815237+561706566
2453+561584132+561361049+561234394+561430203+561402255+560833908+560246691
2440+559974170+559957156+560025845+559974297+559649720+559063136+558682662
2426+558698747+558561410+558116976+557755754+557602585+557399303+557024233
2413+556694675+556362415+555872046+555339628+554762670+554134500+553682803
2399+553513212+553341551+552955800+552515080+552095850+551760297+551594632
2386+551186463+549989102+547980386+545518538+542798016+539444681+535221433
2372+530791144+526622865+522462142+518494527+515432288+513301560+511707219
2359+511198739+512504643+515331977+519102305+523331633+526385174+525949479
2345+521766971+517477566+516151228+516803378+517685830+518071328+517981276
2332+518057860+518912406+520351679+521712636+522580903+523177029+524048546
2318+525443574+527028247+528352643+529549286+530808538+531897439+532780778
2305+533551773+534053710+534432917+535002952+535539507+535740383+535745449
2291+535849560+536116255+536517120+537138324+537681677+537725246+537617124
2278+537888336+538422063+538830401+538935272+538922564+539064967+539261664
2264+539385153+539598652+539972582+540381300+540749868+541113918+541584317
2251+542215400+542843908+543335923+543650662+543847401+544271528+544923383
2237+545360978+545564725+545970234+546759341+547487906+547797495+548021507
2224+548486628+548967413+549306893+549888749+550828492+551634359+552138618
2210+552548771+552893823+553370175+554198503+554972665+555420603+555989752
2197+556805836+557506116+558172071+558929936+559454671+559850934+560556237
2183+561402803+562127992+563034677+564232460+565177986+565674477+566137319
2170+566708958+567295796+568049988+569107520+570098685+570640518+570996547
2156+571462767+572053193+572797506+573592651+574142632+574314039+574426045
2143+574650014+574749059+574745470+574669435+574354653+574000102+573817127
2129+573601432+573192799+572495179+571364693+570019694+568820350+567814999
2116+566767051+565515270+564319514+563242899+561958146+560491263+559039493
2102+557641215+556344936+555140610+553972760+552787052+551511714+550198717
2089+548962474+547687262+546257658+544935499+543866483+542748705+541430980
2075+540120896+538926364+537745849+536500528+535205179+533915275+532716479
2062+531689429+530709874+529558658+528342722+527222917+526067733+524813124
2048+523576121+522502249+521610298+520662365+519545346+518429130+517489387
2035+516730931+515877779+514798039+513660840+512566409+511582716+510703135
2021+509809453+508765008+507589897+506593792+505883001+505253311+504567048
2008+503784359+502881093+501919059+501074856+500339114+499545616+498676209
1994+497689942+496564691+495613127+494941767+494328332+493848645+493462978
1981+492913208+492241342+491540514+490854420+490236510+489630462+488914689
1967+488056217+487368012+487020849+486719704+486259607+485536065+484566052
1954+483745998+483305532+482915686+482268602+481351278+480055548+478891963
1940+478879128+479355607+479206491+478575872+477929084+477410218+476960126
1927+476319502+475173268+473936940+473367792+472925974+472462541+472686469
1913+472898659+472283830+471341174+470900582+470965767+471113785+471130504
1900+470898893+470381758+469714283+469220241+468795016+468096383+467760957
1886+468020179+468088911+467905049+467824200+467871696+467863168+467632106
1873+466957411+465215474+462764729+462329793+464195896+465710359+465946277
1859+465794332+465863360+465908618+465645892+465152104+464427675+463357097
1846+461737340+460385376+461123694+462612235+463053757+462895100+462722595
1832+461505814+459003816+457886586+458584163+459184427+459854055+460542893
1819+460619520+460377523+460113193+459307452+457883631+457166464+457580544
1805+457913353+457132310+455322780+454051960+454075011+453938772+452353972
1792+450728980+451729813+453572990+454036296+453353834+452332440+451413807
1778+451068374+450443962+447990726+444413802+444159224+446959285+449139029
1765+449737477+448778271+447622074+447715799+447983845+448288663+448157110
1751+445672084+442221477+441824834+443262080+443944458+443523624+443039208
1738+443255029+442297892+439118835+438931512+441938064+444640093+446082363
1724+446088696+445348394+443695115+439290454+435029335+436890709+440726982
1711+442925429+442892372+440714655+438513295+438014229+436083448+431994033
1697+431165156+434142492+438248964+440590827+440455348+438900312+435203951
1684+430740268+432661972+436708832+438654516+437872713+436040301+434782526
1670+433165049+433540034+436277696+437169478+435993607+436339968+437535724
1657+436671975+431869361+424870243+425434072+426834334+425693631+428235399
1643+433585968+436651963+436566344+433533870+431300255+436127862+442328796
1630+445838889+447636302+449579791+452061397+456075030+460616438+463093738
1616+465444298+471140510+476974311+480882230+484048114+487756128+491528904
1603+495093205+498962451+502914065+506113050+508837919+512060630+515599854
1589+519060129+522654067+526246022+529467719+532345674+534380059+534804440
1576+536585261+542255255+547032030+549769735+553670940+558982920+563615816
1562+566112705+564275100+562523199+571199450+581020034+589073518+595630608
1549+601095504+604803771+605835254+604289929+603371971+613275008+626623881
1535+634628856+640446826+647828697+654576235+659266379+663157874+666313246
1522+669697992+675752555+683208478+691553692+699698622+705389894+707774355
1508+706779053+709968707+722348875+732589407+738402986+740976207+744607931
1495+751796906+758009620+760844342+763553929+770400258+777983723+783743854
1481+789116925+794617580+798124084+798525836+798734986+804186499+812961710
1468+819726050+823760455+827939839+833056136+835797387+834982484+839237523
1454+851066148+861400997+868519045+873941258+880916100+889664882+897801495
1441+904807410+910024526+913508823+919272668+927556793+935451409+943143122
1427+949943096+954010178+957136377+960305470+961660939+964770251+972633794
1414+980658866+985546085+987971879+989969914+991221694+991398421+991679343
1400+991241368+990417937+991320992+992851921+994887278+997564947+998858270
1387+997993212+997570351+999411587+1002045686+1003757227+1003980394+1003397187
1373+1004426306+1006615254+1007499057+1008223021+1008957370+1007080840
1362+1004882435+1005830411+1006597353+1005205492+1004720992+1006753899
1350+1008584834+1009188981+1009834756+1010173855+1008784358+1005227023
1339+1002264125+1002491092+1004438972+1005944063+1006268555+1006420288
1327+1007320810+1008873271+1010481375+1011994826+1014209189+1016777513
1315+1019421660+1023522855+1028763613+1032980064+1035248214+1036148060
1304+1037096120+1039385041+1042498152+1045354997+1048776980+1053204355
1292+1056524253+1057816985+1059264575+1062156123+1065154992+1067233918
1281+1068891587+1070600003+1072221617+1072257841+1069178757+1065324541
1269+1063588008+1063064413+1062497503+1062466683+1063312574+1063612157
1258+1062685966+1062606004+1064180756+1064930220+1063728933+1063244687
1246+1064875674+1066610518+1066992681+1067010835+1067908992+1068792964
1234+1068357016+1067151254+1066383045+1066211975+1065689901+1064893490
1223+1064938748+1065319644+1064494947+1063358846+1064547889+1067893034
1211+1070608024+1070982081+1069813218+1069166767+1069785945+1070429524
1200+1070093127+1069849948+1070781458+1071294836+1070173933+1069663680
1188+1071099786+1072118942+1071045324+1069459004+1069416448+1070575854
1177+1071842579+1073285778+1073741823+1071957076+1069747019+1069191592
1165+1069545721+1069035974+1067642678+1067044947+1067651797+1067359307
1153+1065454574+1063343478+1061964198+1061584484+1060624857+1058200076
1142+1056472831+1056262414+1055505519+1052578423+1048904649+1046382512
1130+1044796446+1043461073+1040882533+1036540270+1032799115+1030411150
1119+1027653349+1023883064+1019592814+1015552499+1013459050+1013305881
1107+1011697692+1007470010+1003058594+1000076866+998643969+997591629+995749380
1094+993533413+991843742+990819351+989196048+985565506+980754702+977165956
1080+975539359+974608018+973262513+971222090+969122562+966836596+963354579
1067+959608695+956381931+953422664+951757058+950572996+947808272+944459581
1053+941579431+938909699+937090755+936489141+935904245+933805223+931300058
1040+930169361+929162533+927198273+924708054+922016536+919846587+918545412
1026+918339807+919364958+919953907+918668859+916718361+915321941+914040608
1013+912804279+912189662+912308971+912833832+913301107+913181122+912677962
999+912661665+912165091+910290249+909338812+910506239+911326546+910150843
986+908854143+908902610+908962813+908297196+907596621+906852308+905526308
972+903745107+901933931+899980141+898201051+896954337+895190699+892715172
959+891373298+891154606+890092894+889247509+890975430+893750878+895125261
945+895825075+896930864+898452420+900689328+903586534+906777328+909731613
932+912140942+914956919+918707615+922605739+925876494+927769659+928032511
918+928340876+930872722+934915486+937086111+936599078+936175035+936598318
905+936937248+936712983+935313607+933818226+933371976+932846355+931513600
891+930094888+929261240+928597818+927448038+926218211+925807762+926553680
878+927400837+927118057+926749912+927684293+929021354+930375725+932720544
864+935281943+937256505+939408469+941963536+945487603+950293932+954828289
851+958350582+961423164+964165259+966518352+969001901+972540998+977219658
837+981497073+983672426+984346656+984540270+984448656+985807671+989052336
824+991853368+994015718+998087613+1003707071+1007225396+1007388698+1006174576
810+1006867383+1010670937+1015109964+1018297634+1019606831+1019844521
799+1021998174+1027156099+1033140410+1036884858+1036768504+1034994142
787+1036160134+1040683514+1044805565+1047949412+1051153462+1052666237
775+1052690640+1053798961+1055547653+1056714321+1058279025+1060194565
764+1060082601+1057569753+1055932264+1056479248+1056832786+1055163633
752+1052594803+1052505131+1056113298+1059586702+1059374343+1056551611
741+1051411924+1044416394+1040875440+1041881001+1042521457+1042228207
729+1041906670+1039683948+1037469416+1036988040+1034569170+1030894383
718+1030568540+1032821153+1035683234+1038209254+1037981105+1035530234
706+1033340864+1031376603+1030766545+1033578048+1037758360+1039579753
694+1038595047+1036747225+1033744220+1029702722+1028297520+1029380173
683+1030060651+1029883755+1028855903+1029429990+1033483985+1037054745
671+1034757465+1027809727+1028488432+1037072139+1039438658+1036347754
660+1034869682+1036409139+1040879155+1046086307+1042620333+1031447868
648+1025849351+1027016102+1025250185+1017996193+1016014286+1024847251
637+1032113402+1031302890+1027157535+1029041664+1040787372+1037355848
625+1014264918+1000628663+998200167+1004296357+1018754016+1025080635+1026767013
611+1032396013+1029038202+1021107532+1022527679+1028449422+1031936506
600+1036451105
##END=
