##TITLE=Sample description
##JCAMP-DX=4.24
##DATA TYPE=INFRARED SPECTRUM
##DATE=24/8/2023
##SAMPLING PROCEDURE=Instrument type and / or accessory
##ORIGIN=Default
##XUNITS=1/CM
##YUNITS=ABSORBANCE
##RESOLUTION=4
##FIRSTX=4397.6552
##LASTX=599.8556
##DELTAX=-1.9287962
##MAXY=1.6456782
##MINY=0.59318697
##XFACTOR=1
##YFACTOR=1.5326572e-009
##NPOINTS=1970
##FIRSTY=0.84013188
##XYDATA=(X++(Y..Y))
4398+548153798+547148032+547038790+548022545+548540518+547773379+546484417
4384+545644321+544928827+544498590+544798819+544938666+545421638+546966144
4371+547780418+547176693+546662571+546648532+546601436+546832597+546901665
4357+545938911+545046274+545269346+546108042+546515684+546015834+545035852
4344+544208589+544242734+544246196+542890344+541102310+539855933+539861260
4330+541868399+544102615+544201900+543134066+542448634+541584504+540847543
4317+541162006+541846465+542082915+541709184+541524069+542621382+543892377
4303+543745101+542521552+541184367+540929795+541889983+542165322+540784542
4290+539089532+538550754+539129900+540111283+540893978+541306909+541489807
4276+540726791+539061882+538712652+540690856+542300581+541426650+540391794
4263+540675262+540472879+539440046+538644128+538232597+538104105+538259548
4249+538868328+539580865+539854571+540124233+539874833+538599988+537439246
4236+536730053+536342167+536216980+536716053+538621028+539963463+538677690
4222+536719592+536375028+537441191+538691224+539085643+538481802+537454335
4209+536436863+535962292+536538132+537623311+537918290+537632645+537827132
4195+537673557+536982097+537287032+538062260+537391334+535576389+534631329
4182+535443697+537123073+537948352+537085272+535605362+534777710+534578361
4168+534317528+533719559+532897897+532280600+532161714+531939187+531640280
4155+532174353+533632952+535070900+535536954+535253993+534494009+533365273
4141+533087601+534121173+535168007+534760871+533085384+532014788+532009694
4128+532190648+532892374+534058133+534313522+533570145+533007566+532714026
4114+531925109+530721743+530325301+531526955+532946314+532807400+531968626
4101+531793817+531585407+531009838+530917009+531468115+532285461+532761394
4087+532270644+530902230+529965143+530425637+530631519+529452032+528549479
4074+528926243+529723444+530164570+530647192+531035622+530593135+530224616
4060+530349918+529739622+528514867+528013150+528329752+528495072+528827268
4047+530083368+530829040+530176353+529907120+530732010+531431131+531229488
4033+530439170+529887169+529458254+528549362+528142031+528867558+529305184
4020+528764034+528000317+527092514+525707922+524622937+524721600+525398865
4006+525781035+525912560+525730711+525488701+526074147+526913660+526788162
3993+526263073+526166121+526208627+526250356+526804146+527404993+526861625
3979+525962261+525675605+525638776+526175766+527007967+527052574+526690510
3966+526830436+527029318+526361309+525466689+525671910+526936993+527747922
3952+527233217+526536896+526818769+527616786+527183477+525165293+523930855
3939+524130671+524609948+524422616+522888105+521869621+523101454+524511168
3925+524539052+524051919+523641593+523009402+521869893+521048153+521807592
3912+523173711+524201956+525075964+524460767+521956462+520350238+519588310
3898+519850232+522713956+525342786+523864859+521882999+523758418+524217395
3885+521133905+519819821+519265525+519346960+521662455+522639327+521313887
3871+519205363+517202035+517512025+517607422+516661235+518366472+521733974
3858+524096176+522761596+514003315+509216027+513922813+519484513+522902533
3844+523466278+521465168+518389573+515913424+516243598+518037270+519141311
3831+520695190+522554158+522576637+521602293+519262803+514468942+513711759
3817+515683080+516956408+520071593+523331564+523222090+519213957+517121417
3804+518207530+516991058+516055216+517753025+519331054+521026647+522510641
3790+522764319+522305264+521821515+521717679+521886616+520913633+519689618
3777+520967535+523181917+523312586+520515753+518211924+519007375+520559192
3763+521863671+521788653+519302081+518497997+520430117+520454346+515750592
3750+512929842+516116389+517483403+514723086+515807721+519619927+520474724
3736+516488525+512324912+512770471+516249937+519335488+519845254+518859983
3723+518256647+518023542+518872350+520890183+522115443+519455074+513941247
3709+513137824+516440496+519417778+519737841+518101011+518026031+519558832
3696+521003508+521486791+519437107+514329833+512366601+516021848+520024770
3682+521483835+521027775+519329421+514397735+511052361+512921947+511995049
3669+509330479+511191237+513734743+513822750+512743015+511438537+508553073
3655+506672365+508533823+509035034+502166366+496571455+498710002+501606432
3642+501308303+499306376+497933218+496510398+494199647+491653808+486930610
3628+480043898+478510203+480178378+480026553+476299360+471930486+470570084
3615+469721004+467935226+465954805+462668350+459157850+458132405+458024214
3601+456547143+454473425+452942180+451270816+449915664+449658136+448323207
3588+444397443+442074831+442646549+442618082+440752735+438574754+437204007
3574+436474825+436446318+436117195+432760815+427526645+426321568+427816607
3561+428178942+427241311+426270467+425198083+423727078+422865593+423120165
3547+423211633+422200345+420752557+419798903+419366605+418670439+417412862
3534+416328538+415711747+415020287+414105911+413231553+412209025+411474165
3520+411358779+410927997+410154636+409754071+409410947+408613202+408032189
3507+408252305+407726671+405895392+404853964+404715983+404091608+402908543
3493+401665005+400746390+400352126+400377405+400352476+399495424+397995330
3480+397209407+397192218+396930179+396349477+395931646+395785537+395772276
3466+395746375+395153695+393864073+393079161+392964125+392417646+391616712
3453+391147196+390711087+389972687+389456193+389876630+390353612+390063611
3439+389514294+389006433+388664475+388162564+387420898+387349807+387872641
3426+388407608+388524355+387841413+387290928+387587190+388122974+388402358
3412+388298989+388087740+388265583+388637525+388486127+387793734+387194015
3399+387031728+387407014+388016650+388095596+387796301+388176603+389036106
3385+389361379+389657991+390641241+391620835+392209936+392792777+393512587
3372+394367150+395384195+396221997+396578227+397039265+398173717+399808642
3358+401585203+403016424+403726006+403873048+404189260+405166171+406435454
3345+407571501+408203226+408240638+408378036+409246794+410619679+411258754
3331+410759994+410395052+410790950+411661924+412338606+411943525+411254515
3318+411626651+412702419+413634101+413963264+413670619+413645535+413948836
3304+413414491+412502254+412989892+414596194+415174757+414348856+414061538
3291+415031137+415843933+415950452+416124950+416649767+417536103+419025930
3277+420598515+421052514+420611699+420473096+420716701+421304481+422387521
3264+423375787+423804430+423869842+423910054+423963294+423947933+423983284
3250+424459683+425517990+426313129+426361003+426501822+427168937+427799029
3237+427960188+427896759+428081951+428454904+428597941+428656081+429097907
3223+429771711+430119541+430016483+429915642+430120707+430314573+430337168
3210+430459048+430392780+430081740+430387530+431283472+431928069+432050650
3196+431882568+432027744+432468870+432401630+432236115+433134001+435015798
3183+436864733+437533714+437012903+436874106+437681612+438379800+438297820
3169+437773703+437611377+438352149+439877910+441097998+441032858+440540125
3156+440631321+440852643+441054364+441760757+442676027+443213872+443339681
3142+443190228+443042952+443064847+443204306+443580564+444271440+444852725
3129+444880142+444986584+445705422+446038590+445289613+444257129+444006795
3115+444786224+445940743+446482944+446040846+445268651+444716378+444592242
3102+445039240+445532168+445660776+445715416+445991689+446326802+446334308
3088+446122942+446045201+446090625+446056790+446149076+446726861+447330157
3075+447503411+447654303+448105930+448601852+448721243+448506183+448478805
3061+448542662+448093757+447563029+447799518+448320407+448407131+448433070
3047+448729838+448954232+448810223+448515517+448449754+448385392+448175076
3034+448290034+448574240+448530256+448422765+448691804+449239644+449568184
3020+449547923+449558851+449689209+449641841+449441404+449515761+449909014
3007+450304561+450613618+450878419+451335334+452043477+452584589+453144874
2993+454238414+455438902+456075099+456344061+456961902+458003914+458843893
2980+459303531+459777869+460374982+460807164+460850565+460512613+460191190
2966+460155878+459916550+459339076+458927623+458680712+458572443+458857155
2953+459400483+459946845+460297864+460365999+460327148+460287947+460359349
2939+460596965+460823770+460969879+460967857+460662067+460147516+460040920
2926+460703717+461154566+460602060+459754691+459272731+459019908+458738969
2912+458551092+458744452+459234969+459791597+460220979+460339204+460335276
2899+460695395+461320159+461474940+461082348+460767769+460874988+461289319
2885+461656205+461850926+462049847+462361821+462696428+463024696+463406555
2872+463364670+462541219+461531175+461065237+461351776+462068903+462798669
2858+463250957+463207322+462864082+462458695+461857187+461208856+460951640
2845+461065975+461449467+462236596+463109476+463508523+463599564+464043607
2831+464857025+465655354+466380337+466864008+467043757+467085719+467009106
2818+467136898+467530112+467623914+467506195+467831663+468675298+469523094
2804+469941470+469949909+469885391+470026444+470253560+470401030+470687181
2791+471209937+471704264+471918547+471862429+471785350+471957592+472444181
2777+472990659+473424786+473892474+474391507+474726309+474893496+474988620
2764+475005965+475126834+475524598+475979492+476366250+476684290+476717036
2750+476473664+476453674+476987203+477723774+478258742+478607622+478776675
2737+478802304+478934451+479240902+479671567+480172856+480538458+480812398
2723+481213118+481724790+482178283+482337148+482354143+482601365+482859009
2710+482942194+483262296+483841948+484204828+484431399+484877893+485408893
2696+485876153+486324358+486575508+486511962+486419287+486528179+486740478
2683+487110475+487700821+488112352+488152214+488167109+488324185+488414020
2669+488388858+488571951+489121736+489773683+490149864+490148853+490096935
2656+490244833+490526161+490719987+490608607+490464910+490765216+491430853
2642+492188736+492922314+493255832+493041355+492970342+493378101+493669424
2629+493662230+493864612+494493381+495380262+496304243+496977697+497274542
2615+497492364+497920423+498312432+498396006+498532470+499173801+500141533
2602+500893816+501265213+501533280+501879243+502268958+502593687+502833792
2588+503158949+503505768+503585725+503607154+504013201+504591259+504841320
2575+504838986+504990928+505422955+505950766+506284829+506379992+506544613
2561+506886259+507225766+507579469+508042957+508513134+508850074+509041217
2548+509184954+509374425+509523800+509515361+509518900+509708410+510006616
2534+510474343+511199676+511930764+512500265+512968537+513293422+513375440
2521+513167847+512942481+513187175+513879918+514534549+514799777+514780954
2507+514947830+515385962+515614012+515556338+515695369+516136768+516598467
2494+516994053+517244736+517200363+517131412+517462208+517975630+518165529
2480+518082810+518035365+517996942+517964469+518190496+518575543+518673312
2467+518441063+518246147+518245603+518260925+518248947+518458174+518820276
2453+518682568+517927173+517322594+517113989+516984564+516855800+516686785
2440+516522359+516382784+516087028+515677557+515324594+514922474+514442691
2426+514277254+514532605+514757426+514716242+514475709+514032094+513470137
2413+512953720+512444498+511931542+511649202+511726632+511826773+511466343
2399+510772861+510234744+509907292+509474838+508831913+508220022+507619681
2386+506828119+505943105+504810286+502932844+500273525+497300910+494214542
2372+490712054+486831830+483258251+480298003+477664429+475563294+474538082
2359+474466953+475230514+477044293+480042614+483961184+486867453+486500489
2345+483157955+480092004+479016858+478949968+479510603+480294697+480410122
2332+480320365+480998174+482066397+482887904+483486962+484148904+485323802
2318+486941382+488249167+489123875+490062284+491048139+491886485+492714681
2305+493443747+493894829+494283338+494681335+494916268+495081122+495296493
2291+495500276+495828194+496483369+497090166+497121472+496798960+496628195
2278+496601128+496552749+496607272+496819766+497095261+497405329+497733986
2264+498127550+498619933+498998019+499098860+499256947+499709896+500168445
2251+500524092+500935351+501330548+501596787+501940028+502436106+502873810
2237+503289852+503660783+503890699+504243973+504902143+505684099+506286074
2224+506635187+506865920+507074835+507475011+508165537+508806323+509174259
2210+509566384+510171353+510715810+511146008+511715820+512330045+512785638
2197+513221670+513865645+514726820+515525304+516037443+516378001+516827955
2183+517540726+518348311+518974319+519384605+519862327+520561176+521282853
2170+521956384+522579748+523141705+523833475+524706395+525564069+526236706
2156+526841325+527552190+528116480+528361680+528505728+528704727+529048395
2143+529416409+529513789+529399375+529269717+529084835+528679682+528015912
2129+527388892+526983078+526513873+525802269+524990523+524056158+522961917
2116+521919011+520877116+519696346+518598566+517521903+516242042+515043616
2102+514073044+513046044+511857224+510658875+509540912+508357652+507029995
2089+505704361+504389810+503100615+502045225+501236357+500383116+499254147
2075+497944613+496655145+495501053+494527721+493525105+492402319+491525161
2062+490902380+490057734+488890225+487619542+486397509+485344958+484408843
2048+483399110+482331626+481380110+480559653+479764980+478909406+477908656
2035+476840238+475893895+475060216+474161941+473206186+472378574+471694814
2021+471041661+470280278+469448815+468745027+467995739+467095713+466306018
2008+465633770+464943127+464271774+463598631+462860231+462153838+461549064
1994+460802536+459773242+458939990+458420890+457722196+457006975+456626478
1981+456322866+455815821+455175929+454593711+454116806+453635429+452916630
1967+452030138+451434736+451057078+450622641+450253733+449870941+449253333
1954+448558412+447991750+447394481+446640098+445917332+445189627+444490428
1940+444321919+444426144+444171571+443619376+443083670+442623021+442092292
1927+441424089+440511502+439502547+438916128+438464696+438063354+438233963
1913+438336865+437764058+437083566+436832805+436821604+436785787+436646406
1900+436390978+435907695+435117417+434458664+434050905+433495443+433334128
1886+433844750+434184841+434072839+433791355+433600250+433519710+433251759
1873+432513321+430871940+428718849+428409092+430085590+431432458+431606646
1859+431313145+431239254+431402863+431486826+431274566+430695809+429792983
1846+428438259+427211988+427693249+428857530+429109068+428862546+428800245
1832+428036800+426083680+425018295+425369509+425570257+425921315+426592358
1819+426892898+426720227+426220144+425304446+424238712+423941711+424374398
1805+424592219+423960417+422448033+421337031+421453856+421427450+419886677
1792+418141539+418945273+420708806+421152772+420453340+419629344+419065287
1778+418896855+418421856+416377111+413172169+412562883+414654296+416479663
1765+417111194+416403634+415550471+415812238+416132145+416466208+416631606
1751+414926057+412142835+411661069+412763632+413186208+412475614+411734259
1738+412002132+411684830+409364357+408920509+411142902+413325433+414434024
1724+414349633+413808210+412536827+408791278+404960833+406434949+409892247
1711+412014732+412102779+410248360+408365708+407901247+405988222+402397727
1697+402157777+404891881+408129141+409911303+409785572+408709065+405886331
1684+402043558+403518723+406975866+408633697+407913070+406280440+405183282
1670+403688983+403818486+406156226+406907381+405697794+405818818+406959260
1657+406751589+403469333+397681295+397779025+399185901+398523880+400296981
1643+404298657+406697882+406787406+404806985+403517440+407489872+412565333
1630+415768253+417806737+419950301+422447839+426148626+430087884+432205859
1616+434739059+440542614+446067991+449497133+452089523+455206302+458641511
1603+462096515+465673243+469013639+471648652+474115429+477168390+480517069
1589+483824953+487127625+490320823+493266682+496097155+498482263+499653389
1576+501639294+506343864+510047217+512025461+515528493+520608660+524986945
1562+527632614+526912687+525941299+533436053+542157039+549159409+554828328
1549+560115777+564392560+566511857+566133965+565424110+573343968+584887260
1535+592874552+599524348+606720934+612752071+617369373+621746958+625535985
1522+629321552+634886129+641338716+648701866+656285560+661979407+664596765
1508+663999496+667194522+678493937+688112848+694313662+697894318+701838516
1495+708020196+713136530+715518838+718115895+725018280+733306073+739859695
1481+745031019+749583453+752934893+754325512+755277378+760395112+768194450
1468+773661725+776598523+780902529+787399294+791795390+791916648+795014139
1454+804718063+813424309+820142201+826558775+833827502+840927369+846721629
1441+851473489+854963843+858125968+863948774+870665888+876092018+881918479
1427+888505546+893504511+897374819+901313650+903596088+905475085+910072475
1414+915256167+919529683+922909746+924505547+924028215+923448835+924079549
1400+924231919+923321199+922843867+924000525+926881088+928644116+926791486
1387+922378201+919985782+921210031+924040504+927333921+930251274+931482212
1373+931884721+932738039+933176404+933487211+934148181+933694182+933114259
1360+934184971+934361919+932902232+932724039+934173071+934017978+931729395
1346+929597459+928283764+926919512+925558915+925793342+926947668+927494302
1333+928691095+930607426+931600436+931831286+932556113+934503245+937244660
1319+939526244+941446619+943862917+947044409+950675000+953164643+954154154
1306+955169643+956985483+959784766+963427957+967336221+971295586+975708871
1292+980099757+982383984+982199180+982004654+983065955+984180224+985156745
1279+986881039+988326882+988527397+988024864+987411028+987017386+985948463
1265+983470719+980920563+979854440+980603845+982313905+984038121+985173546
1252+984889651+983739136+983157657+983254726+984168635+985644578+986334871
1238+987082643+988918706+989260158+987378283+986477985+987074399+987469207
1225+987700446+987891705+987686601+987398661+987518208+988135233+989017952
1211+989858126+990576809+991327225+991995740+992017751+990861326+989235502
1198+988638388+989382583+990719923+991828825+992024363+991026374+990089287
1184+990664077+991451283+990775535+989234413+988440440+990089131+993305391
1171+994451705+993296757+992435583+991580942+990389360+990377460+990939883
1157+990099554+988437406+987946229+987967618+987010075+985663479+983688580
1144+980538277+978175959+977691237+977378330+976025045+973766095+970671327
1130+966701462+962483792+959158408+956755878+955050718+954317102+953169388
1117+950004152+945697579+941896729+939094645+937090501+935302740+932429099
1103+928314331+924757786+922936657+923130328+924380167+923937213+921312388
1090+918720387+916791845+914470205+911285057+908018941+906491819+907258258
1076+907124166+903915996+900608501+899186925+897646658+895525456+894731872
1063+893908031+890229140+885476269+882460291+881014915+879959603+877943092
1049+875000694+873018095+871876759+869412160+865837804+863780770+863597988
1036+863203957+862602567+862646123+862569821+861786660+860020910+858036133
1022+857068712+856574812+855990221+855548123+854916476+853715483+852705594
1009+852645004+852545679+851493167+850376876+850422221+851404110+851787251
995+851109014+850606948+850629270+850241462+849472301+849134193+848986801
982+848091792+846404444+844782509+843723852+842967291+841992325+840692552
968+839446992+837898635+835235155+832132453+829858648+828658433+828208089
955+828150688+828861126+830608675+832203466+832829902+833122897+833890581
941+835487705+838085384+840956303+843028037+845277342+848545947+851783285
928+854666881+857465932+859915596+861693091+862878373+863880328+865339238
914+867823514+870448883+871741967+871731000+871532118+871694755+871773779
901+871102386+869344570+867457017+866163078+864765458+863787615+863594644
887+862712236+861501131+861854561+863122911+863364417+862675524+862000631
874+861709658+861987409+862490797+863973041+867760046+871593408+873161132
860+874816746+878567739+883047837+886791753+889481679+890890732+892438544
847+896005122+899728192+902043221+904538854+907578087+911025585+914714510
833+916332557+914875514+913571619+916092763+921324911+924750864+925880922
820+928289286+932984367+937682870+940090534+940548577+940468620+939934975
806+940571600+944281215+948612677+950537330+951713356+954319746+958361635
793+964458147+970545325+971859409+968550825+966671362+969921378+973564024
779+974499323+976290273+978342251+979691959+982889551+984876973+981863640
766+978867341+979656413+979985032+978104557+977149503+978023744+979847595
752+981831361+981217603+975856263+970361454+969537925+970601326+971227684
739+974310163+979624213+982955664+982516676+979056500+974865508+971789096
725+969901466+969359032+969331654+968324409+966650517+967572982+972361553
712+976510078+977136436+975034445+971360220+969057092+969087193+968430812
698+965853744+961717509+956787923+954591897+955061607+955022562+956383780
685+961892201+966960779+965226297+961431669+962472825+967146206+971241840
671+970023891+963925124+964343966+974467511+978025378+970698706+964710930
658+964539504+965322354+967799398+972396710+976520034+980240382+985250314
644+987759480+988194734+992003596+992713022+1001292644+1042621862+1073741823
631+1036755422+989624554+973392676+980554144+992454872+991318592+981725503
617+968244607+953261323+943076644+936488022+940795761+958966759+969679795
604+966216663+970730751+988120066
##END=
