##TITLE=Sample description
##JCAMP-DX=4.24
##DATA TYPE=INFRARED SPECTRUM
##DATE=24/8/2023
##SAMPLING PROCEDURE=Instrument type and / or accessory
##ORIGIN=Default
##XUNITS=1/CM
##YUNITS=ABSORBANCE
##RESOLUTION=4
##FIRSTX=4397.6552
##LASTX=599.8556
##DELTAX=-1.9287962
##MAXY=1.3598129
##MINY=0.44424233
##XFACTOR=1
##YFACTOR=1.2664244e-009
##NPOINTS=1970
##FIRSTY=0.60389864
##XYDATA=(X++(Y..Y))
4398+476853288+476322391+474722924+472679114+471700014+471919715+472738322
4384+473365043+473393565+473616607+474064951+473636422+472321464+471382606
4371+471501822+472103929+472247807+471628428+471182296+471600283+472282118
4357+472891049+473306588+473078510+472347303+471740632+471343400+470634456
4344+469919910+469953186+469926735+469099939+468474017+468453167+468414809
4330+468597234+469614363+471074611+471593364+470510909+468983170+468404220
4317+468788790+469070241+468972345+469145498+469471284+469615351+469166960
4303+467479998+465522882+465260399+466857936+468144043+467566410+466415711
4290+466330475+467024830+467254979+466657767+466591405+467647739+468275308
4276+467931213+467461078+467127150+466757358+465929808+465076232+464848719
4263+464462501+463943182+464041925+464311045+464515920+464800900+464976971
4249+465047052+465052511+465054347+464791534+463877950+463142931+463166558
4236+463071627+462598715+462360376+462389651+462331666+462427397+463170088
4222+464187075+464536111+463814835+462606998+462015670+462485664+463200821
4209+463231837+462684374+462300791+462221722+461750645+461060433+460739118
4195+460438982+460045987+459913969+460284326+460526053+459826851+459214814
4182+459705564+460585073+460949123+460648941+460230812+460025796+459638025
4168+459128355+458816030+458500645+458439648+458705756+458696672+458655631
4155+459029988+459131320+458175706+457082520+457451371+458656855+458489020
4141+456938359+455982134+456055414+456571674+456961751+456719365+456583864
4128+456658650+456299825+456030893+456150910+456176890+455698848+454949097
4114+454524380+454597661+455093729+455527483+455377250+454964817+454628206
4101+454035795+453498498+453750015+453899447+453144990+452696552+453048271
4087+453107903+452653958+452476381+452698058+452748371+452515774+452492336
4074+452861846+452973484+452264822+451213383+450374162+449844207+450000793
4060+451016133+451994950+451962004+451326858+450879926+450409320+449777092
4047+449333737+449090127+448885440+448621309+448494703+448915138+449515362
4033+449640085+449490699+449297214+448735819+447909823+447666213+448364144
4020+449384520+449993827+449601162+448233444+447084674+446963669+447246908
4006+447360994+447248979+446810378+446472966+446473013+446527892+446815602
3993+447235189+447203843+446529021+445670127+445389288+445888651+446551801
3979+446842664+447032243+447083733+446446892+445506622+444836835+444486764
3966+444637184+444752588+443885881+443079276+443433631+443653143+443252288
3952+443454245+443903060+443556330+443624339+444305939+443798010+442765962
3939+442884849+443798857+444251908+443101632+441533651+442010752+443431466
3925+443298506+442421303+442458014+442402665+441919634+442201649+442964484
3912+443140555+443472977+444663259+444345191+441175626+438688272+438003801
3898+438630428+441163483+443237886+441934036+440269948+441861132+442686469
3885+440578602+439085267+438278898+438922563+441075565+441526121+440790396
3871+439626001+437953065+438563266+438650808+436887271+437322390+439351375
3858+440788890+439593055+432135652+428227256+433236227+438516625+440477977
3844+439646568+438344177+437015806+434861439+434612464+436633777+437964172
3831+438534698+439263363+439701682+440401025+439463908+434983997+434582813
3817+436935042+436941772+438627275+441629665+442124086+439670289+438979700
3804+439813932+436831499+434692098+436544918+438486503+440586980+442701012
3790+443517877+443396590+442814910+442209556+442558498+442577419+441724360
3777+442392546+444067741+444591484+442847197+440643552+440150967+440505604
3763+442053770+443655214+443080970+442834113+444572328+445185354+442826394
3750+443227908+449013128+454196947+456390425+460756767+467778157+473257734
3736+473837250+471412492+472582159+478055618+482984343+483299916+480059470
3723+476512253+473257734+471237504+471252564+473222812+477120666+485295156
3709+498930773+514043959+528728097+542740755+555916403+568516631+579432392
3696+586963640+590520788+588387459+578497298+568515784+564729474+561830299
3682+557092000+551416066+544998336+533742340+521831995+517218796+511239337
3669+504773177+504752986+506279784+506063613+505537000+506432041+508700353
3655+513675155+521073867+526007299+523585507+520227021+521196990+521655029
3642+518983603+514367862+510630830+508321759+506400695+504500151+498983627
3628+489927699+487638725+488289356+484954685+475393275+464214231+458825066
3615+456087889+453182737+452508950+452881895+452179822+452376555+453231967
3601+452452472+450566236+449240971+447478328+444853496+443089442+440490355
3588+434390268+429132557+427278090+426038202+424226329+422112673+420299388
3574+419193165+418860178+418665752+416276529+411448523+409378780+409906758
3561+409811922+409066172+408653786+407843557+406015352+404696677+404417909
3547+403359081+401575824+401270793+402178965+402407797+401566552+400786962
3534+400833651+400854736+399735006+398275840+397832720+397639611+396860445
3520+396291897+396432104+396893438+396906711+396310111+395585211+394833531
3507+394402742+393870999+392615555+392036323+392202040+391566729+390556637
3493+389979428+389425234+388952063+388520333+387854524+387327581+387077452
3480+387024151+387012643+386686104+385962405+385249718+384879856+384630221
3466+384291939+383625448+382681365+381823058+380804236+379847022+379675634
3453+380142262+380745969+380925970+379913149+378325448+377820978+378333614
3439+378337661+377517407+377226897+377876515+378112595+377241463+375956204
3426+374976257+374317602+373632802+373118167+373327937+374007724+374211211
3412+373543684+372741315+372675376+372908961+372694579+372494034+372554065
3399+372336530+372056420+372218702+372421294+372413764+372492786+372456664
3385+372227009+372301372+372760776+373243313+373533212+373741946+374180360
3372+374890952+375670047+376369108+376823476+377222096+377836863+378297467
3358+378543337+379105979+380007373+380895190+381663907+382473595+383600409
3345+384955466+386083551+386939927+387633129+388070012+388728056+389945541
3331+391063389+391759955+392299653+392338341+391544090+390676277+390557719
3318+390761371+390530327+390380636+390771113+390802247+390430831+390709105
3304+391509450+392154245+392597741+392665492+392221666+391743153+391586520
3291+391884749+392832315+394229166+395350873+395917257+396523881+397257159
3277+397668321+397999426+398700604+399665443+400530503+401202031+401851156
3264+402621473+403512655+404612571+405793675+406573688+407167793+407824307
3250+408163507+408493764+409416526+410609067+411293961+411324130+411238847
3237+411490129+412251410+413445080+414254557+414129645+414046387+414547867
3223+414856569+415019838+415527014+415513836+414398812+413449928+413805318
3210+414833977+415274226+414895115+414409495+414399706+414689440+414919166
3196+415264954+415769447+416183340+416273375+416147805+416179245+416180845
3183+415771189+415261048+415724829+417103560+417831049+417568660+417484883
3169+418383689+419382415+419129957+418180179+418581411+420560836+421418225
3156+419815604+417897787+418075459+419557498+419591762+418137773+418082754
3142+420437619+421691109+419521069+417204939+418156693+420652143+420676852
3129+418268050+417281232+420272749+423505241+421774556+418169401+418695591
3115+422962814+424455866+420663250+417759745+420432771+425009636+424457890
3102+419567099+417752497+421718878+426064558+424684086+420539563+420180219
3088+424791112+428127242+424601204+419644051+419719026+423546047+425318102
3075+422361743+419469345+420959620+425055054+425978287+422448766+419673843
3061+420734319+424064895+424855827+421703158+418683072+418102474+419072443
3047+419292285+418143751+417262688+417332109+417672297+417449726+416707788
3034+416233417+416551814+417270407+417312813+416533129+416103705+418946496
3020+432032721+455664725+470518722+462375531+444725479+432046699+425586798
3007+422130370+419621836+417699548+416746947+416681055+416504701+416124320
2993+416803331+419372108+422059019+422024190+420471930+420590958+423030023
2980+426100092+426944020+425269296+423820814+424533336+427282608+428939354
2966+427366525+425455204+426284494+430176889+433256512+431176273+427255216
2953+426171490+428001766+430643400+430400261+427023372+424333732+424553856
2939+427185701+428455711+426049356+423291518+423028187+425368698+427842920
2926+426295084+422025979+419757337+420625833+422632980+422490796+419746230
2912+417531196+417604006+419475604+421056622+420576979+419259857+418836599
2899+419665089+421056998+421098887+419447318+418262355+418685849+420112068
2885+421420390+421623618+420958538+420647813+421550572+423192163+424399764
2872+425209758+426671983+429261092+432609035+436116906+439470073+442566782
2858+445273695+447345839+448170424+447211703+444900515+442114484+439335984
2845+436771726+434310352+431670177+429027036+426830969+425184296+423906802
2831+422812769+421741751+420701138+419957506+419635532+419394464+418862391
2818+418221408+417946359+418011968+418005143+417803939+417507145+417237226
2804+417065579+416982791+416997240+416977519+416895108+416934643+417074144
2791+417213787+417305188+417331921+417423134+417643070+417819706+417729246
2777+417541879+417729199+418212842+418416823+418225079+418149916+418474102
2764+418739927+418754940+419019730+419534248+419957835+420330263+420564601
2750+420587946+420647577+420934393+421488823+422141477+422591374+422784295
2737+422993359+423420853+423887459+424297821+424929343+425733360+426236299
2723+426447528+426764749+427091099+427227589+427420651+427784654+428137690
2710+428299877+428278557+428350049+428516237+428543017+428554971+428699791
2696+428874921+428943778+428808277+428539816+428407328+428539110+428658186
2683+428597189+428607167+428662986+428543487+428465547+428501646+428346707
2669+428122771+428083471+428057397+428072223+428346378+428732643+429125544
2656+429519528+429687410+429705859+429913370+430271349+430567154+430735036
2642+430842580+430968951+431106805+431359451+431819232+432316101+432821394
2629+433482002+434109289+434539324+435025415+435644888+436163407+436607703
2615+437213622+437965255+438676694+439212203+439558744+439972919+440662708
2602+441477738+442161597+442568241+442894639+443431418+444031689+444564327
2588+445084634+445380063+445353518+445398419+445898299+446620657+447115408
2575+447474187+447918248+448365839+448738831+449117283+449549437+449945444
2561+450420145+451063998+451514272+451543688+451406022+451473466+451927646
2548+452613858+453048271+452941668+452750160+452960777+453431053+453893329
2534+454258650+454541841+454854214+455328303+455842114+456051696+456054050
2521+456274315+456652344+456917886+457060353+457088309+457124973+457277889
2507+457507567+457913082+458278544+458340717+458377852+458494291+458605365
2494+458785437+459001843+459197776+459356057+459381707+459207895+458994313
2480+458970545+459130002+459328524+459569969+459829298+459735356+459228133
2467+458886063+458886392+458824643+458645041+458551570+458391877+458039593
2453+457646080+457268381+456909555+456694373+456716776+456785209+456609326
2440+456172748+455639075+455139194+454740033+454480609+454216761+453767382
2426+453348077+453156145+453011090+452750395+452361212+451910044+451420141
2413+450812340+450165616+449643991+449156347+448525672+447851650+447343533
2399+447019818+446924087+447441288+449564780+455293663+467501225+488756855
2386+519656543+558189092+600938833+645099357+689578184+734670647+781157374
2372+828912745+875537796+917004679+950642625+975432672+991062022+997205927
2359+990294576+965662574+928163297+885988269+846083861+824483241+832972880
2345+862219634+880499702+875350006+863138443+854095881+850534920+851883059
2332+853944895+851921370+845919603+838914404+831655805+821030907+804392759
2318+782309862+759716306+746060497+743272584+739754312+724425944+697167416
2305+666591020+642688908+626682658+612869746+598006336+581398262+562683075
2291+543483680+526070414+510806054+497394138+486661226+479328782+474594389
2278+470767557+466997155+463618385+460918013+458815606+457037903+455230595
2264+453459340+452064136+450981728+449796200+448493150+447425144+446539705
2251+445509540+444431980+443705386+443382612+443158346+442837078+442533224
2237+442473781+442713578+443022750+443128883+443225320+443662556+444227575
2224+444593272+444923247+445471323+446189727+446871751+447480634+448260930
2210+449332795+450486272+451452899+452234512+453194738+454408929+455572101
2197+456709481+457903998+459071406+460266912+461481620+462663618+463873290
2183+465083292+466349866+467899256+469624623+471174765+472537071+473957831
2170+475562946+477178886+478560111+479860102+481281709+482655404+484007167
2156+485473392+486769900+487717654+488481006+489175548+489759111+490164532
2143+490464149+490648786+490551785+490112524+489418970+488550474+487340284
2129+485763032+484255860+482989897+481644818+480022665+478202180+476295141
2116+474358968+472374131+470227059+467875111+465436423+462990580+460590533
2102+458408679+456410663+454417448+452552909+450791537+448934340+447261075
2089+445950259+444647445+443350890+442563864+442451189+442686845+443000865
2075+443462623+444385385+445944047+447800443+449465802+450970997+452674667
2062+454630983+456598548+458486243+460488495+462628978+464549242+466123576
2048+467610322+469089961+470471845+471647019+472491511+472974684+472966918
2035+472525540+472020058+471551806+470935486+469860608+468296252+466716787
2021+465317065+463729364+461707580+459530245+457479422+455421915+453194880
2008+450819070+448407821+446097009+443891435+441689061+439501184+437511733
1994+435689741+433774419+431970359+430480554+429070148+427817976+426837794
1981+425951272+425057878+424198325+423569203+423339289+423263279+422987994
1967+422756809+423095914+423944078+424913247+425862695+426857891+428029064
1954+429526399+431286218+433102844+434980609+436893389+438609108+440381634
1940+442733958+445312948+447609358+449592690+451321634+452865658+454300255
1927+455636816+456637753+457083273+457188606+456972717+456655403+456779467
1913+456886964+456272480+455081963+454044691+453417734+452815298+451848294
1900+450610289+449460436+448286863+447057894+445970356+444800595+443853453
1886+443573697+443587158+443685948+443890964+444084167+444199477+444391033
1873+444709053+444441016+443372069+443528985+445418139+447099406+447741141
1859+447801855+447699771+447465244+447065519+446492546+445657419+444395033
1846+442387557+439996546+438837280+438279604+436888824+435103308+433530997
1832+431179474+427273336+423941254+422156067+420152686+418107181+416403370
1819+414513792+412327609+409979003+407320991+404199432+401557562+399834878
1805+398282947+396354493+393772609+391215716+389554169+388083708+385669588
1792+383052639+382468700+382982065+382712334+381554033+380298190+379351801
1778+378916282+378364230+376502632+373726862+373467791+375569751+377129260
1765+377629893+377306202+377071416+377728895+378231953+378398305+378151353
1751+376196284+373276047+372405598+373033990+373232771+372526367+371453655
1738+370871646+369706309+366697636+365541618+366787837+367801317+368074720
1724+367561261+366684011+365308221+361827766+357869809+358309658+360631860
1711+361999342+361731564+359761270+357764360+357210542+355505131+351932663
1697+350985945+352650738+355042150+356550334+356563912+355837483+353749007
1684+350784717+352228068+355412460+357087702+356797474+356018284+355977761
1670+355883160+357323193+360502595+362423660+362881393+364385247+366703378
1657+367938065+366721616+364275161+366686787+369700990+371892751+376765704
1643+382821737+387362809+390227368+391707689+394649859+402205369+409990252
1630+416472744+422824818+429506773+436865150+445900699+454371089+461345178
1616+470601228+482431609+493225047+503228117+513867699+525773384+538517820
1603+552195608+567142465+583132383+599990138+618325038+637954280+657403968
1589+675784144+692446390+706500371+716933807+723179654+724954487+721316857
1576+713753510+709953976+708172507+703714623+700327804+700836721+702517941
1562+704125833+703580252+703338101+712755255+725136347+736781432+746691737
1549+755227547+762481816+768396653+772563815+777175790+790913634+806176911
1535+816300092+824493125+833913621+842758791+849739705+855419640+859965018
1522+864372495+870557440+877824981+886161470+894905355+901427853+904545552
1508+903269895+903950082+914950467+924887458+930113588+931452220+933142240
1495+938828482+944312342+945260708+943104553+945017004+949841009+953347280
1481+955548335+957665803+958245648+955096226+949416292+947699349+951966949
1468+955351414+953951975+950986014+951567835+952967463+949266718+945316716
1454+950832675+957546728+961532594+963739486+966167491+969902781+973816261
1441+976358823+977397083+978219220+981742999+986887518+990729459+994708548
1427+999717237+1002641875+1003230003+1003330722+1002755208+1005125040
1416+1011049620+1014811737+1015985358+1017059953+1018026580+1017097323
1404+1015528730+1015937351+1015525624+1012952282+1011320528+1011826762
1393+1014168920+1015364284+1012428915+1007476705+1006083007+1008570596
1381+1012387310+1016043248+1017769039+1016713646+1015743442+1017343192
1369+1019099951+1019173373+1017940827+1015812534+1015173858+1016977118
1358+1018106779+1017459066+1016979000+1017256309+1016577345+1015405231
1346+1014871605+1014306915+1012766091+1009765678+1007284772+1006950797
1335+1007282325+1007516804+1007824235+1008739467+1010392682+1011785721
1323+1012679585+1013335017+1013677087+1015012989+1018499115+1023225695
1312+1027996893+1032226746+1036315779+1040636938+1043382728+1043307235
1300+1042805519+1044537145+1048511716+1053286585+1056987235+1058820899
1288+1060059093+1061547486+1062597042+1063077297+1064080635+1065956846
1277+1067560361+1067873345+1066700383+1065106470+1064686648+1064741902
1265+1063119655+1060410389+1059200716+1059769171+1060951451+1062001855
1254+1062294695+1062611821+1064336482+1066845250+1068202614+1068034496
1242+1067178285+1066286491+1066512687+1067748339+1067968417+1066468163
1231+1064771742+1064504693+1065575240+1066429099+1066146707+1065785434
1219+1066258723+1067022028+1068381933+1070972218+1073309952+1073603922
1207+1072765500+1072896060+1073741823+1073668025+1072800799+1072292212
1196+1072424465+1072716835+1072985954+1073521275+1073658800+1072495440
1184+1071148713+1070927318+1070975325+1070743199+1070769179+1070417601
1173+1069628222+1069119728+1068624225+1068384851+1068016423+1066265218
1161+1064149632+1062887341+1060882924+1057511072+1054999668+1054101756
1150+1053286020+1051236420+1048051417+1044896254+1042191787+1039056109
1138+1035251350+1032534082+1030904587+1027346074+1021432790+1015767728
1126+1011272333+1006307132+999653605+992443860+986490193+981996963+977723716
1113+972927386+968574787+965841422+962341270+955068646+947198575+942646042
1099+939862695+936522000+932944284+929824984+926581432+923036379+920000950
1086+917471566+915807526+915697958+915495671+913859116+912527357+912445087
1072+911915414+910910287+911151450+911814506+911803116+912284594+913158973
1059+913084327+912403387+912220397+913173657+914386248+913651841+911901953
1045+911858653+913201049+914503817+915073778+914853418+914092466+913475440
1032+914284304+915829082+917077442+918670131+919877356+919554018+918655070
1018+918895104+920736486+922491740+922470560+921723728+921948041+922631335
1005+922218761+920783081+920241924+920863751+920900744+920505960+920734980
991+920622777+919388630+917744545+915878500+914062250+912829610+911336228
978+909069846+906845257+905126903+903587868+901811435+899592683+896917868
964+894529868+893047782+891916144+890918736+890729251+891504417+892530629
951+893228230+893877355+895142941+896869955+898483824+900277012+902643173
937+905305563+907851607+910517951+913774587+917006467+919557030+921543656
924+923059818+924255465+925348697+926668220+928039232+928407471+927803153
910+927347372+927408934+927947455+928079991+926383193+923735017+922239752
897+921767969+920481581+918250685+916698660+916172282+915782299+914800611
883+913686387+913641957+914040977+913862788+914152333+915739375+918356300
870+922359392+927797787+933778375+940052650+946773199+953396792+959063078
856+963176020+965085271+964906800+964141612+963218850+961526193+959437624
843+957133777+954647317+953603503+955441968+959625508+964255887+966311040
829+964781418+962883274+962896076+963585394+964744613+967812705+971971584
816+976073042+979963083+981976725+981876476+981604062+982548851+985739596
802+989692140+991109841+991128196+993598277+997760168+1001501012+1005743007
789+1009775939+1013466894+1018716463+1023214588+1024999492+1026306684
777+1028305453+1030912871+1033436230+1035263022+1037948851+1042214755
766+1045527211+1045634897+1043607418+1041785332+1040781240+1040124774
754+1040575471+1042406876+1044574139+1047152376+1048751090+1046907636
743+1043215740+1040915471+1040515039+1040012476+1038840550+1039341419
731+1040742647+1039790516+1039054038+1041847740+1045038767+1045303086
719+1042974860+1039533163+1035568664+1031425224+1029365364+1030672932
708+1033445549+1035357059+1034945049+1031747997+1027852685+1026440161
696+1027922624+1029704328+1030597910+1033019231+1036433348+1035414949
685+1030227223+1027148211+1027088344+1026545682+1027657458+1034525603
673+1042736239+1043303940+1035688775+1031048419+1032998240+1033972303
662+1034458959+1035525176+1035281378+1034088366+1033347088+1032308733
650+1030242378+1031176248+1039163041+1048840138+1049746521+1036828979
638+1021062574+1005678339+970647072+941637056+961439028+1001278299+1010170346
625+1005617249+1013155321+1023592428+1024022699+1016553154+1007118444+995271919
611+987217917+990297117+999307298+1008670092+1016873386+1016387954+1009080878
##END=
