##TITLE=Sample description
##JCAMP-DX=4.24
##DATA TYPE=INFRARED SPECTRUM
##DATE=24/8/2023
##SAMPLING PROCEDURE=Instrument type and / or accessory
##ORIGIN=Default
##XUNITS=1/CM
##YUNITS=ABSORBANCE
##RESOLUTION=4
##FIRSTX=4397.6552
##LASTX=599.8556
##DELTAX=-1.9287962
##MAXY=1.5284864
##MINY=0.5927639
##XFACTOR=1
##YFACTOR=1.4235139e-009
##NPOINTS=1970
##FIRSTY=0.83794194
##XYDATA=(X++(Y..Y))
4398+588643333+589952989+589816446+588831670+589527449+591562906+593569220
4384+593614986+591426572+589403300+588336540+587789950+588212307+588928729
4371+588280767+586809696+585713082+584661019+584353222+585883666+587971588
4357+588933963+588901847+587986620+586322061+585642864+586626383+587439109
4344+586835615+586241626+587013736+588193088+588540412+587615471+585453060
4330+583121446+582687029+584514887+586149090+586501480+586450648+585698050
4317+584226853+583322429+583107252+582823531+582691635+583180527+583988060
4303+584253568+583570476+582534952+582079809+582661739+583248317+582727519
4290+582305831+582698963+582521051+582180594+583009021+584083276+584137793
4276+583162397+582277149+582206010+582201865+581925471+581180075+579588246
4263+578611049+579488006+580738707+581247697+582093836+583764676+584794380
4249+584021934+582387355+581143730+580364209+579890935+580111179+581322521
4236+582730241+583143889+582317137+581083728+579879379+578524459+578187938
4222+579872847+581324908+580007464+577246667+575169716+574528956+575671294
4209+577194746+578211051+579344303+579706449+579278942+579440607+579400369
4195+578205524+577187461+577330159+577605254+576697774+575353908+575148110
4182+575799798+576850186+577617732+576424813+574878960+575648014+576594519
4168+575506739+574240043+573923369+573818648+573643625+573609123+573933167
4155+573801606+572791331+572623050+574171080+575585248+575471776+574432652
4141+572930596+572204042+573997774+576242882+575782421+574198297+573915455
4128+574209644+574329229+573919223+572524526+571522290+572073026+573054912
4114+573235755+572483199+571263566+570943668+572587710+574865645+575435893
4101+574187829+573090545+572768427+572578122+572770060+572784297+572151200
4087+572073989+572244573+571685421+571098844+570833002+570565527+570223269
4074+569998670+570377398+571015310+571176976+570984283+570574194+570145221
4060+570335610+570859213+570779155+570335108+570168459+570253040+570434678
4047+570500793+570706005+571110568+570826051+569896881+569347150+569542187
4033+569768587+569370179+568778075+568157037+567340333+566780386+566816856
4020+567542196+568072875+567268942+566555494+567672709+569267217+569705277
4006+569816404+569816236+568342360+566263734+565934666+567347745+568683571
3993+569029345+568873751+568557161+567818799+566685128+566001367+566168015
3979+566350491+566602474+567338575+567698418+567287115+566762214+567025502
3966+567925111+567695362+566040517+565319406+566332445+567310563+567289418
3952+566598245+565462230+564647117+565301987+566249288+565698092+565354494
3939+566335920+566713852+565755330+564381652+563964779+564829342+564817995
3925+562762356+561537322+562686610+563013292+561123548+560511219+562459206
3912+564519744+565600657+565704205+563877394+561086366+559403969+557917238
3898+558079532+560959035+563266447+561600757+559050951+560339672+562078930
3885+562383754+563303001+562070220+560241357+561562487+562987918+563198364
3871+561497209+558072163+557792252+558132751+556754718+557866407+561146242
3858+564057148+563348892+553649152+548664477+554854088+560724722+562309390
3844+560354159+558032971+556660089+555126881+556038632+559810123+562472480
3831+562432995+561156082+560359058+560946766+559474900+553920689+552734972
3817+554720685+555595716+558202551+561404966+562539265+560848159+559704984
3804+560216821+558080747+556696768+558622396+559985941+561338809+563055247
3790+563282986+562289166+561494027+561638274+561933594+560288923+558412285
3777+559606921+561861407+562542824+560724512+558742232+559092822+559817241
3763+560691601+561369920+559889553+559018417+560909543+562034839+558044444
3750+553662718+555493382+556732568+554416908+555855151+559908563+561179488
3736+557378813+552177579+550934288+553745331+557779188+559957259+559574093
3723+558706809+559073436+560614516+562237957+563089749+560523781+554328643
3709+552986996+556822132+560392011+560702069+558610254+558454073+560336950
3696+562149818+563032385+560896311+554313569+550841669+554422058+558990112
3682+560555100+559493239+557953541+554613411+551387422+551610848+549474816
3669+546895155+549279695+551910564+552131562+551741026+551280859+548994215
3655+546988194+547756954+546500516+538692363+534062214+536906544+540340383
3642+540976913+539122341+536722519+534360004+532089857+530528344+525928719
3628+517174814+515203588+518087027+519333792+515787654+509537162+506854204
3615+505969208+503695042+501191672+498333231+495610370+495273304+495606727
3601+493816888+490991023+489132264+487192484+485284902+485029821+484158811
3588+479697822+475832874+475467420+475863901+475374842+473469941+470487434
3574+468142296+467980170+468674232+465937469+459753050+457754440+459455679
3561+460108246+459417032+458981652+458397545+456912405+455534498+454951354
3547+454231331+452924397+451935895+451726788+451226717+449988493+449405559
3534+449409955+448463324+447161247+447058034+446993300+444986777+442583186
3520+442103045+442640173+442421604+441360119+440300855+439161992+437741292
3507+437090023+436901476+436092561+435382420+434937368+434038429+432922428
3493+431988652+431167385+430274852+429463927+429348613+429804300+429954200
3480+429596534+428839121+427858993+427019595+426057305+425093967+424814768
3466+424976183+424817741+423998735+422819089+422122055+422338363+422625810
3453+422063267+421061785+420141282+419492860+419518653+419717208+419425656
3439+419262316+419767035+420324679+420161715+419432858+418827815+418391975
3426+417980169+417728940+417337609+416883303+416727793+416544395+416408941
3412+416490674+416662850+416943389+416915251+416809735+417220411+417401254
3399+417245827+417735765+418431795+418338170+417716713+417516945+418211676
3385+419137622+419615585+420032500+420898486+422019763+422811301+423434558
3372+424542980+425786731+426513076+427194074+428242117+429083566+429730858
3358+430701062+431847420+432942610+433965740+434967851+436119651+437439441
3345+438613475+439441065+440122859+440575657+440916282+441669675+442242519
3331+442194911+442439064+443135136+443729292+444241255+444574301+444618768
3318+444806394+445126167+445054567+444701548+444513796+444801412+445421068
3304+445560877+445017175+444543106+444639453+444845795+444825823+445401179
3291+446797760+448137146+448974785+449186948+449032609+449391490+450511343
3277+451637476+452380067+453281728+454748109+456239404+457029938+457313073
3264+457364240+456838125+456319714+456860149+457830102+458158961+458391766
3250+459561614+460998350+461351327+461194309+461312219+461212020+461110608
3237+461364558+461799268+462394597+462281000+460966737+460324470+461552896
3223+463275908+464433990+464686558+463654342+462450914+462656671+464045967
3210+465197391+465495683+465567200+465753611+465684189+465520890+465735732
3196+465981979+466053495+466488372+467037266+467257258+468020324+469663990
3183+470869721+470955976+470680546+470564939+470645164+471271436+472417166
3169+473555233+474628818+475468676+475609699+475159874+474623375+474658421
3156+475436812+476228434+476574879+476793239+477276729+477762396+477615720
3142+476961353+476549463+476893898+477538593+477665799+477852169+478523452
3129+478779204+478831710+479263699+479436586+479353722+479649251+480175576
3115+480511511+480423581+480029109+479967014+480525161+481002077+480693442
3102+480027895+479946539+480352692+480373377+479871338+479442490+479404973
3088+479675881+480309439+481319589+482120841+482253239+482113891+482072647
3075+481961102+481823847+481866723+481980572+482257719+482751342+482893370
3061+482530554+482208185+481976762+481608628+481464925+481817148+482389489
3047+482952451+483549790+484029888+484048228+483875969+483875843+483800516
3034+483570935+483323474+483272140+483765595+484449776+484473768+484039895
3020+484161574+484797476+485037274+484589710+483986091+484063804+485126837
3007+486451568+487158358+487189595+486986643+486824098+486982833+487913218
2993+489544824+491011373+491777621+492311106+493231022+494378594+494954536
2980+494677640+494341287+494713315+495529641+495921642+495723799+495767890
2966+496166800+495956228+495046444+494443495+494498640+494596158+494722903
2953+495233903+495618702+495705669+496016356+496436327+496388133+495905522
2939+495570843+495645751+496103909+496736922+496875433+496092394+495136468
2926+494986694+495233066+494972081+494110449+493219382+493039628+493405836
2912+493677791+493973446+494459950+494884946+495135044+495327695+495533912
2899+495711154+495851131+495972139+496079037+496182209+496309875+496549421
2885+496826108+496909391+496785451+496690193+496879494+497292180+497545712
2872+497362147+497022234+497214634+497798281+497898521+497669065+497902122
2858+498381299+498501805+498280054+497803054+497058453+496358487+496250585
2845+496802032+497358588+497703735+498364592+499334294+499948968+500143670
2831+500244413+500188975+500300060+500899785+501466055+501766902+502034461
2818+502274008+502638625+503283362+503955022+504441862+504932052+505661327
2804+506326330+506485400+506269427+506093609+506340483+506927186+507367088
2791+507668353+508034687+508347425+508567334+508867679+509231291+509451953
2777+509682288+510033632+510168333+510207776+510641690+511213654+511449600
2764+511543937+511768619+512029185+512314372+512889812+513697052+514361804
2750+514762095+514843870+514717837+514651722+514728933+514960231+515230931
2737+515430741+515535336+515706967+516271311+516976176+517271286+517215430
2723+517222799+517487385+517997045+518716481+519427082+519866272+520187175
2710+520608528+520978295+521176933+521330727+521519735+521747181+522294190
2696+523261254+523936767+524080930+524374114+524930210+525287206+525281972
2683+525195089+525273933+525428229+525572309+525548317+525339169+525383092
2669+525856700+526477445+526953859+527189218+527367172+527647209+527938844
2656+528196186+528474338+528748471+529069667+529504712+529914717+530151040
2642+530142582+530034344+530187091+530633902+531117099+531546826+531920152
2629+532142783+532346195+532797318+533385822+534061335+534783115+535134710
2615+535151291+535337452+535927672+536644094+537048782+537336774+537914893
2602+538580022+538989358+539260769+539701047+540328743+540971721+541526393
2588+541886488+541917682+541836242+542095636+542601611+543080830+543664602
2575+544221284+544550268+545051261+545893296+546421589+546137826+545672257
2561+545863065+546397638+546776826+547151199+547437768+547571422+547925403
2548+548529316+548924750+548861692+548678336+548841551+549437760+550125959
2534+550503347+550742894+551152271+551494655+551682155+551970231+552228997
2521+552424118+552952620+553581488+553843980+554042451+554524517+555182277
2507+555631474+555675690+555611962+555682390+556085110+556866348+557434083
2494+557482487+557519459+557872645+558388209+558751025+558678588+558342946
2480+558001651+557683763+557658598+558003326+558404790+558655475+558596980
2467+558305136+558169807+558367273+558535304+558217164+557729822+557665298
2453+557796188+557765622+557780989+557863099+557723708+557348414+556988989
2440+556850269+556817777+556607289+556164456+555630218+555216779+555024002
2426+554885826+554686141+554473434+554315076+554301007+554342335+554090771
2413+553436864+552778644+552372281+551943224+551422803+551104412+550869430
2399+550422870+549869036+549466735+549292717+548992582+548291486+547549774
2386+546971738+546186355+544829384+542883029+540410099+537474280+534366159
2372+531147581+527814569+524605999+521412335+518653339+517146174+516315067
2359+515203756+514778928+516407896+519691165+523601251+526472755+526439761
2345+523594551+520428355+518518261+517699045+517909031+518536015+518801229
2332+518966663+519533687+520376853+521370463+522585867+523817935+524904626
2318+526060531+527269612+528200122+528907331+529676343+530454231+531216711
2305+532000839+532495969+532510792+532426714+532711440+533253634+533682105
2291+533936097+534090435+534255870+534552194+534928200+535228209+535370195
2278+535288755+535060598+535003820+535100041+535257017+535665724+536139542
2264+536528277+537059124+537707588+538253550+538522909+538615906+538831209
2251+539118029+539381777+539762724+540244414+540721916+541123380+541417485
2237+541706231+542094882+542584904+543149960+543790929+544365364+544722192
2224+544930252+545199276+545847824+546756937+547401214+547813732+548404790
2210+549166558+549858149+550639681+551580324+552150488+552303654+552669443
2197+553393150+554123095+554817199+555624272+556303721+556684793+557040868
2183+557598094+558372298+559199385+559958809+560758554+561658958+562576070
2170+563331306+563903731+564499060+565222473+566000404+566624833+567073528
2156+567624557+568407931+569172546+569590465+569792035+570013744+570145262
2143+570234198+570377817+570339295+570098450+569988914+569923469+569421891
2129+568600539+567989132+567462598+566656907+565752734+564905674+563924541
2116+562706081+561336674+559921836+558629766+557686736+556948625+555969084
2102+554582007+552985531+551516218+550280465+549158351+548161056+547077924
2089+545544590+543848753+542527917+541639279+540803021+539492904+537816370
2075+536485945+535618033+534715493+533471993+531872461+530259362+529173969
2062+528499335+527635150+526471834+525235578+524077999+523000395+521845746
2048+520673763+519559647+518421329+517378352+516427869+515419938+514455052
2035+513646639+512876120+511957585+510928258+509924724+508923200+507982725
2021+507238501+506517097+505585205+504560107+503703123+503102644+502519123
2008+501709329+500904475+500236918+499369383+498288135+497395100+496802535
1994+496216962+495347794+494296359+493321172+492576906+492150277+491822842
1981+491363428+490756208+489999925+489168190+488430582+487887927+487277441
1967+486390435+485677657+485357675+485025676+484492861+483753662+482848149
1954+482160117+481851650+481468191+480635911+479517189+478428446+477736938
1940+477691550+477702018+477342593+476953900+476655398+476287222+475811855
1927+475185792+474243893+473194845+472595957+472049953+471375612+471344795
1913+471531249+471033020+470204886+469971410+470235284+470299976+470113606
1900+469842614+469204911+468201167+467499066+467151659+466496328+465967491
1886+466211560+466576135+466634671+466597531+466547620+466363386+466121746
1873+465952417+465014328+462851540+461895070+463099001+464290412+464384832
1859+463919012+463613141+463508713+463393651+463236842+462906099+462265465
1846+460984030+459554412+459890054+461135228+461566379+461460402+461472252
1832+460819894+458872451+457574435+457869126+458276075+458716731+459326715
1819+459577860+459408657+458972901+458050807+456736042+456056593+456219767
1805+456412208+456004505+454732575+453591074+453460603+453244839+451795709
1792+450304121+451102736+452730029+453153517+452390451+451325408+450570842
1778+450413531+450131610+448485684+445713666+445297421+447408330+449045464
1765+449364148+448402192+447310895+447393089+447656461+447973009+448100759
1751+446402494+443775225+443335742+444231457+444486622+443758811+443033639
1738+443308944+443069523+440967742+440657139+442673837+444523217+445549320
1724+445562384+445106948+444029469+440507616+436705140+438105951+441430924
1711+443425556+443471657+441614531+439663236+439246991+437782452+434618768
1697+434214582+436383944+439096421+440761776+440791253+439927235+437337358
1684+433447915+434701799+438160133+439849187+439087586+437336981+436143811
1670+434670730+434666250+436779337+437654493+436759532+436771842+437528376
1657+437062221+433571185+427422943+427610569+429444164+429018079+430751099
1643+434790106+437307755+437610318+435849329+434412886+438202256+443455536
1630+446920569+449103623+451312344+453903854+457766499+462025877+464541557
1616+467030441+472444131+478052691+481999247+485122190+488597900+492176908
1603+495687874+499480258+503198153+506285129+509122006+512391709+515971135
1589+519486414+522903211+526328341+529652602+532664376+534922924+535915153
1576+537925152+543089707+547767003+550965566+554967434+559783074+564014690
1562+567180510+567676310+567355658+574683922+583932999+591485569+597153336
1549+602378772+607226067+610239307+610555855+610495309+618380422+629354814
1535+636960267+643348726+650696963+657326517+662499279+666872798+670083043
1522+673456587+679976020+688157458+696601429+704205250+709611445+712651818
1508+713481376+717521556+727932734+736315657+741573963+745389544+750713839
1495+758009359+763856545+766748023+769277647+776045252+784349624+790449798
1481+794554209+798024769+800709652+801855173+803006471+808675954+817621547
1468+824904673+829364908+833634963+839787057+845002653+846794334+851022517
1454+861188831+870607655+877530100+882470769+887992278+895319872+902581142
1441+908633498+913006975+916393960+922232186+930087696+936655490+942204048
1427+948249203+953980070+959341044+963664694+965375898+967713164+973696516
1414+980388585+985916040+990424846+993268171+993291871+992631390+993154867
1400+991866565+989118707+988588697+989162504+991122257+994037937+993366737
1387+989122475+988636850+993001366+997193372+999246582+999679534+998913369
1373+999770395+1003137616+1005195516+1005048882+1004488139+1003134936
1362+1002363161+1004491656+1007229884+1007942035+1006667969+1005798633
1350+1005917548+1005424302+1004771693+1004929548+1004188674+1001169824
1339+998616668+998662978+999747198+1000447540+1000166248+999921886+1000906368
1325+1002725098+1004328860+1005802485+1008600171+1012257813+1015123497
1314+1017370154+1020056964+1022996761+1025460312+1028414764+1031418373
1302+1033477613+1036287944+1039888306+1042559120+1044016499+1045824008
1290+1050187771+1055692280+1058949547+1060182495+1061196706+1062581396
1279+1063810241+1064339078+1064698084+1064525238+1063328049+1061990841
1267+1060530950+1059026842+1058610639+1059133949+1059449828+1059408794
1256+1059414656+1060314725+1062231602+1062577377+1060285080+1057641984
1244+1056870963+1058593137+1060644003+1061080136+1060725066+1060700194
1233+1061575559+1063071712+1063661597+1062652327+1061949974+1062497067
1221+1062246592+1061103668+1061349788+1062875669+1063809403+1064163552
1209+1065123833+1066547464+1067667107+1068737761+1069741253+1069308386
1198+1067960878+1068077783+1069569915+1071218228+1072942580+1073741823
1186+1072895768+1071276932+1069305455+1068096039+1068581078+1068999709
1175+1067944715+1066269437+1065560804+1066474021+1067395864+1066335510
1163+1064273339+1063057810+1062014205+1061066737+1061571959+1062225824
1151+1061253819+1059646038+1058402622+1057176122+1055014967+1051850320
1140+1049768637+1049428557+1048735081+1046647285+1043597282+1039810173
1128+1035598069+1032332679+1031212198+1030572904+1027690890+1023090637
1117+1019400586+1017151836+1014505223+1010425851+1006230161+1003319171
1105+1001338901+999044594+995955902+993012336+990258532+986589501+983021632
1092+981318635+980935594+980967082+981354560+981228108+979782537+977083166
1078+973680856+970516125+967480359+964184068+961316122+959900866+960126134
1065+959600647+955878020+950984165+947934245+945942335+943408859+940491253
1051+937985496+936602648+935271135+933187023+932083123+932139734+931296274
1038+928769497+925856330+924206259+923823302+923177393+921367791+919488431
1024+918487283+917904935+917711070+917509919+916271947+914583186+913294298
1011+912284274+911850736+912442129+913393533+912825169+910525085+909183104
997+910026563+911556798+912847613+913623073+913160393+911903913+910747339
984+909762689+909517238+909395141+908030214+906357616+905165367+903633708
970+901378007+898934471+896645942+894420808+892583152+891292924+890466548
957+890095734+889842830+889852880+890527848+891612571+892989975+894405818
943+895054575+895847286+898615577+902739584+906405349+908889752+910804368
930+913401740+916463551+918760118+920709487+923346888+926185273+928559721
916+930685369+932548064+933586142+933675915+933658915+934065320+934309012
903+933591753+931942603+930509844+930154271+930282398+930006884+929246079
889+928221232+927063653+926101362+925503354+924911961+924525403+925427650
876+927314044+928273153+928200296+928652425+929505514+930097829+931441820
862+934208185+937634948+941632000+947055363+953191546+957743814+959851374
849+960403575+960916333+963753880+969010678+973359032+975751988+977326272
835+978455462+980475008+983278137+985201545+986607339+988549506+992139651
822+997289342+1001548007+1003135858+1003149005+1004785929+1008363010+1010824468
808+1011270315+1010605731+1010523412+1012661538+1016724412+1021876866
797+1025758855+1026119955+1024441160+1023929909+1026606669+1032093174
785+1038543980+1042882117+1043613779+1044368471+1047877469+1052313670
773+1055121321+1055009524+1052955811+1051391325+1051746060+1053559514
762+1054052007+1051432024+1048763638+1049124151+1050448128+1049653993
750+1048392237+1048576388+1048508054+1048406558+1048674870+1047150999
739+1044118750+1041956673+1041765572+1042208824+1041991092+1040505240
727+1037656639+1037235831+1040106959+1041401374+1040302917+1038594560
716+1036227733+1033938618+1031014732+1027136092+1026288362+1030242957
704+1035849466+1040242036+1042537598+1042781877+1040912147+1037427518
692+1034300639+1032559120+1030788207+1028549088+1028270307+1031427334
681+1036701885+1040831168+1043298152+1046168359+1044723541+1035453780
669+1027518965+1033255192+1042662878+1043793911+1041348113+1038290908
658+1036567813+1038119570+1036903873+1035555611+1042896605+1050921192
646+1054173936+1056775663+1050630017+1037170595+1029488768+1020486314
635+1009718809+1016338273+1032082288+1031248794+1024177872+1030042979
623+1031554791+1008428246+981988578+980845403+1011950057+1040797587+1030149500
609+1018345592+1031739193+1043055298+1047598857+1057081493+1065226502
##END=
