##TITLE=Sample description
##JCAMP-DX=4.24
##DATA TYPE=INFRARED SPECTRUM
##DATE=24/8/2023
##SAMPLING PROCEDURE=Instrument type and / or accessory
##ORIGIN=Default
##XUNITS=1/CM
##YUNITS=ABSORBANCE
##RESOLUTION=4
##FIRSTX=4397.6552
##LASTX=599.8556
##DELTAX=-1.9287962
##MAXY=1.4312642
##MINY=0.61032754
##XFACTOR=1
##YFACTOR=1.3329686e-009
##NPOINTS=1970
##FIRSTY=0.74397552
##XYDATA=(X++(Y..Y))
4398+558134307+556986007+556384760+557274871+557811594+556888482+556295150
4384+556475801+556090978+555097305+554196909+554380557+555745415+556447720
4371+555796391+555162366+555077854+555052724+555368953+556115079+556430012
4357+556173120+555236326+553331437+552107657+552614107+553283278+553617975
4344+554198788+554472895+554490736+554444277+553314713+551565166+550832097
4330+550609189+550152418+550627701+552207105+553147074+552869479+552451655
4317+552188369+551798537+551489954+551370787+551089614+550185016+549070611
4303+548467396+547913636+546777097+546122593+547187319+548653413+548780137
4290+547908315+546966065+546661909+547079554+547293563+546947687+546835317
4276+547216563+547411121+547339442+547565345+547891055+548022877+548335931
4263+548334858+547506008+546906191+547199929+548064283+549005773+548999647
4249+548050690+547613549+547638947+546880480+545577464+544700141+544305346
4236+544191902+544334277+544301680+544230179+544494225+544485729+544261525
4222+544653547+546094601+548122906+549022586+547662334+544917191+542991286
4209+542929757+543278584+542948984+542401306+541915917+542112935+543677851
4195+544745707+543452394+541666985+541185263+541264543+541101734+540772447
4182+540565413+540308253+540171289+540670585+540652296+539454585+538837285
4168+539285784+539536505+538968347+537961528+537737726+538776516+540517120
4155+542145398+542456977+540978631+538676800+537321467+537302731+537118458
4141+536624886+537072579+538240375+538632800+537706738+536476787+535770458
4128+535526623+535923564+536521771+536182692+535643644+535890475+536307493
4114+536749240+537029518+536329672+534774728+533498497+533237670+533769877
4101+534662134+535065962+534278831+532905075+532004321+531973736+532181440
4087+531907735+531331529+531046064+531228370+531471176+531573977+531661531
4074+531473591+530641476+529623523+529398871+530000387+530330612+529886764
4060+529649950+529944045+529707186+529186292+529407456+529679328+529197650
4047+528571764+528318450+528390487+528533443+528357442+528133819+528019972
4033+527322139+526532862+526670273+526703318+525772784+525335822+526539256
4020+528432698+529180748+528242880+527232976+527476363+527797646+526878872
4006+525820719+525714028+525657775+524780051+523792012+523917082+525239996
3993+526620728+526589472+524944604+523560921+523746447+524775892+525455660
3979+525702402+525997212+525756776+524824230+523994708+523257302+522751612
3966+523009040+523606174+523533421+523096996+523110992+523006178+522848332
3952+523868074+525583860+525778642+524748839+523755658+522133283+521291241
3939+522202637+523327326+524213771+523744300+521478063+520588399+521660101
3925+522305259+521973469+521899196+521785707+520042063+517432543+516392545
3912+516581245+517516877+520072917+522450138+521757402+519757716+518171291
3898+517332782+519175651+522042197+520765295+516478802+516079088+517394490
3885+516967634+516930028+516007677+514741060+516296898+517815846+517617622
3871+516182426+513624776+513873798+515392299+514281293+513415507+515252339
3858+518696835+520671347+513975035+505922092+507573444+512043361+515199843
3844+515916546+514896223+512896939+509180482+506911248+508158728+509628399
3831+510309151+511299202+511831721+512251065+511668240+507563964+506169370
3817+507551488+507135811+508415351+511511154+513179095+511694712+510004637
3804+509653350+507074953+505768136+507150254+507330101+507744884+509301527
3790+510758320+511868925+511814908+510800845+510699519+510172902+508865728
3777+509752396+511729277+512377387+510870333+508952923+508521685+508325607
3763+509133262+510625738+509820006+508627795+510402070+512702917+510903199
3750+508666117+512870691+517538430+517802521+519930855+525491209+530671033
3736+531292090+526310133+523791163+527108040+532195168+534517166+532734440
3723+529475827+526329003+524287283+524644204+527390152+530232595+530901542
3709+532851505+538365132+545518126+552319520+558535228+565610193+573329467
3696+580573323+586875333+590900999+590101080+587709728+588398037+589811948
3682+589847854+588733271+587718984+583858855+578100992+578074296+577938897
3669+575126726+575633042+577637021+578612450+580521185+584710466+588459029
3655+591796744+598436894+606172042+607341223+603970419+605010730+607420952
3642+607271422+604595902+601818654+600091688+599798040+601451672+601046592
3628+593508149+587867843+587053256+587404051+585671630+580624925+577848169
3615+577679948+577372036+577653924+577159547+575453911+575167685+575515976
3601+574771594+573945426+574093882+573319138+571124312+570902119+572629890
3588+571307422+566916563+564726298+564172136+563215220+561966086+560968076
3574+560589021+562699468+568157156+572097594+567635547+561436026+560201246
3561+560018270+558567245+558655469+560386101+560868449+561039442+563365688
3547+565919000+565261813+562731261+561987639+563828361+566408592+567416261
3534+567223894+567226264+567282159+568278514+570996201+572613703+570987526
3520+567908000+565710178+565533640+567222374+569678876+571147385+570974648
3507+571944129+574753931+575659111+573684152+571381427+570104123+570407563
3493+571894584+573268296+573804035+573926601+574537060+575552956+576027300
3480+575821653+575844458+576354932+576245334+575033762+574043353+574203167
3466+575281889+576687707+577438349+577071770+576399648+576434303+577002818
3453+577590338+578536254+579442284+579718135+579653968+579012164+578370761
3439+578611332+579097794+579545890+580034141+580438640+580868358+580750308
3426+580093479+580202094+580824626+580500884+579661481+579504037+580250878
3412+581691708+583004919+583288953+582857849+582583608+582880162+583799831
3399+584992533+585935945+585720683+583545175+581480203+581768083+582449908
3385+582071210+582011157+582068259+581494199+581350259+582327431+583677846
3372+584425359+583988263+582474233+581357056+581817538+582863752+583763924
3358+585012610+585844188+585091489+583267848+581559081+580442530+579818925
3345+579794778+580195654+580362131+580359180+580393253+580096117+579556041
3331+578878330+578034812+577927629+578645584+578604177+577130035+575405439
3318+574984932+576069288+577360231+577302324+575746083+574555035+574927830
3304+575527289+574714581+573226844+572896574+573412907+572763724+570503076
3291+568670581+568999913+570705772+571427082+570111769+567991081+566469316
3277+565924813+565774032+565136877+563599193+562402646+563102357+564544931
3264+565057641+563901248+561378387+559826573+560136498+560124782+559016906
3250+559225326+560975991+562009639+561736963+560500439+559134955+558465561
3237+558731485+559592486+560063388+559628214+558027749+555857115+554427866
3223+553841241+553340022+552987260+552695490+551748992+551208066+552224455
3210+553484856+553206367+551883453+551071549+550811796+550554188+549919225
3196+549074054+549102672+549902233+549489150+548225573+548791674+550467529
3183+550579542+549008903+548483583+550317642+551358401+549412104+547129457
3169+548118747+551164647+551827021+549585601+548491900+550305524+550965484
3156+547791115+544953724+547508378+552306284+551442869+546268456+546222175
3142+553494113+557310599+551400165+545297051+547805737+554507281+554459391
3129+547654911+544977423+551383486+557160578+552182288+543978653+544760552
3115+554250926+558349971+549606752+540866171+543926515+553083041+552573908
3102+542414050+538012772+545232214+553163976+547850587+536085480+534026008
3088+544388517+552791942+545941315+534536706+532926404+539920434+543045168
3075+536026724+529009308+531021738+539658757+542536303+534792346+528296315
3061+530828298+537920702+538696162+531435090+525467197+525154858+527894098
3047+528108241+524941698+522829909+523263875+524633294+524651090+522809384
3034+521308233+521848980+523615027+524235592+523172744+522891348+529868118
3020+559682991+617448987+662284003+650442477+610491177+578446152+559414339
3007+547862168+539931121+534869302+532431983+530895864+528208717+525234273
2993+524196242+526918758+530811351+529373204+524182559+522474016+526794404
2980+533064844+533073251+526752058+522458276+524447008+531087962+534791765
2966+530738330+525214061+525293521+533604831+542170573+538281066+528093485
2953+524335397+529769922+538775667+539417695+531410407+525940513+528162168
2939+536255176+540000386+533036226+525011410+524372288+531799032+540568678
2926+538705284+528564073+522566265+525201451+532213233+533083759+525199126
2912+518675193+519495011+525422928+529523136+526693883+521373652+519529129
2899+522294662+527130845+527959204+523240533+518754519+518748303+522808758
2885+526111506+524460423+520840820+519540576+520796506+522552671+522300162
2872+520172588+518459797+518504826+520277044+521668195+520791275+519319099
2858+519385636+520669022+521337477+520083157+517947758+516434488+515883636
2845+516383378+517057736+516727421+515924103+515778509+516231032+516709043
2831+517000232+517110366+517234900+517472564+517800017+518116470+518039246
2818+517548849+517183074+517142383+517024020+516796194+516869930+516919743
2804+516543282+516226829+516248247+516380248+516779247+517523048+517913997
2791+517581178+517197875+517211692+517300677+517332738+517616593+518191995
2777+518557009+518473391+518461452+518781929+518985922+518747632+518242747
2764+518037144+518418659+518860763+518861568+518746201+519051699+519496576
2750+519499035+519245542+519252517+519734821+520397687+520716555+520767128
2737+520856068+520891214+520887905+520963162+521004390+521040341+521286814
2723+521817053+522385748+522487297+522092547+521895708+522132254+522325471
2710+522418479+522522980+522395764+522121746+522078953+522376134+522731981
2696+522912365+522969019+522975727+523182403+523539324+523683487+523800911
2683+524056819+524276909+524487699+524789217+525106341+525343021+525565974
2669+525699227+525640470+525710316+526065448+526485284+526998397+527501404
2656+527574872+527343424+527273533+527376558+527521213+527936354+528686505
2642+529312704+529608230+529852959+530240644+530714675+531027372+531066991
2629+531164516+531520095+531875004+532157160+532495613+532774013+533007429
2615+533486603+534155639+534639374+534915583+535255735+535769876+536313754
2602+536654577+536884550+537302284+537882739+538476295+539053754+539524208
2588+539858011+540093349+540135829+540148797+540531250+541173010+541637383
2575+541841153+542083154+542592108+543220364+543828721+544435514+544975501
2561+545393950+545609838+545703696+545938409+546254773+546644917+547331169
2548+548120223+548639685+548750446+548595282+548673580+549227116+549961303
2534+550564920+550836837+550777499+550619250+550629087+551013195+551578894
2521+551966758+552158186+552243459+552372911+552623811+552829727+552876454
2507+552782283+552869971+553248042+553289762+552918711+553009573+553871245
2494+554655022+554700319+554456529+554390618+554495521+554614331+554364459
2480+553915245+553934697+554358825+554753128+555084606+555322583+555337115
2467+555278270+555359876+555513966+555545312+555369624+555103163+554955467
2453+554894251+554645006+554253296+554170214+554503302+554795027+554742799
2440+554511127+554158141+553661975+553350217+553222330+552912406+552548778
2426+552330878+552038750+551486645+550861743+550503615+550401395+550144995
2413+549549695+548980240+548658555+548408997+548113605+547766611+547511061
2399+547360279+547225372+547564049+549264811+553623386+562354129+576582625
2386+596117758+619618459+644952729+669717946+692440952+714006000+736175202
2372+758742686+781148300+803225432+822594670+836394476+844264621+847248411
2359+845060739+835124103+817385736+795456524+773892281+761258392+764112865
2345+776728956+781798288+774811099+765316969+757925551+754955355+758559083
2332+764595705+765094106+760712592+758648157+759857002+758458473+750856802
2318+738909568+727508223+722795768+724804129+725080696+717277223+702428744
2305+685472902+671734536+662187149+653856656+644716809+634334982+622766803
2291+611154714+600791042+591599190+583300356+576502226+571491249+567616230
2278+564180274+561099495+558513139+556327837+554518415+553230111+552278829
2264+551150875+549762452+548586026+547869770+547426771+547071460+546679304
2251+546243549+545886047+545512715+545129412+544985383+545053708+545193490
2237+545379910+545542809+545569638+545500329+545668505+546283659+547035419
2224+547687509+548341834+548875829+549480564+550537152+551329783+551272591
2210+551136119+551617662+552530489+553383620+554030567+554788364+555773541
2197+556733498+557726097+558861072+559765447+560244933+560599306+561145687
2183+562048765+563293874+564584862+565702755+566737968+567630270+568265323
2170+568798692+569454358+570352742+571434102+572474905+573259219+573902812
2156+574488275+574873635+575275093+575759274+576093122+576205582+575941446
2143+575434906+575166925+575139783+574744898+573744250+572696293+571756860
2129+570519487+569158743+567996939+566691285+564998169+563127845+561347355
2116+559883586+558563444+557054154+555232436+553150204+551245270+549653122
2102+547918287+545912787+543932596+542154610+540631190+539444390+538358022
2089+536910619+535180210+533694397+532596849+531619632+530638748+529644673
2075+528717716+527994619+527410184+527014942+526958421+526886742+526419508
2062+525941675+525748056+525685857+525848533+526240913+526762477+527490807
2048+528315141+529149760+530252807+531663185+532875294+533787808+534855306
2035+536147411+537415594+538474283+539320170+540080382+540758809+541224568
2021+541550232+541838246+541556895+540508937+539410049+538408506+537232036
2008+535902950+534416689+532798607+531055543+529112690+527033141+525233647
1994+524022030+522701619+520708640+518585627+516683331+514989679+513380405
1981+511809810+510480993+509356706+508218825+507035961+506119065+505571655
1967+504752508+503417967+502288493+501698112+501435362+501231056+500778667
1954+500181355+499800421+499663189+499635286+499828279+500398494+500836216
1940+500853387+501029567+501482582+501966585+502439409+502937139+503481464
1927+504242033+505402361+506539482+507170421+507555960+507971905+508372021
1913+508674076+508883569+508919252+508776207+508913976+509454634+509740233
1900+509554931+509436792+509364040+508979261+508502457+507995292+507585740
1886+507567004+507530919+507500512+507809364+507961710+507811242+508056150
1873+509105896+510220569+509998600+509192197+509801762+511297279+512408464
1859+512739092+512688519+512812694+513296831+514219898+515574829+516663746
1846+516711055+515792281+514768113+513930900+513193315+512940134+513057692
1832+512212296+509428699+506928911+506213147+504979574+502797984+501182584
1819+500161635+498525263+496192132+494060668+491698694+489015885+486810417
1805+485719309+485740415+484479610+480984317+478365094+477111891+475393377
1792+472900342+470938261+470126268+469762238+468884602+467527570+466146659
1778+464840647+463630148+462015732+459827077+459390696+460516012+460500674
1765+459734202+459112967+458732615+458897526+458740351+458522272+459480887
1751+460465438+459718730+458832197+459120211+459346248+458717322+457870898
1738+457946960+458570118+458341665+457964935+458107623+457978037+458032232
1724+458406056+458866717+459435009+459400667+458506621+458456048+459059084
1711+459574299+459867097+459818446+460080346+461034759+460755375+458813058
1697+458462442+459612083+461676921+464306384+466609690+467856990+467696059
1684+467648615+470348550+473042135+474322033+474662186+475053716+476043141
1670+477150928+479106972+482030218+484309601+485963367+488454882+491446587
1657+493763979+494132839+492422060+494471024+498036699+500112940+502189269
1643+505588289+508831654+511066635+511821526+511899286+514674031+518721026
1630+522039514+524960926+527994619+530889156+534337096+538261347+541407231
1616+544500307+549128204+554025917+558156084+561926378+566026631+570266619
1603+574477632+578746195+583041094+587491470+592428398+597767321+603142284
1589+608571487+614017906+619459540+624887580+629915192+634046074+637148451
1576+640531418+645329056+649859161+653862112+658980943+665294489+671619303
1562+676934750+680351030+684568885+694010205+704533065+714592804+723504378
1549+731466369+738959783+745957077+750501938+752841732+762057820+774638228
1535+783949024+790814496+797231648+803742435+810058530+815482457+819141544
1522+823099421+830464099+839447486+847516616+854247941+860473262+865935645
1508+868146747+868252455+874476436+882296946+887889630+890140976+891311366
1495+895267723+900301818+903331397+904040946+906267878+909965241+912867560
1481+914759482+915973781+916176523+914320463+910110657+908543550+912872925
1468+916884819+916494451+915766301+919375842+922635260+919760934+916264523
1454+920839835+926948717+931332646+933514147+936324887+941568878+946228792
1441+948863263+950087847+950383776+953252736+958899616+963718628+968081809
1427+972989627+976485859+978162341+979304469+979734635+980788584+984251369
1414+987847675+990298633+992588346+994806692+995167459+994122095+994209290
1400+994077379+992894916+992070627+991253939+992483174+995746438+996004537
1387+990652155+986266617+987638048+991851252+995505867+997211324+996566345
1373+995738478+997550985+1000127773+1001103380+1000503564+998021573+995358752
1360+995562298+997422651+998501194+997653295+995660405+994680773+995430298
1346+995813869+995223890+993935898+990452097+987045475+987116752+989015113
1333+990526415+990884677+991357948+993412546+995727925+996483174+996154871
1319+996202985+997629506+1000837411+1005203006+1009045070+1012674555+1019098146
1306+1026565313+1029652307+1029566990+1030575061+1032989441+1035845970
1294+1038851045+1041003928+1042029170+1043613090+1046055104+1048262809
1283+1050438049+1053150684+1056120701+1058116274+1058407910+1058058591
1271+1058148380+1057967103+1056790900+1055270298+1053779476+1052803153
1260+1053508767+1055454527+1056398028+1055510332+1054672538+1055678731
1248+1057956192+1059472055+1059903293+1060377458+1060560077+1060451597
1236+1060559720+1060188222+1059992814+1060638688+1060884535+1061345822
1225+1063045109+1064389800+1064790631+1065258536+1065775182+1065803174
1213+1065846101+1067059328+1068566605+1068650760+1068552743+1069996703
1202+1071925828+1072928802+1073006786+1072691540+1072700483+1073189137
1190+1073741823+1073712400+1072896785+1072552832+1072869062+1072435588
1178+1071664331+1071492533+1070988140+1070266160+1070541877+1070655813
1167+1070055012+1070078354+1069475586+1067374663+1066370616+1066492958
1155+1064865575+1061770353+1059336745+1058946108+1060540850+1061182967
1144+1059558356+1057129667+1054074510+1050812857+1047910449+1044875325
1132+1041626818+1037819632+1032714082+1026738184+1021946269+1019229432
1121+1016300552+1011967331+1007837656+1004092447+999698591+994761440+989420684
1107+984133051+980118295+977218392+974583295+971987637+969139961+966430278
1094+963835873+960492836+957052141+954806250+954235588+953876520+951355359
1080+947787850+945550365+944588798+944566083+945078704+945132899+944929264
1067+944814970+943929510+942381004+941234672+940365131+938667543+936026275
1053+934178533+933408260+932238944+931137149+930728179+930377071+930035890
1040+929815173+929792726+930091785+930620861+931366182+931520631+930180411
1026+928894298+929730124+932061154+933917125+933875181+932471555+932620190
1013+934829593+935633761+934598413+934906057+936799500+937775733+936575206
999+934837016+934667365+935628753+936402066+936459034+936149065+936053820
986+935745729+935003895+934122370+932518596+929898613+927382907+925599376
972+923978252+922274673+920655517+919287126+918128095+917053755+916338483
959+915987912+915671145+915281493+915149671+915857789+916987487+917580596
945+917872947+918635797+920064822+921523359+922612902+925068421+929757311
932+934266175+937273397+939476629+941162770+942749820+944683506+946836747
918+948195210+948346439+949085589+950833437+951322091+950376174+950154921
905+950727908+950736046+950294434+949893334+949275095+948246723+946752949
891+945047134+944126527+944238048+944605254+945029963+945133167+944955646
878+945662423+947162098+948868360+950851502+952779018+954802762+957762763
864+961792722+966062805+970172000+975347218+981455563+984924072+984948308
851+985160439+986417040+987333623+987989603+988333377+988523419+989530238
837+991823170+994786123+995508282+991549600+986790685+987103069+992357344
824+999298028+1005365324+1007738835+1006757682+1006063247+1006514608+1007878526
810+1011740176+1016619197+1019625971+1021540608+1022579354+1022398792
799+1022837006+1023485384+1023173090+1024051396+1027795264+1033435614
787+1038532222+1040673658+1040937212+1041796290+1042329481+1041730111
775+1041800225+1043666123+1047153680+1051530991+1056371020+1060055684
764+1058401024+1052102994+1047524195+1046952817+1047681773+1047992905
752+1048409476+1048482273+1047618724+1046499221+1045689867+1046915882
741+1049742899+1051266453+1052037888+1050569156+1044302338+1038441628
729+1036712471+1036264956+1035541903+1035112096+1036370575+1039620066
718+1041601777+1040222387+1037372565+1035457122+1033561623+1030750793
706+1029454753+1029705429+1028761123+1026966950+1027528042+1029227150
694+1027479302+1024799311+1023678467+1022516395+1023519815+1026551541
683+1029644527+1032800651+1032223818+1027749117+1026903722+1032793765
671+1039053965+1035694384+1025083255+1024347235+1029606161+1033999032
660+1036719715+1034667353+1031698498+1034048667+1036247249+1033904593
648+1033082092+1036115338+1039338715+1044239199+1047514536+1041270791
637+1030017277+1020098079+1010909179+1001949759+999887292+1009659464+1018093653
623+1016704246+1011789452+999122295+985898249+986678448+993109910+1000620272
609+1007866811+1002070760+994403446+1001098819+1013092915+1018647770
##END=
