##TITLE=Sample description
##JCAMP-DX=4.24
##DATA TYPE=INFRARED SPECTRUM
##DATE=24/8/2023
##SAMPLING PROCEDURE=Instrument type and / or accessory
##ORIGIN=Default
##XUNITS=1/CM
##YUNITS=ABSORBANCE
##RESOLUTION=4
##FIRSTX=4397.6552
##LASTX=599.8556
##DELTAX=-1.9287962
##MAXY=1.2837731
##MINY=0.34169209
##XFACTOR=1
##YFACTOR=1.1956068e-009
##NPOINTS=1970
##FIRSTY=0.48621273
##XYDATA=(X++(Y..Y))
4398+406666067+406733942+406674817+407121051+406908303+406091187+406444919
4384+407244811+406690171+405640042+405467700+405570098+404835065+403446059
4371+402766437+403414402+404025401+403650332+403481280+403782667+403180243
4357+402302231+402826710+404139988+404597789+404112519+403714543+403160177
4344+402319480+402745000+403693704+402776358+400850236+400376009+401397124
4330+402104439+402364298+403012088+403158307+402397275+401736000+401333910
4317+400986833+401174505+401629638+401445755+400894331+400548550+400151794
4303+399735721+399869701+400256062+400302201+400202919+399495978+398399759
4290+398676767+399676471+399205633+397796163+397058463+396936148+397012025
4276+397245162+397432710+397696332+398026559+397992485+397673001+397446793
4263+397331857+397147425+397007513+397405490+398442707+399409433+399274505
4249+397627710+395785515+395555094+396759394+397733049+397521573+396785218
4236+396471418+396366228+396101309+396106618+396397386+396431087+396328215
4222+396074812+395595600+395730303+396269364+395918722+395077352+395078125
4209+395503471+395227485+394787008+395089367+395554870+395499059+395459900
4195+395685310+395616339+395350821+395246504+395278834+395335691+395044051
4182+394355181+393819884+393655170+393648439+393544795+393285484+393241988
4168+393323896+393004388+392677078+393003366+393718657+394054218+393737053
4155+393323522+393399149+393518547+392783514+391862105+392114237+392841044
4141+392910540+393102150+393452043+392725734+391660998+391712845+392486913
4128+392873474+392636896+392078218+391243254+390737894+391148184+391729496
4114+391792361+391366740+390525271+389803349+389946975+390440196+390390493
4101+390068692+389671163+388968859+388122204+387696509+388101640+388725800
4087+388774681+388492363+388468932+388644864+388595609+388248856+387728091
4074+387170435+386786367+386696631+386955518+387288287+386971571+386038945
4060+385548665+385731701+385841028+385607766+385308423+385252339+385365405
4047+385392102+385503598+385598867+385129326+384372408+383990957+383733491
4033+383032432+382220800+381975598+381960442+381778404+381923850+382217709
4020+381995813+381751359+382115435+382496437+382277882+381702203+381177675
4006+381097735+381487337+381826512+381923676+382119748+382395784+382109129
3993+381283737+380754572+380911783+381398050+381406251+380615656+379649305
3979+379165356+379163038+379394257+379770547+379844554+379539927+379501889
3966+379543891+379042593+378300032+378060040+378295495+378269048+377642421
3952+376800079+375977653+375581845+376149845+376392430+375602932+375711163
3939+376856188+377296914+376599619+375523816+375164400+375681775+375869522
3925+375315480+375346189+375788735+374998539+373935697+374794241+376625269
3912+377523546+377629484+377077037+374386443+370381324+368439423+368387950
3898+369809983+372482431+373992878+372990334+372692661+374601783+374834622
3885+373139594+372624437+372172619+372681344+374507960+374817547+373569352
3871+371230870+369164212+369828354+369811180+368859759+370944265+374055918
3858+375356235+373209861+365696434+363573492+369638539+374988469+376829916
3844+375678210+373229379+370274364+367698881+368450192+371166634+372951972
3831+374160434+375247954+375668614+375730132+373889533+369839795+370045988
3817+372157439+372747749+375040415+377968609+378693672+376486827+374602830
3804+374251616+372628425+372526750+374832005+377040121+379438526+381562964
3790+382369811+381932525+380816315+380155912+380401488+380136593+379929629
3777+381528466+383477520+384028970+382752557+381438880+381459743+381974052
3763+383178477+383715768+382124633+381428435+382941725+383008652+378769299
3750+376517013+380425168+383369987+382563340+384009153+387456666+388545631
3736+385845914+384447237+388631004+394837709+399446449+401572881+403942246
3723+409224850+416765173+426331001+437172593+447712524+458393041+472669658
3709+491339176+509771293+525190542+537707994+549292696+561332306+572746860
3696+582227713+588351711+589908821+586919483+583026209+581738505+581170130
3682+579740345+577320578+573302173+563710696+553082076+549871888+546421409
3669+543345377+545291989+547042878+545973430+543769128+541301801+537215546
3655+534263597+534100328+530745218+521761201+518732129+522995961+526947363
3642+528179830+527708021+527388812+527417876+527456163+527732848+525503868
3628+521064255+522177224+525952745+527474111+525103997+521687817+521639160
3615+522955929+524219355+525774421+524954238+522076371+521467765+522695845
3601+523073632+522407396+521802977+521364968+522231414+524478740+524540608
3588+521002238+519639056+522238494+524589464+524742114+524188097+524601478
3574+525754828+526726415+526377992+523309935+519875459+520772814+523771724
3561+526247476+528576262+530824285+532180188+532714663+533336231+533994989
3547+533851462+533569443+534844186+537235636+539050138+540018035+541390389
3534+543279222+544028064+543478833+543640058+545156837+546462987+546996265
3520+548246679+550571377+552416488+553248485+553405971+552436828+551223105
3507+551768298+553107301+553707482+555002964+557150284+558507234+558885419
3493+558632515+558319188+558788206+559810393+560829688+561623299+562295168
3480+563625597+564852131+564541247+563991817+564564629+565312275+565352057
3466+565088036+565212818+565490400+565605111+565806717+566199410+566541202
3453+566557853+566677151+566925519+566834986+567245725+568540459+569351418
3439+568629546+567479785+567868739+569443647+570416030+570294688+569728906
3426+569822430+570900652+571868648+571653034+570288357+569114666+569387412
3412+570400376+571237509+572558415+574184123+574558569+573952107+574207803
3399+574645762+573637784+572707027+572662758+572741376+574117420+576055706
3385+576096486+575168023+575052713+575336077+575158102+574828424+575485936
3372+577286877+578773096+579158360+580040061+582287836+583681129+582874805
3358+581495372+581162852+581805507+582364958+582922216+584078906+584705758
3345+584140674+583401752+583355389+583930394+584061458+583556845+583592091
3331+584209571+584586809+584696236+584917684+585264761+585375434+585327974
3318+585295819+584839913+584007018+583114898+582467008+582873509+584349209
3304+585868980+586578139+586581978+586444134+585932891+585015794+584691600
3291+585107424+585252796+585350757+586396425+587892465+588959719+589537516
3277+589474452+589354555+590380032+591795560+592466033+592867949+593232723
3264+593753987+594927727+596224654+596582250+596030127+596075893+597524772
3250+599347598+600333742+600417046+600492623+601135927+602337535+603851373
3237+605084438+605497770+604801671+603557090+603464463+605074866+606314562
3223+605908459+605234545+604971222+604630676+603913240+602871112+602809095
3210+604012897+604263209+602575633+600838903+600270977+599736652+598762723
3196+598016024+597524921+597388374+597488977+597184225+596526265+595954600
3183+595540321+594779215+593030819+591219558+591077427+592185161+592632543
3169+592084558+591679302+591345187+590048410+588036291+586473498+585853425
3156+585541146+584881839+584273134+583800527+582439987+580405285+579310163
3142+579064038+578203525+576628717+575301679+574482643+573465940+571702787
3129+569860617+568954837+568841571+568958925+568735035+567300663+565116252
3115+563697983+563438049+563264611+562321540+561158618+560166892+559066535
3102+558115638+557682465+557524880+557324171+557507481+557951921+557263201
3088+555382295+553929727+553767505+554133477+553822244+553036610+552795969
3075+552858734+552352177+551483139+550512699+548969000+547459699+546720976
3061+545865997+544615084+543707011+543226876+543080059+542763741+541451759
3047+539721010+538384001+537146499+535917970+534861136+533838749+532594567
3034+530982120+529339312+527942829+526509604+524964807+523699188+522945609
3020+522512237+521885335+520636964+518897641+516963991+515056614+513728329
3007+513145248+512500748+511359412+510090652+508955199+508151219+507655131
2993+507157299+506591018+505805334+504587374+503402467+502923927+502787031
2980+502054341+500769628+499713590+499192676+498895203+498421200+497715630
2966+496786419+495405240+493847382+492618505+491382598+489912382+488653891
2953+487624276+486675722+486055700+485670037+485223403+484662606+483740026
2939+482483530+481391050+480518572+479546736+478417764+477475342+476821021
2926+475921672+474583866+473085333+471482757+470011145+468905254+468025248
2912+467357367+466862875+466507373+466163038+465378500+464317328+463533289
2899+463220312+463270265+463123896+462417678+461443948+460523761+459666438
2885+458881153+458308939+457674759+456680091+455705563+455028808+454396173
2872+453534363+452460329+451504596+450839806+450274722+449588544+448675237
2858+447823647+447263797+446637593+445918014+445088061+443723782+442454723
2845+441961726+441589224+441061879+440707324+440390657+439923384+439280579
2831+438566036+438033705+437745355+437445987+436866396+436127773+435397874
2818+434660099+434056628+433638012+433278372+432934685+432549670+431989073
2804+431316007+430798731+430508337+430413567+430320990+429927450+429383453
2791+428876248+428341973+427815824+427393519+427059653+426535548+425849121
2777+425524927+425506182+425272571+424771199+424196941+423683555+423318431
2764+423041248+422714611+422351481+422217775+422281089+421990894+421269471
2750+420662061+420350131+420128135+419924984+419671830+419331483+419088300
2737+419025186+418999113+418762062+418218165+417729705+417574886+417513193
2723+417322779+417040088+416648866+416224517+416061597+416079694+415903388
2710+415564238+415284812+415074781+414798396+414495688+414380054+414343162
2696+414289770+414290867+414065805+413665809+413557952+413665784+413754373
2683+413783861+413595217+413246994+413061565+413121165+413183207+413042447
2669+412752975+412421901+412157032+412036412+411897397+411715034+411782261
2656+412098355+412246493+412039752+411843331+411919781+411984341+411907218
2642+411960112+412104262+412087462+412068243+412308834+412712395+413068993
2629+413401862+413783986+414037763+414028714+413949971+414060745+414327733
2615+414591381+414981556+415561671+416076378+416423680+416742041+417053623
2602+417230377+417448633+418051830+418942430+419693566+419991089+420040643
2588+420295492+420694765+420926681+421035311+421171858+421336922+421625122
2575+422068266+422441865+422599749+422610717+422706585+422952609+423030430
2561+422764364+422426361+422367733+422528310+422621386+422661817+422671837
2548+422519137+422239661+421918857+421840089+422255016+422597456+422404974
2534+422186717+422315138+422517841+422477011+422245145+422084767+421977334
2521+421819400+421793676+422071108+422481448+422736596+422797018+422743775
2507+422732558+422988803+423284681+423155761+422827628+422931422+423437031
2494+423863375+424139062+424323967+424317486+424144197+423762871+423263443
2480+423111042+423368483+423582004+423522529+423274311+423046782+422978682
2467+422884111+422609620+422299634+421922596+421362596+420966314+420966065
2453+420876529+420374309+419909928+419869298+419945224+419640473+418921243
2440+418173796+417708019+417502799+417302240+416905584+416518076+416420040
2426+416402717+416148117+415640713+414991875+414357047+413864399+413510941
2413+413201278+412787822+412222189+411680511+411278471+410821693+410137584
2399+409467161+409078431+408805984+408487174+408129229+407623944+406959976
2386+406187403+405191065+403831199+401998775+399560213+396559484+393434944
2372+390457795+387565420+385094604+383079344+381049203+379301355+378338893
2359+378150772+378803373+380370280+382864777+386023964+388329319+388151368
2345+385790777+383472361+382413881+382282493+382586123+382698218+382459421
2332+382309264+382626205+383287456+383773847+383959649+384411517+385346960
2318+386282527+386952303+387590970+388335451+389020606+389627916+390176748
2305+390541797+390794776+391092548+391400291+391655265+391919611+392192033
2291+392371528+392450570+392444164+392469639+392733586+393040332+393000450
2278+392729374+392640286+392834838+393093276+393250288+393409544+393685505
2264+393930059+394059478+394210807+394354733+394425698+394646398+395103027
2251+395507559+395720008+395941455+396330334+396820813+397262287+397635636
2237+398097251+398703788+399258104+399702344+400267130+400921625+401530730
2224+402283635+403077221+403612842+404277708+405464883+406754307+407815055
2210+408846341+409998320+411264263+412569566+413974100+415696573+417630423
2197+419410301+421102862+423095887+425336034+427620400+430055422+432643892
2183+435235104+437805178+440417229+443091396+445870654+448756248+451587652
2170+454331464+457124431+460024482+462956938+465737791+468230793+470484400
2156+472592685+474528728+476119389+477129362+477560591+477627593+477323241
2143+476435807+474928400+472941706+470494470+467539829+464017811+459808768
2129+455168446+450569054+445880624+440786191+435593996+430612630+425692633
2116+420794272+416089914+411624751+407306878+403113090+399095184+395277737
2102+391680092+388275727+384942452+381679371+378697635+376006592+373414483
2089+370891969+368391888+365900781+363646377+361667934+359706814+357686744
2075+355753717+353963918+352269014+350579070+348774315+346925490+345277149
2062+343835972+342420519+340991831+339652180+338422729+337126275+335724757
2048+334358334+333027133+331709891+330426225+329227608+328151131+327157136
2035+326322571+325629290+324855396+323965794+323158772+322538551+322006993
2021+321464841+320726667+319742468+318872806+318127653+317249641+316313650
2008+315307665+314186894+313133549+312200948+311311844+310479497+309604327
1994+308395017+306994221+305986691+305365896+304759857+304116628+303499073
1981+302982047+302542294+302004803+301349759+300692596+299908383+298823605
1967+297795636+297330357+297167961+296840476+296385442+295859069+295221324
1954+294604018+294103668+293656561+293045064+292126172+291022326+290337445
1940+290552735+290927630+290838867+290493086+290123949+289830639+289613080
1927+289238360+288355587+287394445+287119481+287064318+287158615+287861394
1913+288290429+287835096+287386568+287789705+288565119+289034212+289213832
1900+289274728+289009460+288364959+287940610+287752166+287345390+287403369
1886+288096600+288512973+288634365+288842701+289121230+289381787+289537428
1873+289182549+287658691+285789676+286238453+288541165+290293649+291068216
1859+291529930+292091375+292725182+293148484+293259432+293088087+292577766
1846+291632852+291270146+292928009+295031583+296153551+296851469+297557512
1832+297396163+296323226+296418271+297806354+299188206+300737688+302056376
1819+302551068+302534267+302222811+301292278+300069807+299714405+300059612
1805+299900057+298679530+296969222+296183712+296368118+296176384+294957676
1792+294158557+295806225+298055918+298910574+298655202+298333026+298565491
1778+299441584+299779562+298348281+295950325+295979813+298296384+300463596
1765+301506622+301192622+300908086+301575344+302221714+302796445+302419456
1751+299661087+296544199+296451597+297799026+298547918+298511401+298271857
1738+298410972+297364432+294430256+294441797+297536499+300650620+302597855
1724+303163064+303043217+302023897+298816127+296417174+299766875+304797172
1711+308239326+309541263+309237857+309287735+310458011+310623498+310034035
1697+312561884+318850946+325604588+329898281+332444625+334348040+335289739
1684+337789271+345050218+352751741+358872200+363661831+368299012+372552449
1670+377051587+384804035+393225237+399332136+405080018+412470134+419497295
1657+424152821+426416947+431997298+442225798+448755450+455348416+466726427
1643+477758208+485734198+490928935+493913438+499117747+509264587+518054826
1630+524076426+528807480+533039555+536798325+541559890+546594748+549580248
1616+551888544+556185976+560350301+562734972+564382515+566713943+569044074
1603+570813459+572771387+575121211+577156761+578962687+581474583+584921273
1589+589007428+593435326+598100923+603244910+608854226+613834645+617812719
1576+624655299+634780253+643180193+651210372+661444804+671943657+681439765
1562+688668955+692804266+701289653+717253347+731664517+744388560+755490036
1549+766114668+774982030+780472545+782850635+786050004+800867975+817253675
1535+826978360+835450636+846408136+855259545+860804101+865807552+870457645
1522+875324001+883004262+891197809+899386571+907910944+913593194+914252650
1508+909991312+910902924+924253371+935191928+940431583+940972688+940391401
1495+942915660+945193845+942208146+936646440+937180067+940956236+943127635
1481+943032416+941373706+937920983+931345964+922602438+918887289+922180083
1468+923847667+920332828+917289798+918688674+919313134+914802330+912676197
1454+919905188+928198642+934071032+937445584+941937743+949572139+957926114
1441+964734245+968768653+971213746+976815733+985133714+992589636+999632575
1427+1006453868+1010703741+1012976342+1014876939+1014308216+1013531107
1416+1017619854+1022532972+1025116456+1026662100+1027804932+1026948556
1404+1024830200+1023993666+1021895650+1017330507+1014321178+1014422280
1393+1017526430+1020452504+1018693390+1012786701+1009268771+1010917810
1381+1014881725+1017678780+1017536699+1015173765+1014007901+1015332995
1369+1016621796+1017499908+1018012397+1015793139+1012473225+1012438228
1358+1013659927+1013220522+1011584445+1009912374+1009068561+1009442758
1346+1009476259+1007965014+1004882799+1000670815+997899883+997743245+999074520
1333+1001362476+1002837229+1002529037+1002270001+1003327584+1005293888
1321+1007516137+1009577660+1011638785+1014080188+1017201886+1020950237
1310+1024228474+1027089540+1031205009+1036287128+1040512075+1043449915
1298+1045672164+1047709459+1050061625+1052926181+1055773788+1058018571
1287+1059659633+1060354784+1059979690+1059685856+1059890253+1059707791
1275+1059107062+1058567752+1057887457+1056884713+1055752650+1054572927
1263+1053051512+1051280931+1050385570+1051007338+1052300127+1053123599
1252+1053653238+1054901359+1056617600+1057974800+1059011244+1060126756
1240+1061563322+1062568259+1062563872+1062499961+1062681725+1062785718
1229+1062742745+1062180403+1062016486+1062858604+1062972468+1062529274
1217+1063459333+1064895998+1065519959+1066062958+1067431424+1069873725
1205+1072184513+1072850949+1072291199+1071655373+1071520969+1071901946
1194+1072755231+1073741823+1073732052+1072583238+1071291147+1070248520
1182+1069507903+1068875767+1067743704+1066253696+1065231708+1064732181
1171+1063891658+1062122473+1059751163+1057636796+1056253673+1055284031
1159+1054429351+1053239757+1050980317+1047978665+1044793454+1041313811
1148+1038021616+1034749262+1030102658+1024432871+1018824902+1013244551
1136+1008261739+1004232616+1000253744+995202434+989109395+983191638+977190428
1123+970231740+963285117+957311924+951949730+947041199+942748553+938359590
1109+933394426+928304430+924166428+922031720+921004249+919789131+918440506
1096+916956181+915750136+915566976+916357446+917857524+919578850+921125691
1082+922607024+923739586+924479704+925663415+927714270+930352892+933534513
1069+937046860+940124687+942664002+944815759+946565502+948885463+952305282
1055+955474042+957125075+957382417+956910508+957082002+958974125+961406455
1042+963138449+964563648+965652738+966201720+967251126+968801457+969311553
1028+969180439+969486039+969559522+969509270+969973302+970333939+970780124
1015+971645274+971666810+970975747+970802059+970628172+970471434+971435991
1001+972670153+972750017+972102227+970981131+969352632+968248786+967628015
988+966412598+964830761+963540664+961761109+958923574+956520158+954895746
974+952139970+948259807+945529456+944540571+943723579+942432983+941191842
961+940480538+940972388+942246134+942644659+941811714+941004693+941115367
947+942105548+943483885+944756335+946242354+948418539+950888559+953111306
934+954960157+956411678+957261573+957955328+959802583+962546993+963884450
920+963139546+962164121+961777860+961154498+959759011+957433965+955127364
907+954578881+955226472+955038526+953736264+952289728+951222873+949890102
893+947569542+945016169+943996175+945224056+946554534+945857190+944227095
880+943958586+946055804+949205021+951609334+954178660+958916495+965279638
866+970963783+974644134+976776548+979067296+982098959+984396288+984791722
853+984114219+984062073+984411443+983371608+980663590+978122581+977320146
839+977434309+977400409+979348467+983955587+985483383+980879055+975335795
826+972889307+972794387+974042308+977243970+982126877+986364187+987981320
812+987694864+987905942+988626817+988912575+990151722+992982378+996113947
799+998715778+1000321345+1000690357+1001583923+1004421758+1007824029+1011110143
785+1014606935+1017689549+1020892507+1025299018+1030084512+1033528660
773+1034328402+1033253471+1033647210+1036502195+1038558533+1038694831
762+1039600462+1041516215+1041821714+1039937967+1038298400+1038983381
750+1040920271+1041869075+1041205630+1040256029+1040167889+1041150293
739+1043924715+1046753975+1045957324+1040773903+1034295001+1030385325
727+1029036302+1028621524+1027772427+1025471310+1023922775+1024512836
716+1025852686+1026507456+1025272596+1021752572+1017256027+1015089413
704+1015909197+1016327763+1014778430+1012060741+1009532693+1008398137
692+1007134961+1004788178+1004092928+1004290944+1003269654+1003687423
681+1004581188+1003783041+1004940629+1009442359+1014420485+1015843690
669+1010526463+1004454761+1006713303+1013324316+1020495876+1024541451
658+1023835432+1022171238+1022436257+1025853883+1031758677+1034352731
646+1030298182+1022814741+1015182838+1012189960+1016668957+1021962254
635+1023428731+1023166903+1020626491+1015483551+1009448142+1003334264+997973067
621+997328068+1002740115+1005664395+1003374645+1004411788+1010714310+1016210110
608+1017898134+1019566616+1022926512+1022178417+1012738343
##END=
