##TITLE=Sample description
##JCAMP-DX=4.24
##DATA TYPE=INFRARED SPECTRUM
##DATE=24/8/2023
##SAMPLING PROCEDURE=Instrument type and / or accessory
##ORIGIN=Default
##XUNITS=1/CM
##YUNITS=ABSORBANCE
##RESOLUTION=4
##FIRSTX=4397.6552
##LASTX=599.8556
##DELTAX=-1.9287962
##MAXY=1.4386564
##MINY=0.53055423
##XFACTOR=1
##YFACTOR=1.3398532e-009
##NPOINTS=1970
##FIRSTY=0.66760206
##XYDATA=(X++(Y..Y))
4398+498265069+497465568+497193581+497691823+497708772+497104386+496749344
4384+496596268+496297989+496204925+495985565+494659394+492846325+492214313
4371+493192737+494501602+494316719+493076806+492760467+493252125+493730883
4357+493987478+493694360+493581188+494480827+495890899+496491281+495384782
4344+493444171+492243629+492304441+492846414+493009277+492786847+491769765
4330+490220675+489864431+490480740+490384961+489515973+488842722+489097093
4317+489872038+490338829+490878711+491475712+491293409+490869680+490912698
4303+490838629+490502004+490381714+490475713+490650098+490754462+490968439
4290+491715002+491678257+489692982+487900599+487974891+488755174+488837829
4276+488152389+488175522+488905448+488467884+487079299+486139578+486368948
4263+487548448+488424866+488682484+488423042+487122807+485511125+484932986
4249+485427047+486499425+487699256+488318589+488004919+486815987+485161955
4236+484168939+484309826+484515885+484143582+483702816+483339944+482989750
4222+483510503+485482877+487198433+486802330+485468463+485064175+485435944
4209+485645918+485298393+484988504+485397686+485352800+484131215+483241318
4195+483001183+482974714+483469042+483846416+483814475+483858072+483559037
4182+482266453+480578834+479909365+480291010+480682086+480644184+480202439
4168+479872842+479863055+479632262+479453073+480005410+480838454+481190694
4155+481272459+481016042+479726217+478371664+478364991+479241453+479877291
4141+480023160+480279444+480264096+479356093+478834763+479378025+479895174
4128+479886633+479717186+479576699+479624611+479756022+479268323+478067602
4114+476989708+476900158+477636756+477845173+476916662+475670655+475088200
4101+475398623+476124278+476596319+476217387+475390705+475257069+475599833
4087+475535106+475473226+475925381+476338567+476038954+475251197+474730133
4074+474421222+474176016+474378827+474411569+473677284+473095941+473037265
4060+473027166+473271794+473496982+473294972+473156976+472975696+472681822
4047+472714563+472781114+472710026+472630885+472226019+471657622+471408723
4033+471191987+470876982+470682579+470396223+470404764+471384122+472647612
4020+473252710+473160446+472210093+470593607+469339147+468672481+468463575
4006+469131576+470090960+470041981+469442266+469748952+470856207+472081840
3993+473238697+473309874+471625592+469560243+468611713+468786187+469126816
3979+469777779+471387681+472269126+471743079+471170100+469793705+467815726
3966+467703888+469446225+470525632+470242880+470129974+469928631+468735073
3952+468657667+470813501+471868263+471325223+471298131+470233360+468549700
3939+468421803+469192299+470277668+470437639+468333142+466909859+468218991
3925+469541158+469199195+469376427+470143542+468869554+465965600+464605308
3912+464842018+465973474+468973339+472431232+472818927+470248574+466922804
3898+464933125+465864083+467408947+465786410+463188520+464621857+466978678
3885+466667944+465891130+464056485+462081176+463282875+465101238+465605575
3871+465100037+464019784+464669813+465163251+463482127+462345911+462979302
3858+464829073+465991046+461566562+456601797+458015293+460998654+463063203
3844+463832321+463954568+463088160+459827918+457593033+458210853+458884727
3831+459420560+460414198+460964712+461421983+460847447+457747532+457352319
3817+458239903+456615854+456910751+459594722+461698063+461096301+460216325
3804+461492093+460239991+457465625+457341375+457626086+458291818+459638897
3790+460925030+462174552+462474520+461769596+461913019+461530039+459577907
3777+459402810+461123304+462242081+461257429+459780896+460277003+461398984
3763+462497297+463348269+462554684+461660205+462916221+465114183+465440488
3750+465376161+468629285+470591293+468709137+470416820+476044737+481239184
3736+481994911+476570739+473061643+476186336+481785783+484961546+483781022
3723+479859763+475515043+473166407+474110844+477405296+479691651+478769190
3709+479515442+483370550+487759267+491939923+496579763+502354084+508778078
3696+515131651+520930617+525098283+525502838+524553108+526136229+527849828
3682+528374762+529190101+530361416+526880435+520761926+521202604+522142681
3669+519941516+520115767+522152957+524182451+527078886+531045743+534351850
3655+537387927+542037198+546035284+544992133+542957791+545307272+548812409
3642+550568136+550403093+549959746+549922645+550744389+553109663+553154326
3628+546819927+543063845+543553502+544431610+543145922+538848534+536573478
3615+536665342+535662451+534545097+534149795+533434105+533138229+532974298
3601+531664543+530845823+532100505+532455636+530762768+531079375+533529883
3588+532364663+527179781+524281966+523597683+522463469+520582069+519018744
3574+517966073+518657696+522878701+527618101+525353855+519453461+516814954
3561+515402392+513799830+514241843+516297850+516691506+516248114+518984579
3547+523051929+522083826+517142015+514407152+514765754+515492743+514895475
3534+514047839+514608006+516365290+518438825+520641013+521307635+519179783
3520+517069414+516906818+516893517+516349364+517149622+518911488+519576153
3507+520829589+523644971+523766685+519586385+515454885+513974927+514518590
3493+515691328+516409287+516493454+516177248+515778298+516209990+517047438
3480+517022793+516922833+516905839+515783459+514561697+514627180+514953084
3466+514879148+515413603+516368138+516437358+515798851+515406796+515012295
3453+514092548+513620062+514213016+514775807+514895875+514774117+514350344
3439+514116570+514233746+514658053+514918207+514107362+512933377+512611166
3426+513125067+513807126+513553200+512071062+511284194+512375079+513134142
3412+512208434+511489007+511636122+511804902+512190996+513018746+513771048
3399+513849432+513365469+512933199+512444655+511363068+510154518+509979777
3385+510667085+510954687+510722025+510392073+510036764+509784261+509279168
3372+508442254+508091037+508541858+509323031+510149624+510810508+510566814
3358+509522639+508974795+509061231+508817804+508195579+507664150+507172892
3345+506832085+507022351+507567749+507879373+507858642+508034406+508238552
3331+507851836+507088680+506174404+505087257+504401194+504559653+505143353
3318+505427441+504827147+503792271+503400750+503555605+503531894+503014478
3304+502473752+502603072+502841383+502428109+502136192+502583543+502699340
3291+501890585+500722384+499646803+499087437+499162262+499600715+499661439
3277+498865585+497995796+497717892+497664331+497699208+497990902+497957894
3264+497453601+496646715+495749255+495901308+496646715+496672294+496451110
3250+496259954+495752948+495328107+495311113+495226990+494629811+493826795
3237+493433584+493496309+493720829+493410718+492144648+490977336+490585193
3223+490565752+490694406+491151321+491765360+491710509+490657705+489464325
3210+489294611+489426156+488717272+488141446+488604322+489358003+489396395
3196+489235178+489757887+490437944+489975735+488739204+488995398+490365165
3183+489832312+487357114+486661532+488874396+490134150+488070402+485584616
3169+486662199+489853132+490025871+487199367+487204082+491233842+492513748
3156+488525849+485858827+489621004+494944193+493439144+487143715+486187756
3142+493318276+497408626+491499157+485387677+488263782+495163064+494499200
3129+487015729+484699479+492757041+500135792+494701166+484978361+485438435
3115+495755261+500291271+491272945+482599920+486509256+496835691+496817585
3102+486268587+481710735+489468907+498286867+494077429+483139668+481024272
3088+490972665+499248565+492338028+481029032+479728975+487036949+490666157
3075+484163779+477248572+478885121+486701213+488939390+481329802+474914171
3061+476882942+483714649+485333092+479290432+474088245+473849089+476095807
3047+476198392+473460148+471186427+470783117+471506414+471778134+471069117
3034+470477632+470960660+472022762+471907099+470456768+470175483+477387991
3020+507524909+566183950+613111779+603480526+565144180+534053750+514625801
3007+501435983+491557878+484740095+480650768+477687959+474372688+471817282
2993+471720881+475158088+479082149+477398712+472430254+470977743+475230600
2980+481512194+481283981+474294971+469302224+470522607+476412858+479717898
2966+475653928+470251287+470456946+478973336+487526917+483034637+472118185
2953+467910170+473167386+482618871+483725103+474976318+468711362+471141852
2939+479328735+482800018+476032059+468159736+466973474+473777199+482513217
2926+481065110+471617451+466178821+468932857+476291056+478246836+471662649
2912+465561312+465547966+470383900+473865148+470734850+465370022+463747174
2899+466920758+472235539+473339191+468577414+464053060+464194303+468144878
2885+470717100+468363482+464585913+463480259+465391820+467737475+467096166
2872+464131889+462019740+462137584+464155289+465734184+464779382+462843442
2858+462074369+462437197+463007195+462408058+460321089+458512157+458378121
2845+459349204+459990558+459762034+459277004+459304185+459956171+460558466
2831+460593699+460374695+460254627+460167079+460224955+460396181+460139097
2818+459444048+459124461+459460108+459597881+459146393+458685785+458444494
2804+458481951+459037224+459682449+459578930+458964534+458806209+459072858
2791+459238879+459228558+459066941+458891800+458784945+458681426+458574571
2777+458444849+458455393+458768084+459218594+459473854+459318020+458998388
2764+458856611+458817419+458835347+459087138+459404411+459425854+459294576
2750+459363173+459721329+460319977+460927966+461065873+460564739+460050970
2737+460070589+460417401+460779784+460965512+460900296+460801938+460844956
2723+461033531+461227579+461111827+460898961+461190834+461766927+462050836
2710+461986509+461796777+461784321+461993805+462246352+462529816+462907458
2696+463254448+463284965+463056263+462914976+462972763+463200531+463548634
2683+463867464+464073167+464202266+464229002+464332165+464891131+465743215
2669+466287678+466276423+465950163+465728935+465935127+466475987+466977255
2656+467345865+467694324+468053059+468343107+468461618+468567717+468971960
2642+469576880+469851537+469838769+470124814+470666475+471221659+471881964
2629+472510640+472790545+472738630+472764788+473076101+473507125+474023029
2615+474650459+475149769+475384343+475647967+476172723+476793792+477241676
2602+477545337+477946601+478374200+478714873+479141582+479568469+479825643
2588+480210268+480872308+481472335+481987126+482630259+483140602+483250660
2575+483213737+483361475+483722879+484179839+484543823+484775239+485218230
2561+485882227+486342834+486627189+486957764+487335538+487803175+488371661
2548+489049849+489720697+489964436+489838229+489877466+490225079+490874084
2534+491687910+492202257+492340608+492472153+492857046+493419482+493828307
2521+493998778+494153144+494381668+494614463+494667668+494529050+494651742
2507+495165466+495624294+495874617+496048824+496217025+496544886+497032853
2494+497264892+497087838+496958339+497160706+497472018+497684394+497840584
2480+498061190+498316095+498343409+498234730+498512767+499044730+499197717
2467+498862694+498346212+497959362+497844054+498017416+498464811+498931469
2453+499058165+498872213+498679634+498535677+498295720+497993171+497842319
2440+497897304+497786534+497307198+496882713+496697028+496451244+496115330
2426+495936719+496000823+496181481+496311691+496147493+495626652+495000868
2413+494322368+493684039+493364052+493256707+493053051+492692759+492342877
2399+492045177+491778617+492112306+494081388+498721718+507285797+520696576
2386+538595988+559640823+581918408+603543830+623657752+642481270+660886576
2372+679555194+698214471+716025400+732471811+746193058+754945713+758641072
2359+757310408+748791794+733122552+714022687+695667472+684679220+686976029
2345+697840967+701132126+693030701+682810053+674819976+671802049+675502435
2332+681437929+682015979+677766770+676441044+679694524+680743103+675051882
2318+664580067+654712682+651971280+655772471+657022082+650202786+636971374
2305+621541911+608926763+600578218+593517141+585419853+576067438+565617733
2291+554800929+545000541+536731048+529421294+522954060+517761749+513759615
2278+510428640+507448882+504670868+502131655+500184060+498721362+497192424
2264+495765937+494893790+494359114+493739380+493026715+492488213+492032365
2251+491374418+490776215+490491950+490256352+490036058+490115910+490501870
2237+490980717+491357780+491562593+491709175+491885028+492080766+492336916
2224+492731150+493189712+493611705+494309112+495394524+496251724+496646804
2210+496983740+497537946+498369033+499209417+499780305+500352083+501217913
2197+502150695+502867986+503460539+504183525+505147936+506115772+506871633
2183+507618418+508477353+509265199+509816647+510206655+510681054+511394653
2170+512348787+513247448+513891516+514570282+515271203+515616103+515710991
2156+515953173+516360619+516683009+516787329+516616236+516112922+515535983
2143+515345895+515401191+515247447+514848275+514263819+513555024+512693820
2129+511500974+510167374+509015633+507927952+506629140+505116039+503506938
2116+501830529+500093486+498395324+496854598+495377264+493781597+492037170
2102+490316186+488887119+487731108+486453338+484870305+483376956+482133707
2089+480692229+478985303+477435546+476265788+475350356+474258226+472833474
2075+471496049+470386302+469301690+468432034+468064714+467674083+466506371
2062+465115251+464125172+463173706+462356722+461965201+461766260+461563404
2048+461357300+461353875+461793040+462528259+463063603+463305029+463543607
2035+463896113+464542138+465490134+466401028+467159336+467864438+468462151
2021+469088024+469953320+470384745+469754023+468688674+467734094+466754870
2008+465684716+464611981+463528304+462348447+460985843+459444805+458204003
1994+457566563+456522656+454460109+452317444+450441694+448766041+447453394
1981+446231454+444868716+443486004+442163080+440921522+440020993+439520259
1967+438698470+437245826+435983359+435159123+434331507+433556473+432830907
1954+431897680+431022553+430519595+430258729+430258240+430549044+430316694
1940+429334489+428627785+428447795+428432803+428302949+427951732+427629298
1927+427819831+428781351+429785443+429990078+429612348+429093153+428884825
1913+429051870+429392943+429722540+429623158+429314915+429369722+429725520
1900+430262866+430949507+431369410+431312023+431176474+430931401+430479513
1886+430351260+430426797+430574802+431051602+431325725+431085812+431173939
1873+432395211+434177541+434699850+433909958+434058319+435311221+436346320
1859+436399525+435929442+435766713+436199205+437529780+439840558+441888291
1846+442488584+441845673+440958668+440388803+440025486+440013920+440489652
1832+440371186+438470257+436490188+436030203+435344541+433848034+432881309
1819+432592418+431485340+429453355+427795675+426020286+423755595+421824148
1805+421081144+421778639+421232174+417955116+415375020+414326353+412922554
1792+410587353+408360831+407385032+407231911+406536596+405271949+404045294
1778+402713206+401453097+400003434+398089292+397967401+399217678+398950496
1765+398021407+397683358+397572499+397780515+397660047+397398247+398552658
1751+400131687+399657066+398382277+398274710+398232581+397173816+395979368
1738+396157045+397210650+397634601+397701908+397767258+397258784+397249397
1724+398042048+398750086+399393264+400207090+400828248+401000764+401038666
1711+401267368+401561065+401651371+402245259+403662803+404147478+403281781
1697+403284628+403716943+404879850+407264964+409989595+411822239+412075275
1684+412142715+414462079+416478005+416981719+416871839+417473956+419076563
1670+420616355+422013925+424180169+426543885+428600649+430944569+433713864
1657+436228254+437212239+435745537+436955288+439979532+441856261+443510693
1643+446112365+448497613+450258500+451039362+450878145+452677958+455913821
1630+458628621+460675064+462707627+464856298+467265969+469711717+471060665
1616+471879607+474706822+478309295+480956164+482974225+485379091+488253106
1603+491054208+493409739+495731861+498475310+501539680+504931600+508661881
1589+512428417+516067146+519827098+523793999+527712544+531174174+533741992
1576+536660582+541410614+546074076+550050675+554507678+559737046+565132080
1562+569882468+573539302+578884822+587330703+595429993+603543652+611505525
1549+618749261+625933119+633583457+638688131+640521887+647898903+658111231
1535+666129868+673153666+680105486+686891550+693695588+699830512+704928824
1522+711074380+718908623+727281546+735516697+743268329+751855007+760962171
1508+766690716+766326109+770207330+778124228+785195092+789982225+794949615
1495+801931151+808909485+815076305+820200820+825343840+831091514+836714627
1481+841992618+846813472+850839006+853407624+855402641+859817516+866358374
1468+871983534+875432619+879316420+885627019+891004214+891562602+891445159
1454+898239409+906775640+913934586+918720919+922679812+927785732+933139972
1441+938046861+942086541+945413112+950885329+958043652+963271552+966722594
1427+971103393+976030390+980075141+982338497+982483611+983814452+989401354
1414+995987944+1000040525+1001223673+1000812178+999750743+1000455668+1003809553
1400+1006408422+1005806616+1003239332+1001152140+1001783751+1003809819
1389+1003199205+999592818+998408246+1000544373+1003622534+1007257481+1009515232
1375+1008838689+1009020281+1012541522+1015095727+1014579245+1013092436
1364+1010567057+1008051733+1008434490+1010055914+1010611454+1010805858
1352+1011284972+1010881484+1010407531+1010246047+1009157476+1007205966
1341+1005238708+1005523863+1006853103+1005966053+1003847633+1002015167
1329+1001326703+1001866228+1002257171+1001845587+1001801190+1003641485
1317+1007179541+1011061919+1014378347+1017062896+1020924899+1028800247
1306+1038513932+1043025787+1041692187+1039952875+1040178508+1041846286
1294+1044027076+1046243544+1048922844+1051600365+1053609617+1055558280
1283+1057148919+1058227882+1059484343+1060150119+1060332512+1061105055
1271+1061555431+1060601207+1058969818+1057574561+1056450490+1055522068
1260+1054498891+1053597161+1054208754+1056242207+1057650276+1057802062
1248+1057781954+1057867278+1058111773+1058907627+1060154657+1061381669
1236+1061892901+1061655168+1061104343+1060250569+1059271522+1059219295
1225+1060687510+1061926977+1061646004+1060768474+1060241316+1061102208
1213+1063444482+1065387806+1066469171+1067944058+1068967413+1068540348
1202+1068606988+1069687729+1069537812+1068681724+1069024266+1069702410
1190+1070546397+1072068528+1073256748+1073741823+1073164573+1071511297
1178+1070175918+1069710150+1069309065+1068314893+1066714822+1064550136
1167+1062611972+1061828930+1061889609+1061967993+1061311470+1060434474
1155+1060343633+1060107858+1058573537+1056075740+1052579678+1048912701
1144+1047695744+1048326554+1047622075+1045317614+1042604505+1039689518
1132+1036600948+1033234162+1029625195+1025868267+1021613364+1017369226
1121+1013745312+1009996925+1005926105+1002476487+999937940+996394545+990100228
1107+983251972+979152147+977572095+975570583+972209758+969064246+966143387
1094+962326226+958828117+957525658+956654178+954122126+951444517+949523703
1080+947777451+946064208+943611520+940361821+937904506+937180097+937244424
1067+936693866+935446835+933904507+932025421+930078093+928272408+927048333
1053+926925374+926348480+923945616+921395503+920112439+919614463+919658683
1040+920206394+920573225+919691335+917300037+915206351+915233220+916522779
1026+917261957+917563216+918190290+918362451+917409028+916451156+916457207
1013+916782488+917508765+919293542+920693070+921049224+921474421+921945260
999+922399462+923026269+923290249+922961586+922617799+922704458+922676076
986+921906913+920571890+919124228+917760645+916599295+915495865+914005052
972+911935299+909247280+906376067+904018045+902416818+901345418+900404095
959+899735294+899516334+899366861+898606596+897302179+897016935+898619675
945+901006524+903051098+904865680+906589511+908304889+910670830+913712690
932+917324060+921209641+923918835+925204212+926520462+928281661+930084143
918+931819095+932696269+933071908+934373211+935291046+934293849+933020661
905+932978844+933216043+932729723+931671046+930452487+929840805+930175695
891+930651784+930355774+929545240+928836935+928038412+927335712+927217913
878+927685638+928482916+929156433+929967857+931964831+935168086+938578824
864+941803789+944838798+948343224+953179647+957617121+959646659+961488466
851+965640429+970542158+974811741+977803066+977971667+977331515+978664314
837+980589488+981173588+980701681+980211001+980197655+981149566+984219185
824+989698609+994717692+996411984+996943235+999892920+1004423281+1007647267
810+1009789443+1012539298+1015903681+1017839532+1017242708+1018137854
799+1022482352+1025113785+1024274158+1025197063+1030168368+1035865595
787+1040530392+1044176193+1044796505+1043559618+1045042602+1048569270
775+1049174635+1046222992+1043750819+1044500585+1047261027+1048876401
764+1048174946+1047366815+1048908698+1052428871+1055685865+1057182907
752+1057686043+1057929203+1056586884+1054477983+1054255286+1054571403
741+1053094470+1051770746+1051462102+1049464327+1047246969+1048198791
729+1048591780+1045546627+1044487239+1047015554+1048198702+1047038686
718+1044466064+1040191676+1037021162+1036770973+1037713719+1038635379
706+1037864171+1034695703+1031725732+1030721328+1030801314+1031126951
694+1032683070+1033813191+1031608823+1029422250+1030584312+1033229268
683+1035279359+1035535598+1033945225+1033309966+1036844731+1041720658
671+1039683201+1029890420+1027892734+1037427141+1040477809+1035250532
660+1032444625+1035467535+1038000831+1036544361+1032306719+1031620923
648+1042174503+1056060348+1059291007+1053613087+1046674168+1041863725
637+1038065870+1033036911+1025775380+1019438090+1020211967+1026370958
625+1031927609+1032358767+1024286881+1012900879+1004437071+1002915296
613+1010234836+1017516742+1018617324+1019128646+1015941850+1006123445
602+1000677475+1006061075
##END=
