##TITLE=Sample description
##JCAMP-DX=4.24
##DATA TYPE=INFRARED SPECTRUM
##DATE=24/8/2023
##SAMPLING PROCEDURE=Instrument type and / or accessory
##ORIGIN=Default
##XUNITS=1/CM
##YUNITS=ABSORBANCE
##RESOLUTION=4
##FIRSTX=4397.6552
##LASTX=599.8556
##DELTAX=-1.9287962
##MAXY=1.2837057
##MINY=0.34306002
##XFACTOR=1
##YFACTOR=1.1955441e-009
##NPOINTS=1970
##FIRSTY=0.49287581
##XYDATA=(X++(Y..Y))
4398+412260669+411243414+409764645+408444243+407865145+408007707+408004915
4384+407274928+406472177+406551747+407046315+406736687+406004631+406074204
4371+406499498+406397718+406281803+406291351+405959113+405599155+405298475
4357+405099850+405649609+406453556+406508422+406406991+406819970+406907741
4344+405859052+404535360+404157728+404145912+403831323+403744050+403676346
4330+403375717+403447983+403978272+404522995+404760832+404591721+403980466
4317+403162060+402798313+402978866+402922404+402614172+403262046+404744504
4303+405336665+404758538+404047622+403426919+402651538+402022185+401941619
4290+402139471+401925939+401161153+400842102+401593551+402299956+402107040
4276+401656020+401555860+401455526+401088513+400992616+400791349+399610517
4263+398283509+398072869+398852213+399426550+399535958+399927001+400045458
4249+399559366+399394817+399524940+399642325+399718305+399165306+398095603
4236+397469242+397694165+398186091+398096052+397937436+398419815+398724906
4222+398405381+397643113+396547236+395958316+396368478+397184366+397811052
4209+398157275+398313123+398316838+398239736+398113850+397954661+397852158
4195+397925147+398143539+398164952+397816038+397436786+397242448+396882166
4182+396061243+395178972+394951730+395595915+396369825+396208267+395492764
4168+395559795+396135578+396183414+395900010+395628321+395206642+395090603
4155+395799202+396283873+395553139+394612014+394545705+394853464+394419047
4141+393621182+393969075+395174734+395454400+394359694+393334063+393381152
4128+393837431+393787251+392962364+392270692+392533556+392920211+393141072
4114+393677220+393952398+393515837+392675246+391803320+391310447+391095843
4101+390749596+390663420+391120397+391622543+391943514+391960988+391576452
4087+390849257+389914364+389544036+390095813+390620120+390229751+389481542
4074+389380659+389468704+389021025+388417722+388106547+388148127+388377962
4060+388610588+388466854+387740034+387126759+386863372+386427832+385859777
4047+385509317+385757000+386427334+386488656+385904024+385714523+385917909
4033+385818447+385677430+385634055+385149159+384622958+384500238+384263299
4020+383965212+383936221+383952947+384076290+384235953+383934725+383587505
4006+383575042+382962041+381924545+381915496+382623272+382791859+382516207
3993+382456131+382713062+383006039+383049663+382632121+381989258+381827501
3979+381978788+381601405+380923244+380548927+380150730+379738125+380018438
3966+380542097+380154395+379266839+379234134+379972596+380333875+379969131
3952+379413315+378972466+378946866+379453100+379289623+378279572+378352337
3939+379486030+379972097+378941332+376610155+375266122+376573536+378069157
3925+377462637+376375659+376357537+375847688+374669798+375289080+377533283
3912+379080504+379288626+378167522+374944752+370851253+369189564+370026615
3898+372198577+374745255+375621991+373852439+373119461+374901078+374668427
3885+372298289+371670132+371738135+372818607+374808247+375256076+374692258
3871+373369363+371662405+372102306+372432874+372140221+373648879+375276691
3858+375309870+372584111+366384260+366175814+371981755+376367109+377617414
3844+376052545+372841840+369370216+367721688+369631833+371862052+372461566
3831+373577660+375737058+377357966+378194743+376544196+371671229+370566702
3817+372417070+374017611+377288841+380667908+381172996+378132448+375755106
3804+374896492+372346599+372177065+375076869+377711542+380265348+382151338
3790+382607144+382375813+381744466+381354196+382019869+382060925+381395701
3777+382389150+384118319+384493856+382934546+381602029+381811472+382387679
3763+383444145+383697911+382228864+382095425+383780796+383571676+378899602
3750+376006952+379118768+381763087+382225474+384928573+387942173+387419212
3736+383452122+382628158+388609292+396167859+401298506+403679213+405732569
3723+409979199+417114392+426854568+437428456+447522234+458010519+472584078
3709+491949264+510556095+525856350+538986287+551907479+564901760+576657576
3696+586248459+592024886+591744348+585486665+580783830+581728545+582715637
3682+580445110+575705781+570227591+562186521+554757678+552624553+547844741
3669+542238522+542703775+544295965+543581085+541290217+538503585+534541954
3655+531528977+530906978+527054531+517281973+514006356+519046864+524009496
3642+526011351+525803004+525022264+523868953+522617975+522222869+519958275
3628+515906555+517714072+522107553+523847216+521301337+517082052+515657925
3615+516009806+516980646+517915988+516470971+514910688+516337109+517666311
3601+516601144+514950124+514098739+513634982+514364519+516156581+515483580
3588+511081823+509438331+512154368+514739633+515677468+516006815+516600845
3574+517427502+518235263+518016547+514382717+509738213+511319385+515918122
3561+517994560+518515103+519723106+520519052+520664132+521806325+523006749
3547+522525393+522188668+524177061+527490269+530087949+530732034+531181483
3534+532998871+533570666+531450504+529596023+530553152+533513282+536374947
3520+537928799+538651357+539604547+540939183+541758262+541703022+541709105
3507+542219377+542842623+543715695+544885509+545767256+546389704+547548599
3493+549147869+550108188+549997808+549483397+549648569+550297391+550406924
3480+551031465+553326720+555551230+556049438+555108362+553689819+553416311
3466+554745314+555758680+555350262+554832960+555580446+556965984+557631258
3453+557803958+557923213+557055625+555675869+555717200+556749561+557827640
3439+559218912+559924120+559192489+558384478+558451135+558943759+559324207
3426+559787616+560357167+560380748+559924868+559682021+559990827+560446309
3412+560500153+560790612+561445715+561375867+561269326+562593143+564576801
3399+565576357+564895528+563581831+563348606+563924140+564562442+565600337
3385+567028652+568051192+567610916+566290041+565891544+566416624+566841993
3372+567182158+567561111+567546353+566878836+565928786+565923203+567501683
3358+569537140+570675843+570817683+571329052+573018062+574230253+573593696
3345+572637664+572932011+573516918+573391182+573483714+574426684+575156422
3331+575205380+575540559+576134839+576351213+576686392+576999885+576578455
3318+576044800+575967324+576193469+576511798+576438859+575984624+575604325
3304+575496038+575660712+576195763+577066691+577228074+576277476+575399318
3291+575393136+576354553+577924109+579311293+580383788+581751428+582928620
3277+582647484+581583564+581582717+583133378+585282905+586922607+587733111
3264+587662116+587267708+587968629+589563163+590609583+591013015+590998158
3250+590742548+590620651+590326952+590268720+591176941+592649627+594586370
3237+596945341+598462997+598245626+597317314+596962192+597141822+597136188
3223+596555918+596206729+596799413+596946787+595783504+594927632+595124263
3210+595131941+594441190+594011335+594151180+593715192+592628090+592227649
3196+592550913+592229593+591081966+590466248+590495912+589985440+588537632
3183+586734901+585556413+585405599+585844529+585971760+585304941+584438848
3169+583855337+583282845+582259657+580859411+579634457+578700561+578020629
3156+577700307+577348675+576584587+575754739+574973202+574008944+573334646
3142+573202728+572560986+570782834+568935232+567909801+567253152+565972360
3129+563685232+561432454+560550657+560881200+560972784+560183121+559228833
3115+558249369+556988170+556300561+556716307+556856900+555594455+553895923
3102+553256374+553804786+553983818+552866902+551528826+550864748+550655903
3088+550367238+549679230+549111923+549059824+548695628+547812435+547405413
3075+547442207+547139533+546577809+546253747+545907699+544877980+543424638
3061+541964116+540165523+538490921+537969331+537783370+536646860+535331867
3047+534556861+533627452+532511034+531635718+530512370+528906968+527505525
3034+526470322+525287995+523877030+522613987+521689563+520762397+519604848
3020+518544817+517463298+515900971+514242024+513015076+511945672+510959627
3007+510243051+509179082+507597860+506367671+505683751+505124520+504444040
2993+503570469+502709512+502078489+501692107+501381606+500986101+500452845
2980+499649271+498652258+497889466+497445202+496842846+495844636+494657124
2966+493483023+492355139+491054654+489489983+487922322+486747922+486249515
2953+485843790+484528099+482679401+481516218+481131632+481078984+481218929
2939+480935300+479765387+478261640+477140536+476631809+476239744+475169692
2926+473629102+472302094+470896164+469098818+467513757+466463846+465619840
2912+465112110+465077211+464705038+463755088+463016676+462652331+462269140
2899+461649185+460849749+460259409+459813001+458986195+458209842+458068352
2885+457665069+456402923+455259982+454712069+454071772+453180303+452393132
2872+451625554+450971797+450576392+450108347+449437988+448710643+447918437
2858+446807154+445478899+444379034+443306140+441905245+440493981+439783289
2845+439871035+439892822+439358469+438527873+437798634+437423072+437285919
2831+437201015+437057231+436811293+436423565+435716911+434805101+434045799
2818+433651042+433565889+433387256+432931126+432429429+431891137+431282848
2804+430813756+430480322+430139807+429688165+429036452+428431453+428108987
2791+427774106+427148617+426534046+426297531+426291548+426082254+425468382
2777+424854808+424525112+424089573+423551082+423251699+423083536+422919860
2764+422770891+422615242+422383413+421955801+421424589+421031277+420866305
2750+420733789+420251435+419529774+419207507+419309363+419206909+418743152
2737+418315091+418044699+417698152+417344227+417260245+417315136+417194984
2723+416937355+416672247+416369249+416120495+416016122+415962377+415844494
2710+415600874+415376399+415317046+415285612+415159153+414950806+414768858
2696+414766141+414871361+414826541+414464962+413949953+413679387+413759330
2683+413882673+413724232+413358790+413100862+412953015+412806614+412726147
2669+412647399+412447030+412272634+412329919+412520766+412531560+412184066
2656+411751792+411594996+411578369+411499897+411472900+411626704+412037440
2642+412611778+412961041+412939005+412850935+412839618+412798063+412762192
2629+412923650+413302478+413633420+413837803+414065918+414302782+414550066
2615+414880584+415256247+415718932+416252338+416547807+416629297+416979981
2602+417572940+417972907+418290412+418863653+419543535+420042640+420381758
2588+420707714+421067822+421423691+421749947+421976292+422081686+422263709
2575+422531335+422606667+422452912+422277769+422234793+422346520+422498729
2561+422614693+422721883+422717496+422561996+422509398+422648944+422815362
2548+422907595+422851907+422637577+422373791+422195557+422203982+422418761
2534+422751697+422998532+422976296+422762515+422628304+422577501+422394032
2521+422242271+422368955+422588818+422769994+423010248+423217897+423244470
2507+423253544+423464334+423654533+423537970+423364871+423403460+423524908
2494+423608616+423602284+423563496+423639676+423650445+423540314+423627062
2480+423826734+423885215+423753447+423394835+423077254+423009550+422998233
2467+423007157+423079298+422970463+422469264+421828968+421436754+421231797
2453+420901952+420405290+420052361+419931412+419734282+419379609+419012422
2440+418711942+418518004+418347098+418055767+417569898+416920703+416287337
2426+415862691+415604937+415348355+415006370+414458631+413794404+413368337
2413+413142217+412780863+412267250+411765577+411327944+410904844+410512829
2399+410237800+409915334+409432582+408923032+408359738+407847371+407396551
2386+406555910+405286759+403768629+401671924+398882076+395822035+392774109
2372+389803136+387081964+384641529+382175768+379843071+378327982+377707504
2359+377607443+378093461+379519258+381973079+385015696+387294473+387213807
2345+384712224+382054992+380854892+380633582+380830811+381227139+381634260
2332+381812594+381803096+381939751+382279143+382726897+383434997+384462896
2318+385586693+386525225+387186910+387709123+388211369+388797622+389481342
2305+390109324+390592500+390894825+391101402+391506654+392074709+392320946
2291+392195111+392214031+392591862+392994671+393134591+393141047+393128334
2278+392981334+392760100+392658968+392731084+392907149+393061079+393201323
2264+393432503+393696489+393957159+394229047+394442330+394658354+394920047
2251+395112215+395280304+395603767+396049327+396457546+396802347+397165621
2237+397735222+398502251+399205291+399875600+400546209+400995907+401403053
2224+402169559+403173477+404028352+404731317+405557725+406601802+407703537
2210+408709126+409688765+410880565+412426713+414151819+415711753+417153130
2197+418864600+420896169+423052376+425239893+427420729+429672012+432076800
2183+434603485+437289409+440229547+443235345+446003231+448624094+451347559
2170+454291586+457413597+460439487+463212359+465798522+468199671+470397209
2156+472401905+474127210+475514195+476599054+477244884+477342751+476999146
2143+476165908+474824192+472986213+470443126+467314982+463824637+459763793
2129+455128413+450321081+445531846+440611491+435554581+430563680+425642677
2116+420766394+416065105+411540978+407253490+403284132+399354309+395317995
2102+391405646+387812573+384582724+381576827+378677994+375905022+373191927
2089+370487606+367890649+365509867+363347577+361292302+359240019+357239585
2075+355379470+353580429+351737364+349867777+347952921+346076927+344523549
2062+343229620+341870405+340421126+338988498+337583566+336142239+334678327
2048+333374875+332251353+331078947+329815231+328737925+327880457+326932876
2035+325910087+325087368+324501440+323995654+323474139+323021724+322697961
2021+322229368+321303922+320158488+319250816+318513426+317655883+316615296
2008+315518471+314551022+313629814+312549591+311402462+310373541+309393728
1994+308121187+306579750+305495638+305123067+304915842+304457743+303790874
1981+303094141+302346430+301619859+301110334+300688256+299955303+298720154
1967+297514993+297070854+297039195+296730738+296208550+295665547+295053370
1954+294431520+293952407+293601747+293080930+292083243+290638376+289702212
1940+290101506+290689728+290508752+290066357+289859456+289778466+289638322
1927+289255231+288307823+287297523+287045977+286995847+287052383+287740516
1913+288233863+287909776+287565996+288014897+288787609+289237258+289431894
1900+289461733+289124459+288553886+288302639+288161497+287686996+287706265
1886+288497574+289216991+289648592+289883587+290049731+290315810+290554743
1873+290278194+288804635+286948858+287508862+290053993+291990013+292808269
1859+293255549+293767467+294333105+294787464+294940870+294617083+293837664
1846+292689962+292326713+294169105+296385538+297486351+298194202+298952406
1832+298657062+297311058+297286205+298657386+300082260+301767856+303148483
1819+303566324+303466538+303106879+302052581+300715727+300388399+300842784
1805+300791432+299565905+297713842+296809635+297031717+296869237+295370053
1792+294208690+295904331+298331130+299308700+299176657+298757820+298591950
1778+299146370+299409982+297961376+295462984+295367161+297693651+299998702
1765+301115370+300709420+300284824+300857691+301415775+301875145+301274135
1751+298231344+295074708+295146749+296500854+297104456+296996619+296809810
1738+296981238+295968395+293153470+293176653+296194640+299244586+300987365
1724+301278173+301066511+299908513+296104751+293183832+296826337+302206785
1711+305681450+306830947+306250079+305944289+306815517+306799140+306315614
1697+309121192+315557359+322257436+326327528+328510234+329933813+330174192
1684+331942472+339166334+347010873+353012224+357671983+362569006+367082090
1670+371275375+378359042+386386652+392282283+397793204+404991414+411788212
1657+416103294+417922627+422665397+432311321+438859962+445767713+457575379
1643+468816684+476779930+481821634+484619634+490031416+500664383+509477767
1630+515337552+520335483+525326234+529966301+535494596+540892718+543767296
1616+546250906+551709104+556993006+560038988+562208407+565005111+567835217
1603+570312046+572884349+575460790+577550042+579659784+582721121+586390199
1589+590297537+594832159+600089039+605664348+611102106+615667139+619494210
1576+626530040+636770892+644990895+652860960+663454092+674550467+684320632
1562+691275596+694620064+702349985+718450572+732950544+745512227+756547778
1549+767210010+775932009+781144867+783841709+788515777+803740201+819386454
1535+828903152+836628088+846229491+855194537+861978197+867406582+871543106
1522+875634162+882102436+889552667+898024939+907330199+914221548+916645331
1508+913715713+913446193+924447443+933795580+937752025+937442721+937245193
1495+940822536+943874799+941866314+937762296+939417703+943382425+944771703
1481+943588927+941636779+938694397+932410589+923400973+919607256+923363581
1468+926459219+925193783+922794828+922593910+921379226+914837365+910658863
1454+917882150+927179434+933875748+938055148+943375046+951193711+959220772
1441+965676781+969315646+971623465+977856918+986123885+992283153+998302925
1427+1004893944+1009232782+1012098386+1014407401+1014494150+1015779928
1416+1020837885+1025052583+1026950089+1027836722+1027947801+1027283424
1404+1026764227+1026008615+1022987162+1019204613+1017310995+1016667359
1393+1017974574+1019086854+1015631557+1009175249+1007069645+1009704716
1381+1013036470+1015789699+1017068597+1015462347+1013674523+1015101492
1369+1017398542+1018605248+1018613425+1016250166+1013353453+1013176166
1358+1014335908+1015038574+1015167999+1014507811+1012719887+1011236382
1346+1010537704+1008930856+1005584445+1001098731+998533956+999689411+1001383407
1333+1001705375+1001922945+1002594301+1003429882+1005157580+1007485441
1321+1008812599+1009550762+1011812813+1015412292+1018851236+1022250196
1310+1025834220+1029807517+1034694269+1039577033+1043418312+1046206640
1298+1047833929+1048889872+1050816294+1053890494+1057155442+1059654607
1287+1060790718+1060848849+1060737173+1060815745+1060375320+1059066509
1275+1058223649+1058006977+1056905765+1055326537+1054071869+1052736735
1263+1051694552+1051409278+1051764350+1052191314+1052394326+1053183142
1252+1054150741+1054691575+1056294634+1059003791+1060845459+1061320584
1240+1061724315+1062939896+1064058956+1064647452+1065247415+1064985374
1229+1064190774+1064821747+1066032343+1066406659+1066710679+1067000240
1217+1067013303+1067191387+1067751964+1069099762+1070906531+1072082926
1205+1072562936+1073075951+1073682694+1073741823+1073343177+1072929176
1194+1071693752+1069788967+1069956183+1072332902+1073297310+1071804930
1182+1070040638+1069438282+1069346049+1068193885+1065761527+1063536369
1171+1062938500+1063853351+1064846276+1064634888+1063111100+1060478920
1159+1057132209+1053989109+1050883201+1047339759+1044156276+1041670971
1148+1038984050+1035606927+1031707815+1027187203+1022385006+1018082163
1136+1013830172+1008259500+1001377025+994820308+989667924+985157582+979884548
1123+973551483+966715573+960417706+955370219+950757673+945784670+940363565
1109+934515595+929093493+925278637+922991758+921284999+919875679+918642748
1096+917713638+918021347+919491192+920732399+920960638+921050079+922242028
1082+924213321+925307254+925430298+927266183+931403106+935167009+937853831
1069+940269637+942656427+945640188+948955092+951496135+953294628+955034391
1055+956596968+957374217+957499654+957579324+957989436+959265841+961548732
1042+964095559+966185608+967222606+967403781+967791658+968687465+969837036
1028+970635226+970912124+971752192+973153336+973812228+973735351+974271698
1015+975215665+975226035+974989520+975300320+975404418+975006869+974482687
1001+974100892+973727673+973337502+973196810+972966177+971760368+968994177
988+965364385+962691623+962086475+962668390+962277721+960062136+957056737
974+953720495+950079337+947075034+945372364+944709982+944531598+944260383
961+943705091+943553131+944290695+944981296+944692931+944004025+944059764
947+944863238+945694431+946603500+948003945+950223918+952814319+954341497
934+954902773+955851326+957378206+959022745+960015969+960034516+960484114
920+961944486+963233355+963880581+963495695+961794919+960189467+959431561
907+958298541+956674144+955856810+955251463+953863182+952444888+950768541
893+948505593+946735019+945657738+945318221+946485541+948216629+948081521
880+946294395+945424912+946781085+950157510+953902369+956996112+960839186
866+965687250+970496029+975429147+980371638+984297373+986586944+986780484
853+984656832+981824233+980753333+981174414+980963225+979787130+977957726
839+976272306+976615213+979048568+982019766+983478045+981835101+978450400
826+975715019+974289546+974517386+977006381+980665886+983475452+985270057
812+987352129+989178840+988714684+987603700+989623154+994030095+996477510
799+996726090+998813348+1002589914+1004702697+1005156085+1006312238+1009606401
785+1014483082+1019416001+1023583037+1027408761+1030739518+1031883008
773+1031156112+1031337288+1032867059+1034065390+1035028402+1035846334
762+1035805751+1035633450+1035746323+1036665662+1039310106+1041898113
750+1042619724+1043001020+1043830818+1043857840+1044193368+1045195467
739+1044239934+1042384206+1041506746+1039206605+1035260929+1033472008
727+1034320651+1033911735+1031846912+1031032869+1030914512+1029828755
716+1027858659+1025375847+1023453612+1022569372+1021479328+1018963212
704+1015632355+1013414975+1013241078+1013710519+1012925791+1011298103
692+1009853386+1009361609+1010473490+1010139358+1006380141+1003525206
681+1003472858+1004048990+1006149110+1011197793+1016156338+1015440211
669+1009543882+1009743603+1017579817+1023248406+1025231664+1023853155
658+1021210905+1021561290+1024676272+1023936813+1018955833+1016901680
646+1016537534+1014521272+1014090020+1017258447+1024162759+1032522556
635+1038230930+1038669461+1031825076+1020497171+1011693658+1008986595
623+1010745204+1013250650+1013818506+1011399709+1007135753+1003833015
611+1003617838+1005222293+1008839720+1015826992+1019870585+1017354569
600+1012337095
##END=
