##TITLE=Sample description
##JCAMP-DX=4.24
##DATA TYPE=INFRARED SPECTRUM
##DATE=24/8/2023
##SAMPLING PROCEDURE=Instrument type and / or accessory
##ORIGIN=Default
##XUNITS=1/CM
##YUNITS=ABSORBANCE
##RESOLUTION=4
##FIRSTX=4397.6552
##LASTX=599.8556
##DELTAX=-1.9287962
##MAXY=1.5673766
##MINY=0.56518292
##XFACTOR=1
##YFACTOR=1.4597332e-009
##NPOINTS=1970
##FIRSTY=0.80305451
##XYDATA=(X++(Y..Y))
4398+550137859+549565346+548010320+546682200+545914956+546125734+546804330
4384+546920335+546337410+546024183+546616500+547213064+547207470+546606864
4371+545212963+543793174+543451405+544194966+545320679+545631537+544651311
4357+543997663+544574709+545231256+545183931+544611540+544408602+544595248
4344+543887374+542416177+541047592+540284228+540932118+542867785+544796103
4330+545551138+544981401+543804811+542837039+542487144+542187270+541706344
4317+542000869+542565216+541954443+541115783+541323008+541949951+542530304
4303+542706252+542064446+541871879+542477385+541529335+539275582+539239772
4290+541241955+542284615+542254685+541784416+541189322+541745462+542674362
4276+542695023+542659499+542355255+540928076+539180932+538426265+539561124
4263+541782293+542630589+541354327+540011997+539793135+539400489+538052892
4249+536924892+537577560+539542055+540428040+539669739+538864398+538823035
4236+538947533+538522915+537366455+535759327+535215478+536825016+539081668
4222+540165323+539911181+539524946+540026370+540271202+539062722+537217866
4209+535980149+536252135+537788174+539158760+539246877+537667228+535742912
4195+535529562+536994307+538290006+538097889+537008191+536174267+536134251
4182+536626365+536165611+534372898+533416477+534584125+536316446+536880099
4168+535912285+534468854+534408667+535430380+536397458+537365925+537523171
4155+536575978+535758102+535350225+534719281+533941134+533237753+532766627
4141+533319295+534465139+534793882+534163386+533271480+532867810+533103577
4128+533740320+534395601+534606419+534640923+534521365+534215733+534702253
4114+535755080+535590443+534003772+532573489+532236089+532497785+532668710
4101+532835266+533021830+532781571+532025924+531459086+531887543+533072422
4087+533744689+532988756+531787421+531666067+532151035+531901997+530989471
4074+530581023+530850314+530773916+530415406+530743863+531504451+531620008
4060+531250677+531331648+531351901+530648356+530279556+530504585+530131334
4047+529541018+530046076+531103802+531356311+530961052+530602583+530505442
4033+531022301+531738790+531754633+530996454+529880704+528952661+528283620
4020+527825642+527885462+528466509+529525134+530560893+530776366+530470857
4006+530171677+529937584+529741587+529261274+528746171+528620652+528434496
3993+527993750+527528708+527490774+527975947+528036420+527751572+528034745
3979+528417510+528233069+527936870+527779705+527126874+526068821+525507863
3966+525991607+527204497+527811269+527564681+527595510+527518132+526668039
3952+526238848+526424758+526112104+526060491+526093892+525275363+525387775
3939+526855787+527914208+527448267+525412601+524000529+524870549+526225577
3925+526586905+526556729+526082745+524161246+522343462+523357662+525886136
3912+527363785+528130988+528927713+528043279+524754094+522048039+520999908
3898+521479935+523893956+525911861+524526412+522513979+523784770+524561773
3885+522797684+521813292+521201866+521990832+524567449+524951111+523136186
3871+521308561+520239238+521462541+522157715+521263890+522142485+524389500
3858+526152936+524499503+515507316+512080198+517927952+522856932+524532537
3844+523922662+522750441+521356213+518786701+517325345+517956290+519126428
3831+520864752+522376537+522849459+523910820+523384611+518620635+517769685
3817+519931279+520269373+522206224+524989943+525179978+521832198+519665867
3804+520146548+518317576+517134984+519350599+521287410+522368656+523366767
3790+524445604+525354006+524777328+523496901+523654678+523732178+523161706
3777+523793427+524651115+524808728+523906737+522443135+522122068+522809158
3763+524385295+525250700+523207765+521549514+522733536+522793315+517634815
3750+513993980+518095406+521509743+519079430+518571187+521512969+522888781
3736+519850267+515880975+516646789+520970427+524646623+524519838+522063310
3723+521387450+522717897+524593051+526151058+526701807+524518654+520341401
3709+520299262+523568603+526216962+526253711+524578841+525149517+527944791
3696+530599357+532217429+532114122+529363029+527632136+529852162+532703867
3682+533900424+533519089+531552144+526002631+521392595+521764171+519883423
3669+517015099+518611652+520578842+520315677+519276815+518238157+515854679
3655+514192834+515010670+513387494+506590587+503721855+506378217+508978761
3642+509443232+507821852+505384189+502874334+500567989+498860167+494464174
3628+486420854+483918267+485234546+485225604+481870800+477299595+476048281
3615+475515376+472876735+469904614+466949889+464370333+463492106+462644749
3601+460464208+457944186+455687084+453613240+452649101+453080620+452477441
3588+448769518+445968118+446092739+445896253+444382059+442705229+441368698
3574+440360093+439667899+438680405+435706896+431157291+429529869+429979721
3561+429400144+428360465+428062347+427380116+425428973+423894404+424051446
3547+424273248+423025528+421488713+420961728+420872345+420288399+419340593
3534+418753748+418095772+416751033+415859005+415619767+414420801+412872144
3520+412461287+412579089+412471822+412187341+411659907+410533541+408993459
3507+408155371+407852475+407069633+406225502+405434412+404422213+403932386
3493+403938960+403694863+403293561+403038643+402825824+402009989+400630869
3480+400206129+400547530+400063705+399142318+398824069+398814474+398387814
3466+397273698+395726961+394347188+393648216+393425066+393195301+392826991
3453+392489959+392427200+392122058+391021866+389936618+389617838+390116975
3439+390986831+391288135+391034728+390815253+390623176+390041966+388748799
3426+387811650+388272977+388770072+388241781+387727985+387626026+387666246
3412+387842152+387653710+387182339+387319700+387951134+388414135+388616746
3399+388575301+388744103+389286400+389104287+388464726+388777871+389536173
3385+389895091+390302355+390969518+391570982+391959095+391997315+392012463
3372+392690406+393656954+394250700+394731422+395656933+397277332+399144074
3358+400769863+402127342+403160365+403977547+404633849+405076024+405483983
3345+405903741+406481971+407565953+408821432+409499538+409764582+410081035
3331+410136404+410000635+410348325+411139333+411793838+412087710+412074194
3318+411894204+412073459+412989211+413981728+414297201+414368249+414613980
3304+414605609+414529211+414838314+415173835+415364931+415382244+415068283
3291+415085473+416051286+417358867+418429701+419404496+419901878+419733811
3277+420125069+421605861+423179222+424239276+424824325+425010399+425006520
3264+425247962+425924721+426365917+426117900+425957265+426285150+426367877
3250+426185846+426483678+427168930+427832051+428732572+429806265+430437658
3237+431065459+432037519+432114570+431261006+430940593+431262435+431453899
3223+431177136+430685267+430818708+431594690+432168428+432642943+433118112
3210+432794840+431973943+432038662+433001290+433627825+433769064+434192947
3196+435058761+436106606+436962497+437143222+436876912+437139588+438083759
3183+439083626+439789090+439903585+439764836+439961771+440305786+440921214
3169+441964486+442576811+442295720+442117976+442843162+443698155+444062626
3156+444699083+445755912+446270974+446062115+445726186+445625166+445844641
3142+446201599+446400862+446530505+446690406+446398575+445875837+446374321
3129+447547644+447925999+447806319+447982307+448263562+448583975+448942811
3115+449209570+449335090+449318103+449170902+448787321+448369236+448272831
3102+448457026+448671969+449001488+449664690+450163133+450175955+450199025
3088+450472562+450837401+451073373+451230537+451534536+451880959+452152577
3075+452308680+452384343+452524276+452439181+451945719+451586066+451740618
3061+452277443+452864248+453075475+452841341+452382873+451815954+451509709
3047+451867852+452621580+453328841+453758236+453684982+453272369+452976374
3034+452772497+452365070+452047883+452149351+452453758+452898425+453348481
3020+453562852+453867790+454433035+454857449+454954426+454866391+454660309
3007+454389181+454479094+455413016+456551142+456999320+457361546+458243366
2993+459235801+460199736+461083842+461729242+462673944+464108188+464990457
2980+465097969+465368934+465664357+465203521+464089078+462898155+462280849
2966+462378684+462082688+461658561+463146744+465015936+464221661+462610653
2953+462770962+463690021+464437053+465093110+464622800+463237229+463143927
2939+464428315+465138352+464984495+465095886+465499720+465373670+464675923
2926+464037098+463965968+464420679+464852524+464859017+464678006+464731374
2912+464837253+464874737+465242679+465713479+465567217+464968856+464769553
2899+465310339+466214086+466849971+466906974+466696033+466614490+466781250
2885+466982841+466866141+466728780+467044457+467438981+467524444+467559846
2872+467487490+466985903+466657895+467034902+467334001+467157481+467159891
2858+467513827+467858209+468011821+467707823+466664959+465816214+466544381
2845+467866049+468026153+467818928+468356815+469080654+469707842+470329110
2831+470592398+470595256+470802808+471225384+471552208+471680790+471569603
2818+471352986+471691161+472608383+473329609+473827480+474495133+475072138
2804+475367562+475779072+476447256+476928713+476863504+476640435+476820956
2791+477234631+477635811+478071576+478468060+478718527+478746865+478795129
2777+479183855+479645140+479932193+480301401+480806336+481068114+481012132
2764+481029568+481227238+481492609+481929395+482491986+483026280+483427052
2750+483447101+483302798+483713165+484598170+485161456+485383503+485706448
2737+486019388+486349479+486826403+487033873+487051227+487381767+487804629
2723+488202379+488836876+489306900+489181013+489040345+489580723+490553722
2710+491419944+492003809+492278612+492273630+492145334+492296088+492863538
2696+493400813+493613265+493596115+493667613+494127020+494741387+495183889
2683+495710752+496327568+496376159+495850317+495569838+495927042+496549044
2669+497024131+497380803+497684924+497901949+498083123+498272995+498506067
2656+498825827+499225251+499468981+499453709+499503607+499712138+499918424
2642+500139900+500468112+500798080+500883380+500928459+501231681+501546051
2629+501723795+501943679+502423665+503210917+503889187+504243613+504641200
2615+505227515+505818158+506315988+506738973+507156772+507397439+507172247
2602+506718352+506656164+507395193+508648793+509537841+509680387+509539760
2588+509703784+510103290+510026525+509568261+509633103+510242366+510872004
2575+511428511+511792329+511848719+511750516+511535900+511327409+511301440
2561+511418058+511860438+512561982+512981945+513077656+513131351+513253481
2548+513406481+513374346+513234045+513289332+513501049+513857027+514478050
2534+515157463+515727975+516228011+516411635+516206043+516169334+516504120
2521+516786763+516990314+517296231+517516400+517568625+517644941+517929258
2507+518346404+518613776+518675800+518645952+518595646+518662366+518915732
2494+519213361+519361338+519342473+519298946+519180531+518898093+518737906
2480+518862201+519060361+519149458+519036148+518867754+518871143+519001358
2467+519065261+518821368+518452364+518443422+518570615+518348772+517978094
2453+517831791+517794797+517556743+517102440+516690684+516580927+516709263
2440+516791827+516824084+516875452+516808323+516622739+516439278+516225683
2426+515808334+515080575+514418720+514302265+514418516+514254655+513896227
2413+513548946+513265241+513055566+512920859+512811387+512528377+512093510
2399+511787347+511557787+511208097+510839583+510577601+510410555+510181239
2386+509627264+508755734+507538474+505495131+502545796+499353710+496350884
2372+493306531+489771860+486053688+483021707+480663300+478719833+477410129
2359+476883185+477487711+479635463+483577642+488372732+491382459+490857924
2345+487848361+485365128+484466077+484181352+484171021+484626876+485493914
2332+486205667+486650252+487279726+488190170+489241935+490264709+491244364
2318+492477099+493911057+495042608+495766815+496468645+497435519+498634975
2305+499724347+500405312+500790771+501165941+501614037+501990187+502211132
2291+502400023+502654819+502986011+503461384+503935123+503969178+503637781
2278+503471919+503498583+503598010+503898170+504305638+504633074+504807919
2264+504924578+505197830+505557891+505736003+505743148+505947720+506384914
2251+506573887+506604552+506984377+507525122+507853661+508134058+508554633
2237+508986111+509235026+509320040+509565729+510127136+510791564+511307320
2224+511445824+511385922+511587309+512017643+512345978+512510084+512758591
2210+513186271+513664910+514223091+514790337+515190904+515542310+515964927
2197+516366188+516832904+517430040+517890958+518283726+518939946+519682976
2183+520103715+520225682+520423720+520840661+521434285+522158083+522726145
2170+523089187+523594123+524244136+524857482+525483527+526162613+526844436
2156+527271585+527310539+527385467+527714904+528110776+528506852+528786963
2143+528883328+528930449+528987532+529043024+528987941+528628206+528076150
2129+527706084+527534832+527202945+526586823+525810800+524845927+523680320
2116+522545175+521632976+520921591+520204980+519174039+517851962+516663817
2102+515760315+514869389+513796105+512651160+511598946+510558573+509522038
2089+508638912+507786124+506835338+505793209+504686973+503719283+502818965
2075+501747887+500720008+499906991+499126722+498223587+497189299+496168566
2062+495280703+494496473+493796072+493058432+492197641+491398629+490656334
2048+489844174+489131850+488591676+488081024+487487972+486711460+485790604
2035+484921483+484199808+483584543+482993328+482367692+481745853+481186243
2021+480651173+479937215+479011950+478298931+477967453+477699305+477251005
2008+476600664+475926968+475316439+474672265+474141483+473882808+473667702
1994+473121975+472122435+471158746+470692724+470517593+470319677+469900899
1981+469290452+468804667+468550974+468242158+467667848+466973776+466255490
1967+465641818+465484612+465590532+465420791+464882250+464133463+463357358
1954+462820084+462599424+462400978+461902331+461167590+460445425+460066744
1940+460217090+460379644+460220846+459854782+459280636+458664023+458220377
1927+457792779+457009161+456063969+455532329+455000403+454421724+454521764
1913+454718699+454285915+453699274+453621651+453817198+453706746+453254975
1900+452785972+452341673+451869322+451702153+451616119+450918454+450308456
1886+450417438+450525155+450488201+450398165+450110092+449828470+449756523
1873+449642028+448664578+446897631+446465867+447673368+448761515+449058449
1859+448921783+448791894+448689976+448469848+448234407+447938820+447240584
1846+445828267+444494635+444924397+446079020+446537978+446673174+446723480
1832+445726716+443573493+442526015+443097181+443725921+444462377+445284541
1819+445526310+445272822+444867640+444022284+442861291+442506212+442974194
1805+443271945+442892447+441807485+440821664+440604149+440341024+439026951
1792+437719492+438649699+440379570+440948409+440470014+439725555+439162760
1778+439176398+439024092+437317577+434492617+434206422+436433879+438312626
1765+439146549+438783466+438104176+438468892+439127072+439714612+439721839
1751+437717369+435031158+435012865+436521016+437289362+436950003+436441311
1738+436681855+436031597+433201859+432948412+435805058+438372486+439676188
1724+439801708+439588603+438822216+435496527+431572109+432884713+436372916
1711+438605559+438969785+437429254+435719840+435450386+433752854+430203729
1697+429990869+432793615+436125675+438023695+437921532+436878546+434175348
1684+430251013+431652141+435274724+437072092+436379123+434916500+434143867
1670+432736368+432857845+435636868+437044775+436149766+436208157+437417331
1657+437455877+434246846+428035438+428229760+430199441+429790707+431405390
1643+435508572+438455662+439255817+437602466+436436411+441270659+447371370
1630+451300034+453785880+456371193+459460707+463505050+467681241+470395503
1616+473436713+479162785+484671138+488532020+491964201+495808260+499477351
1603+503159713+507262895+511180984+514524885+517833220+521667398+525677196
1589+529301412+532558381+535920493+539594443+543102287+545566899+546454640
1576+548623870+554579625+559913991+563502520+568120927+573777584+578781900
1562+582367489+583063072+583875068+592415647+602274465+610958775+618667962
1549+626183644+632566304+636613260+638283597+640571976+652019793+665698129
1535+675467360+684664118+695390913+705044547+712679501+719073227+724730496
1522+732318003+742969666+753126112+763769200+775113956+784076621+788930387
1508+790595131+797867165+813063492+825544781+834308836+840200567+847108782
1495+857331541+866181426+871117103+874935927+882836701+892307405+899537463
1481+904662276+909205470+912928746+914770213+916380078+921630410+929232942
1468+934545014+935425119+935188698+937580751+938702667+934407326+931918582
1454+938991026+947571499+953149798+955042959+956411830+959639153+963778922
1441+967384763+968145474+965342890+965787230+970954019+973964522+973865217
1427+975174391+978493098+982346957+985406051+984783762+982514452+984622800
1414+987899777+988856729+988699523+988549096+987824563+987844408+988760609
1400+986610611+981504254+977727978+976057926+976766289+978083874+976299573
1387+972147147+971387824+974638096+978163579+979594352+978534829+976308229
1373+975981242+978166438+979850862+980133342+978945768+975202729+972089899
1360+972940360+974643078+974733481+974503594+975151035+975421101+975272389
1346+975547029+975206567+972943055+969248851+967432211+968910758+970841648
1333+971641476+971480596+971141032+972010521+974108171+975979527+977011448
1319+977702008+979311219+982642421+986618124+990372678+994339888+997718619
1306+999551429+1001506656+1004951862+1008645004+1011400222+1013070437
1294+1013259818+1013715428+1017651523+1023260774+1026461883+1027736022
1283+1028947933+1030133955+1030588503+1030747015+1031671220+1032498651
1271+1032001065+1030772087+1029788512+1028500816+1026702959+1026083774
1260+1026448163+1026387160+1026892422+1028077791+1028177177+1027197849
1248+1026364865+1026519049+1027999719+1029606970+1030331258+1030650487
1236+1030528316+1029535105+1029075412+1030892706+1033100686+1032856752
1225+1031363179+1031259464+1032195591+1032702078+1033440413+1034152206
1213+1033103217+1031344804+1031659950+1034355797+1036545647+1036717389
1202+1036613184+1037108320+1037191455+1036405347+1035842837+1036605344
1190+1038477436+1040017068+1040380478+1040708608+1040971570+1039651617
1178+1037544983+1036616941+1037244456+1038516553+1038807689+1036762632
1167+1033718891+1032873820+1034486298+1035749739+1034903035+1032298326
1155+1029798557+1028826660+1029255974+1030329952+1030199696+1027989184
1144+1024894158+1022331425+1021412120+1021037604+1019416715+1016884116
1132+1013968508+1011026767+1008831935+1007595362+1006733632+1005292977
1121+1003222113+1001062152+997992769+993542592+988617041+983855802+980681723
1107+979605867+978806121+977433085+975650009+973686044+972865473+974453533
1094+977027128+977370693+975878753+975980426+977632593+977745944+975864870
1080+974340835+974289631+974662596+973749906+971540048+970106499+969788413
1067+969287642+968507169+967899989+967774388+967915260+967947518+967920323
1053+967747112+967035972+965488663+964093006+963780310+963728289+963375578
1040+962724870+961138770+959246344+958784528+959477456+960677117+962417564
1026+963215514+961966283+959699259+958071591+957418434+957369435+958058362
1013+958363054+956984955+955119152+955087875+956829302+957455673+955527560
999+953118357+952378798+952254013+951238426+950254279+949561024+948757848
986+948465568+947528461+944946373+943292410+943478361+943139859+942092667
972+941800143+941972130+941196393+939674971+938645583+936777085+932754751
959+929222979+929022655+930750280+931232023+930277276+929191538+928176686
945+927638104+927605602+927410259+928175379+930954852+933683528+934592134
932+935189596+936937393+938437582+938656771+939045823+940244096+941396880
918+942313163+943779705+946090338+948105997+948932693+949150657+949267111
905+948618200+947541446+947406372+947649652+947441733+947361456+946961868
891+945505943+944397747+944958296+946117533+946263387+945869026+946512629
878+947617639+947707634+946883715+946374941+947710411+951111518+955293181
864+958304092+959394240+959765898+961182543+965420554+971202689+975648947
851+978408575+979457073+979683694+981435656+984573230+986506651+987445964
837+990347852+994455853+996283518+995115707+992354201+989975296+990002735
824+992101039+994861973+998323513+1001719965+1003454042+1004191152+1006302358
810+1010452253+1014485367+1015534518+1013901543+1012926869+1013772430
799+1016279304+1020357497+1022756982+1021448625+1020707759+1023530840
787+1025824405+1025389049+1025489333+1027050525+1028886357+1030298429
775+1030031384+1028625764+1028276237+1028580766+1028753570+1028980926
764+1027885225+1025790433+1024682727+1026730725+1031482655+1032448018
752+1028508901+1025631757+1024381873+1023348155+1024480197+1028718372
741+1033356706+1034382828+1032291221+1030439873+1028312741+1024736299
729+1020242104+1015875797+1014980094+1018692835+1022881276+1022475564
718+1016593552+1010799575+1009755731+1012205685+1018099702+1025564874
706+1025131395+1017768304+1013762467+1012413441+1012104665+1016698328
694+1021499176+1018739711+1011673228+1008103319+1010082147+1012123938
683+1010134167+1009101920+1012256970+1015412756+1015642480+1014640939
671+1013118129+1012695186+1020635322+1027433453+1024081018+1021595704
660+1025425879+1030419538+1033323958+1030823617+1023687066+1022178793
648+1031479633+1041160952+1034470210+1012875665+1000108876+1003621701
637+1003968369+994139972+984628517+979963887+981111200+988598013+999764494
623+1004778405+993945527+987936363+1013477456+1041420075+1032297754+1021401259
609+1035067835+1042775716+1016661252+995512926+1020683504+1073741823
##END=
