##TITLE=Sample description
##JCAMP-DX=4.24
##DATA TYPE=INFRARED SPECTRUM
##DATE=24/8/2023
##SAMPLING PROCEDURE=Instrument type and / or accessory
##ORIGIN=Default
##XUNITS=1/CM
##YUNITS=ABSORBANCE
##RESOLUTION=4
##FIRSTX=4397.6552
##LASTX=599.8556
##DELTAX=-1.9287962
##MAXY=1.4513314
##MINY=0.46730056
##XFACTOR=1
##YFACTOR=1.3516577e-009
##NPOINTS=1970
##FIRSTY=0.7103954
##XYDATA=(X++(Y..Y))
4398+525573456+525524243+525199465+525160307+525762369+526207797+525648201
4384+524339301+523505859+523493953+524012715+524945729+525859736+526354157
4371+526041462+524751788+523463878+523290575+523831386+524404962+525039127
4357+525243916+524652745+524132484+524559700+524981977+523703768+521669201
4344+521105591+521900712+522560939+522404481+521468425+520461284+520468780
4330+520912489+520443468+520055278+520917163+521558075+520824823+520148236
4317+520827380+521846516+521873680+521423093+521164814+520701835+520228052
4303+520080943+519647024+518924973+518558655+518606060+519029528+519610203
4290+520007962+520287363+519869231+518490172+517600065+518132454+519358274
4276+520086632+519865571+519484525+519698177+520095892+519830955+518938246
4263+517999103+517067897+516401541+516629348+517253856+517117816+516660260
4249+516696288+516333587+515756660+516198913+516702418+516378257+515986143
4236+516047394+516324326+515944383+515036681+514792293+515052865+515333633
4222+515666040+515318728+514443526+514230888+514167785+513374428+512736073
4209+512798912+512728709+512344135+512220795+512226748+512168098+511927944
4195+511067029+510112055+510123168+511061120+511792609+511644529+511483133
4182+511899236+512338711+512317500+511722979+511149006+511093973+511021785
4168+510855935+510976718+511011907+510908278+510886362+510620895+510647045
4155+511440005+511713983+510908367+510354900+510629803+510695685+510102530
4141+509596115+509503246+509699700+510065532+510254843+510243818+510215993
4128+509775503+508916662+508497471+508410996+507807655+506857355+506662356
4114+507929232+509421886+509793760+509630423+509022319+507854751+507701380
4101+508893378+509556780+509127800+508616755+508080486+507176665+506566356
4087+506878654+507508366+507712008+507701513+507693355+507295992+506156382
4074+504893564+504264778+503909574+503916320+504633565+505008085+504488882
4060+504195413+504769518+505392526+505453645+505058621+504411094+504126224
4047+504106116+503693496+503464454+503816352+504041204+503682295+503051614
4033+502613550+502423005+502763349+503802858+504772781+504971749+504375992
4020+503545505+503083937+502869844+502700378+502665320+502924304+503221742
4006+502787294+501781166+500797264+500000953+499909495+500125219+499735883
3993+499855167+501104050+501778344+501703731+502067756+502226021+501742008
3979+501875094+502677888+502773271+502081514+501367841+500708143+500229245
3966+499990766+499786331+499786066+500113842+500373753+500172712+499880567
3952+499949976+499375342+497859228+497523294+498273480+498390206+498501772
3939+498991695+499166276+498759919+497296369+495819104+496187979+497281155
3925+497629657+498061459+498690245+498097134+496569863+496228108+497410184
3912+498485324+499289749+500350822+500009508+497607961+495594031+494344442
3898+494420598+496478714+497955581+496385051+494603117+495709610+496183481
3885+495003434+495206635+494577673+493738190+495242839+496175191+495359344
3871+493388056+492075143+494069274+495052911+493079418+492747277+494400754
3858+496123156+495425226+488140990+484533908+489474938+494363712+496414728
3844+495628956+493133570+489738861+486269627+486525128+489698909+491582178
3831+492279226+493611410+495067772+496218671+495203989+491068928+490910618
3817+492748291+492367157+493891649+496585959+496808386+493679408+492150285
3804+493572737+492283195+490625925+491757289+493109757+495171181+497293634
3790+498050832+497925507+497137133+496529249+497018025+496526912+494940904
3777+495263962+496746077+497170294+495766408+494236668+493968996+494239975
3763+495736642+496597909+494204829+492442431+493553554+493653699+489643258
3750+487120002+490492927+492313225+489765584+490355564+493561756+494457243
3736+490967636+486819257+487211725+490772284+493891693+494513379+493586319
3723+493273094+493621905+494326582+495649594+496717237+494648494+489776917
3709+489183013+492673325+495846048+496154465+494371077+494052737+495161567
3696+496187891+496587017+494971022+490537598+488807302+492165323+495611582
3682+496409569+495441939+493939936+489887954+486664387+487856473+486269892
3669+483402323+485627656+488623019+488694325+487272535+486368890+484769653
3655+483458327+484601729+484193828+477772271+473116816+474700663+476998184
3642+477117865+475001849+472014953+469040448+466355311+464241853+459222814
3628+450991321+449280120+451328623+451853470+448941275+443557595+440066224
3615+437520479+434407597+432473527+431047901+429623553+429097780+427904238
3601+425074461+422398893+420575993+418495917+416805574+416278698+414524986
3588+409871648+406604380+406465518+406505955+405682391+404746732+403725126
3574+402021774+400252188+398871277+396054244+391633608+390103383+390835400
3561+390712721+389827465+389252963+388577788+387176150+385893135+385248916
3547+384063092+382238824+381256201+381205225+381069890+380329846+379447589
3534+379185341+378919478+377492881+375763380+374966760+374161055+372981008
3520+372476533+372447340+372335509+372352972+372137291+370999533+369468911
3507+368560702+367643145+366074797+365060005+364765765+364069091+363194441
3493+362895791+362584066+361644393+360739249+360499117+360505952+360161132
3480+359600675+359053250+358243489+357229931+356728058+356884053+356817642
3466+356181757+355260826+354047837+353079965+352726281+352281559+351542265
3453+350924394+350442298+349749351+348920672+348695775+348651876+348047940
3439+347754978+348194961+348588618+348425083+347999234+347999785+348245188
3426+348135164+347755419+347234937+346655497+346387958+346677391+347467882
3412+348132563+347888373+346997428+346465966+346698823+347166608+347502410
3399+347970923+348488297+348425656+347573098+346741619+346799299+347684952
3385+348849918+349897563+350970321+352167853+352994901+353145692+353166396
3372+354061684+355851202+357218267+357842841+358980423+360865236+362541357
3358+363749297+364896403+366258992+367817903+369471336+370869358+371446417
3345+371603492+372285635+373492847+374815461+375886235+376512287+377134105
3331+377670859+377464836+376832037+376532351+376778900+377472376+378339332
3318+378971116+378959077+378614941+378837765+379389160+379440754+379058164
3304+378588174+378381445+378500640+378645148+379007496+379812451+380741319
3291+381339766+381639320+382169812+382894024+383469937+384438669+386062161
3277+387395226+388137827+388985160+390018186+390939735+391650541+391941629
3264+391823403+391754876+392224646+393269050+394071270+394085470+393972228
3250+394111487+394436353+395204795+396288181+397031576+397000972+396675357
3237+396704505+397013055+397726684+398762841+399311061+399486833+399911183
3223+400208576+400029320+399648759+399280898+399220661+399641880+400059923
3210+400090086+400003787+400148118+400690208+401498779+402070193+402209585
3196+402265942+402605007+403309861+404038306+404373403+404476326+404758285
3183+405094220+405141316+405281722+406124997+407216894+407746989+407817942
3169+407955438+408248554+408498189+408820453+409249389+409385077+409289562
3156+409313683+409411139+409762198+410593656+411388027+411666193+411623022
3142+411517629+411443722+411489451+411583423+411437901+411120267+411235494
3129+411969893+412681449+412806509+412501134+411991456+411551628+411699928
3115+412074183+412064305+412091028+412487949+412950972+413102712+412721666
3102+412224379+412437899+413299519+413977076+414100769+413722281+413193552
3088+413221290+413875696+414390225+414350625+414428193+415143233+415667242
3075+415394720+414887556+414880235+415457956+415703050+415268117+415050672
3061+415272350+415660011+416197955+416567404+416472594+416034574+415870223
3047+416442123+417083785+417112713+416796534+416521851+416394850+416299997
3034+416148478+416083963+416148831+416409799+416833311+416986770+416878599
3020+417072143+417561051+417702251+417344048+417058429+417085989+417168981
3007+417247783+417441238+418004671+418996202+419809800+420176911+420568188
2993+421104633+421525411+421895962+422443079+423180168+424155250+425263331
2980+426125524+426608655+426713740+426719340+426847046+426694645+426355624
2966+426356198+426532191+426409997+426089188+426082264+426237399+426153349
2953+426066918+426253539+426834655+427701302+428336922+428486369+428414358
2939+428435083+428328191+427597849+426778034+426804360+427238587+427178174
2926+426697291+426369162+426315452+426044429+425377014+424801013+424700471
2912+425019913+425475395+426034904+426781121+427213672+427033843+426861510
2899+427099945+427647679+428399012+428799813+428596083+428633478+429223325
2885+429700592+429863708+429924298+429894268+429805499+429799370+429800428
2872+429610016+429376255+429383619+429623598+429845452+429853389+429875129
2858+430224381+430573809+430533636+430166128+429366201+428619896+428985067
2845+429960193+430451262+430777936+431303710+431739790+432320156+433140324
2831+433528161+433462853+433516961+433859598+434515459+435233939+435538387
2818+435604842+436068968+436850507+437340297+437579481+437787180+437810155
2804+437928954+438524622+439308542+439886615+440246759+440481358+440594335
2791+440711635+440998973+441330366+441569991+441835546+442220869+442679880
2777+443181312+443624756+443782757+443715199+443809392+444238989+444823324
2764+445265621+445377629+445415288+445899654+446727099+447335555+447641680
2750+447759949+447677663+447683440+448094869+448712674+449184781+449516791
2737+449851799+450120882+450273503+450656445+451522166+452340262+452603524
2723+452694056+453107249+453788819+454373198+454648807+454964545+455609558
2710+456224938+456580672+456838686+457014150+457168314+457612905+458331914
2696+458839167+458989980+459061418+459171308+459461249+459976748+460320664
2683+460410976+460712470+461156796+461208787+461115962+461412693+461840747
2669+462110271+462387908+462754358+463104844+463319996+463472000+463716652
2656+463978503+464083190+464060833+464192287+464593706+465077764+465536069
2642+465876765+465989346+466030798+466288988+466811411+467359498+467773308
2629+468099982+468441473+468886460+469329154+469617595+469889103+470339691
2615+470909121+471541390+472294751+472863873+472993651+473175201+473775279
2602+474558846+475390435+476094628+476378791+476488109+476742551+476976400
2588+477222331+477722529+478349506+478988743+479658891+480141009+480440960
2575+480897456+481427111+481717580+481921443+482231316+482459255+482572630
2561+482794352+483237619+483836507+484330398+484665671+485128958+485659230
2548+485997017+486226059+486471902+486835882+487324702+487743760+488154748
2534+488569309+488733527+488791560+489043532+489440762+489902330+490425943
2521+490872915+491131370+491363631+491822862+492325793+492419677+492306082
2507+492580720+493200245+493610087+493713804+494005376+494675834+495361946
2494+495747181+495912723+495985131+496024069+496217877+496484050+496642844
2480+496768390+496907605+496974325+496887585+496877884+497119141+497378257
2467+497404760+497139602+496906371+496962860+497005546+496861127+496681562
2453+496369705+495969741+495931376+496172633+496113631+495681961+495212235
2440+494797455+494372488+494126909+494173211+494099304+493655596+493157383
2426+492717070+492279888+491988845+491724348+491323723+490891392+490453063
2413+489983293+489523798+489178647+488957322+488552111+487759900+486922225
2399+486360820+485863931+485256003+484760657+484456693+484135002+483792189
2386+483439762+482668101+481097747+478776149+475922030+472733697+469422111
2372+465986877+462304652+458679401+455341049+452383257+450329242+449464315
2359+449722109+450872699+452556119+455085107+458481139+460828975+460121432
2345+456764470+453836488+453055346+453106543+453205233+453634478+453994313
2332+454044099+454392336+455137010+455950343+456896410+458003255+459122669
2318+460241553+461338080+462344340+463187880+464069299+465218302+466071985
2305+466344375+466720305+467245462+467425115+467626949+468275622+468989119
2291+469399357+469589726+469877991+470393843+470810078+470858277+470757117
2278+470880370+471258329+471715708+472027962+472005869+471927508+472139793
2264+472636198+473367774+474089870+474401065+474462669+474873261+475664677
2251+476340735+476766673+477139693+477479287+477860245+478437921+479036500
2237+479578369+480293321+481217339+482153131+482973520+483708183+484318800
2224+484863801+485560231+486271126+486806557+487410119+488227465+489085028
2210+489927377+490737536+491402878+491966134+492626582+493482249+494454950
2197+495476732+496395722+497205528+498260647+499464287+500407178+501201462
2183+502124112+503206219+504325589+505363643+506321527+507294581+508441379
2170+509762274+510993475+512016050+512974464+513954574+514918676+515847809
2156+516780382+517632653+518342622+519127777+519948651+520432752+520691649
2143+521076002+521453476+521620738+521572804+521253715+520738745+520143914
2129+519361626+518310828+517168660+516116186+514989144+513602015+512107508
2116+510641180+509129696+507515774+505836058+504088124+502137474+500047211
2102+498130560+496365031+494577982+492873483+491313801+489765893+487991367
2089+485976423+483993758+482165743+480512441+478954743+477357358+475787886
2075+474274814+472715661+471049880+469329595+467646748+466004648+464499690
2062+463190482+461841409+460322119+458791365+457389066+456019223+454577854
2048+453223137+451958643+450613583+449246650+447935810+446656058+445343233
2035+443993807+442704177+441482458+440309554+439190052+438022043+436734266
2021+435467743+434211275+432824366+431568030+430588979+429644808+428688026
2008+427727893+426621091+425405854+424299405+423351001+422471830+421618324
1994+420613961+419296594+418027514+417107774+416310360+415587073+415019098
1981+414457650+413725147+412803290+411843553+410976289+410153563+409168514
1967+408039091+407173634+406646582+406155513+405566988+404839292+404035705
1954+403398982+402940324+402369262+401593368+400696955+399560476+398521364
1940+398282488+398349825+398014023+397384840+396679899+396032284+395531513
1927+395065094+394291537+393203345+392352705+391642075+390985728+390913805
1913+390990535+390501406+389709196+389212173+389010913+388831877+388630131
1900+388415553+388028422+387450392+387030100+386671764+385966072+385504152
1886+385622157+385629256+385494583+385441225+385273654+384944026+384545297
1873+383962417+382657353+380827574+380462139+381662824+382580315+382695983
1859+382501337+382353566+382254170+382078839+381859101+381504073+380800807
1846+379517615+378223929+378530759+379547425+379792607+379672706+379649379
1832+378744852+376561411+375247043+375559473+376046574+376632981+377211584
1819+377163826+376582578+375966493+375253834+374295817+373816125+373986429
1805+374026602+373400595+372052051+370916718+370761010+370641991+369350950
1792+367781302+368347072+369833487+370123449+369288531+368361492+367732729
1778+367553208+367183010+365428285+362668556+362136278+363856431+365345602
1765+365875168+365262324+364482858+364656513+364860354+365048958+365011409
1751+363283275+360798053+360476296+361508066+362007315+361557830+360915727
1738+360996029+360402036+357770080+357148924+359312036+361404746+362576900
1724+362671401+362136587+360815428+357205721+353679624+355376008+358748647
1711+360611896+360595844+358918488+357186561+356729315+355190446+352087023
1697+351490054+353573327+356536234+358322930+358211959+357119952+354511368
1684+350825483+351933233+355151398+356849061+356235820+354626506+353652636
1670+352463968+352470715+354308784+354890694+353810814+353882516+354880287
1657+354702023+351592690+345796324+345724049+347275507+346868862+348392804
1643+351940311+354153010+354280474+352361772+351026876+355009250+360236539
1630+363725749+366095082+368441463+371201059+375329593+379720023+382482772
1616+385484925+391042834+396492970+400476115+403920566+407826850+411884476
1603+415809986+419811255+423695049+427087113+430275887+433716634+437382234
1589+441277537+445300370+449232274+453070560+456700617+459415035+460777999
1576+463548244+469472912+474511485+477995095+482359198+487661960+492599285
1562+496277806+497025743+497454193+504778822+513422450+521177514+527833494
1549+533751811+538487744+541423134+542555777+543852727+552544421+563423216
1535+570682933+577031421+584853337+592056919+597970738+603122422+606777306
1522+610876957+618153873+626464653+634987365+642955155+649132545+653172092
1508+655004958+660014868+670887224+679929493+686284155+690900054+695998865
1495+702542352+708247150+712173806+716147912+723261579+731499554+738326323
1481+744403788+750335688+754711653+756299779+757558937+764601916+775179216
1468+783313606+788681852+794596025+801740516+806756688+808661433+814168410
1454+825474464+836373764+845550618+853502445+861742228+870037310+877956505
1441+886103948+893567263+900055143+907308114+915304568+923059191+931160244
1427+939435481+945997974+951060008+955602750+958488222+961503958+967726812
1414+974103831+978166617+981096451+984353399+987025352+988167828+989665024
1400+991383854+991325910+990932297+992358232+995383316+997572930+996912174
1387+993859220+992271448+994685518+998879714+1001657764+1002621294+1003354369
1373+1005504913+1008826333+1011294819+1011958045+1010960208+1008253595
1362+1006781182+1008509801+1009976923+1009139336+1006883399+1005756798
1350+1006533530+1007388051+1007456402+1007130433+1006112576+1003988226
1339+1002825465+1003769326+1004486880+1004431053+1004583894+1004901660
1327+1005467960+1007053439+1009121345+1010652231+1012520640+1015628187
1315+1018484025+1020131241+1022944569+1027993109+1032622106+1035211419
1304+1036543603+1038119469+1041067207+1045491415+1050712993+1055016462
1292+1057243295+1058168371+1058788381+1059567318+1060733960+1062279222
1281+1064214659+1066365909+1068121340+1069047209+1069050208+1067680806
1269+1065185420+1062996070+1061326365+1059533275+1058277821+1058550696
1258+1059892845+1060605107+1060363189+1060295455+1060504653+1061584864
1246+1064284157+1065989316+1064635437+1063109313+1063653740+1064360092
1234+1063690252+1062827618+1063017149+1063494371+1062953913+1061994353
1223+1061936056+1062313442+1062254263+1062626093+1064070813+1065610255
1211+1066897283+1068515747+1069737070+1069658400+1069346984+1069666602
1200+1069940447+1069896262+1070097875+1070808108+1072045042+1073435258
1188+1073741823+1073034235+1072477373+1071687676+1070405146+1069860631
1177+1070450655+1070737023+1069903229+1068710570+1067972467+1067806219
1165+1067486336+1067068116+1067151725+1067159045+1066535772+1065231722
1153+1063225994+1060557658+1057649432+1055622096+1055107920+1055323909
1142+1054732210+1052306057+1049075743+1046765919+1044547994+1041116772
1130+1036925134+1032961215+1030457539+1029074202+1026561530+1021556558
1119+1015468113+1010700562+1006766277+1002328928+998331759+994929112+990820201
1105+986337079+982309130+978269364+974226687+970831360+967804776+965182566
1092+964307761+964099621+961485084+956782709+952137837+948268816+945043265
1078+942377133+939818688+936080724+931540981+928188341+926054113+923899424
1065+921542063+918700335+914819320+910440620+906215644+902247933+898699588
1051+895879380+893617711+891392466+889044453+886772994+885143858+883997678
1038+882688160+881290712+879796250+878218002+876923831+876262898+875755866
1024+874383554+872690124+871896546+871721215+871331217+870820216+870318387
1011+869877060+869861626+869794950+869810561+870654233+871178904+870857963
997+871298144+872764207+873775803+873621285+873020413+872899057+872757505
984+871628169+869841429+868169695+866849329+865039923+862107355+859153003
970+856828362+854416056+851435951+848453288+846418191+845167676+843950675
957+843099506+843573994+845125607+846715055+848345778+850383168+852755787
943+855356037+858119271+861360344+865252032+869483710+873788062+877757890
930+881233826+884707911+888223624+891019666+893272075+896130824+899207238
916+901061006+901774062+902554851+903303185+902941762+902183374+901918172
903+901261385+900037416+898570118+896580353+894595175+893336105+892511394
889+891367330+889736430+888434674+887712270+886717343+885160439+883299880
876+882253183+883802591+886849371+888186935+888108970+889946246+894139384
862+897889871+900295739+903167100+907676592+913399558+919240000+923929586
849+926868857+928443224+929420423+931057849+934637415+939731640+944315569
835+948063851+951505392+952724422+952079364+953161074+956327447+960300803
822+964595453+968177576+971901164+977195591+982066418+983850865+983629231
808+984527232+986361950+987437663+990053523+995657337+1000365092+1001692160
795+1001722852+1002151568+1005033953+1012448144+1020188215+1023594654
783+1025454508+1028832548+1033145631+1036399404+1037395389+1039007592
772+1043439208+1047910424+1049968892+1050134082+1049977271+1049770630
760+1048607075+1048004087+1050772701+1056091558+1058781590+1056237256
748+1052418329+1051469176+1053953625+1058497514+1061723771+1060548839
737+1057473483+1055081462+1051684459+1047439816+1043397139+1041771972
725+1043791899+1043785814+1040213216+1037932849+1036718052+1035996706
714+1037265919+1037854002+1035015274+1029872277+1026094273+1027470907
702+1031943534+1034008706+1032648476+1031197847+1031046504+1028039411
691+1021538126+1019391462+1024835203+1030707130+1032779622+1035194486
679+1038146016+1036851050+1033352888+1033751177+1037281794+1041580854
667+1046973618+1049244813+1047969779+1044967890+1041087932+1040085068
656+1040684000+1037650801+1037567457+1046121391+1053136147+1051965889
644+1043876566+1033509082+1032519006+1042437226+1043103538+1014417006+985509458
631+994918794+1020363193+1019619446+1006397534+1006385804+1009642312+994320744
617+974386143+980768542+1013307779+1049178137+1060555189+1040457956+1020706360
604+1024693474+1040531335+1042248665
##END=
