##TITLE=Sample description
##JCAMP-DX=4.24
##DATA TYPE=INFRARED SPECTRUM
##DATE=24/8/2023
##SAMPLING PROCEDURE=Instrument type and / or accessory
##ORIGIN=Default
##XUNITS=1/CM
##YUNITS=ABSORBANCE
##RESOLUTION=4
##FIRSTX=4397.6552
##LASTX=599.8556
##DELTAX=-1.9287962
##MAXY=1.5143206
##MINY=0.57711941
##XFACTOR=1
##YFACTOR=1.410321e-009
##NPOINTS=1970
##FIRSTY=0.81477863
##XYDATA=(X++(Y..Y))
4398+577725668+577648960+577321674+577235542+577537428+578716486+579922888
4384+580038267+578966557+577112218+576198657+577212255+578295629+578138495
4371+578332863+579226222+578440212+576522858+576192106+576397167+575347054
4357+574194875+573608516+573389635+573712019+574017032+573874394+573320154
4344+572735232+573102457+574084695+574033134+572979978+572367204+571946686
4330+570826965+569774908+570062255+572205083+574907813+575569443+573860193
4317+572571040+573288922+574375508+574137440+572711396+571827969+573255745
4303+575714406+576079517+573873675+571631149+571375753+572772846+574296307
4290+574718939+573615574+571491004+569884539+570099151+571498738+572841989
4276+574266976+575530265+575260119+573640509+572283185+572028000+572529495
4263+572938349+572777115+572320461+572330097+572823773+573044852+572723314
4249+571515052+569602601+568735403+569550152+570531038+570450358+569284401
4236+567915413+567355045+567611752+568229344+569111122+569786530+569525006
4222+569033865+569308576+569507593+568703156+567760391+567735625+567814361
4209+567105312+566606480+566914367+566926792+566309285+566609480+567827125
4195+568079267+567674766+567705027+567569996+566918171+565989902+564917432
4182+564767989+566252314+567574137+567545863+567377994+567214900+566270276
4168+565191128+564827369+565003395+565296659+565590262+565773684+565388286
4155+564465554+563564334+562638432+562360214+563851428+565502819+565325948
4141+565078243+566314441+567241949+566952404+566192427+565196707+564681223
4128+564991857+565264793+565296321+565546688+565573525+564636170+563684953
4114+564032145+564640524+564317464+564259944+565142652+565449483+564342103
4101+562683950+561831121+562186893+562027391+560277738+558673259+558798104
4087+560094400+561175492+561776644+562263262+562291367+561775207+560848756
4074+560002605+560515680+561663252+561487648+560587316+560596445+561532490
4060+562150800+561724533+561214163+561513682+561745285+560960457+560158176
4047+560477009+561500792+562148771+561411701+560169544+560036753+560086244
4033+559433531+559139422+559834397+560660600+560263200+558902832+558042270
4020+557867342+557736834+558205110+559656765+560249379+559070829+557893376
4006+557863834+558604454+559020831+558134446+557209516+558051948+559750885
3993+560521089+560372873+560348698+560546701+560058604+559308052+559222088
3979+559103752+558398590+557526109+557321598+558202236+558923119+558556317
3966+558089224+558373740+558688431+558288791+557810372+557786451+557951446
3952+557573444+556048039+555056926+556496790+558066233+557328360+556594714
3939+557652772+558934741+559412273+558490809+556301449+555121377+554959805
3925+554264998+553976721+554326449+553564148+552349927+552984297+555338314
3912+557572768+558627615+558449222+556608365+553714901+551585724+550063235
3898+550328014+552954713+554971300+553947221+552702740+553927484+553714647
3885+551304420+550883437+550861883+551225346+552889290+552646065+551262326
3871+550291964+548845464+549310021+550011801+548966252+549227819+551530359
3858+554132123+553889490+546415965+542531810+547567468+552959573+555858066
3844+555810309+553541284+550407046+547466501+547820455+550925573+552752145
3831+552666224+552518641+552958390+554263603+553627881+548671340+547004861
3817+547992805+547959163+550420275+553661565+554093748+551256029+549879433
3804+550878999+549216746+547722151+548865624+549793470+551142003+552914521
3790+553979849+554759012+555534922+555984053+555720627+553527886+551817707
3777+553699728+555445240+554601793+552442187+551192169+551723037+552526967
3763+553324896+553432583+551787742+551028357+552092671+551560958+546396186
3750+542986605+546974769+550232035+548468646+549133572+552679664+554053260
3736+550217116+544416326+543956883+548045253+551622831+551784107+549918188
3723+549247429+550096243+551410163+552983283+554240528+551978307+546609193
3709+546466132+550170034+552553509+552329767+551459019+552500384+554119063
3696+555221287+555910261+555010056+551524865+549924020+552980155+556476123
3682+557257781+556057084+554678670+550103597+544715676+544741076+543223743
3669+540711958+543243607+546286260+546471542+545426035+544641757+542693129
3655+541123644+541727162+538836614+529513991+526472649+530867892+534463516
3642+534944979+533388130+531268589+528369040+525490495+524266764+520130087
3628+510745422+507692499+509550472+509900116+505864025+499629318+497140694
3615+496762945+495289693+493033981+490089759+487588244+487431743+487878000
3601+486541892+484275444+482451662+480126806+477837452+477357808+476409253
3588+471724802+467758234+467901084+468607724+467944742+466710065+465346021
3574+463981428+463538256+463090942+459376263+453768827+452626411+453876429
3561+453633754+452470882+451715555+451103457+450147549+449309005+448734437
3547+447314690+445228453+444204458+444451149+444768080+444340081+443712600
3534+443246648+441983782+439761669+438214245+438242730+438210948+437082944
3520+436185655+436134305+436158522+435636191+434709064+433799518+433095033
3507+432967652+432663484+431061160+429301406+428412188+427959085+427516843
3493+427002162+426490989+425980450+425602913+425285601+424808281+424393510
3480+423898904+422705730+421227237+420539150+420621437+420762765+420570594
3466+419780484+418536721+417648941+417381203+417190470+417036801+416793196
3453+416173914+415414867+414202590+412938836+413187597+414283017+414454690
3439+413865372+413310203+413047706+413155731+413096267+412522375+411821947
3426+411076045+410214721+409475327+409211393+409464254+410010294+410690647
3412+410986658+410912951+411205624+411366815+410653328+410087805+410660344
3399+411642202+412227463+412308397+412006511+412189130+413043903+413405126
3385+412890276+412243438+412382864+413504867+414899172+416217529+417458756
3372+418459887+419356838+420180082+420605377+420732842+421166801+422287113
3358+423859007+425018540+425470756+426295691+427876968+429360574+430473871
3345+431308104+431589872+431637545+432345411+433338342+433487024+433259902
3331+433826059+434885597+435433877+435668057+436195755+436551189+436219719
3318+435779759+436001810+436840903+437557137+437327944+436900748+437530596
3304+438221768+438051827+437894735+438361659+439128735+439716109+440202601
3291+440622274+440612934+440495231+441103313+442615490+444370257+445635870
3277+446224216+446561645+447355432+448733972+449831758+450045525+449850481
3264+449664523+449383430+449212645+449812021+451099273+452201962+452944399
3250+453496271+453548762+453057749+452799986+453501428+454619627+454981780
3237+454361399+453866412+454549935+455691210+455824085+455324027+455303529
3223+455566364+456017059+456851122+457544661+457791140+457618157+457039828
3210+456505875+456556337+456969417+457262047+457659575+458326784+458904817
3196+459238485+459347439+459501658+460051037+460799687+461384440+461673816
3183+462195174+463421821+464528778+465107826+465739238+466298168+466166307
3169+465357643+465192732+466407038+467718126+468367711+468656876+468616050
3156+468715537+469286132+469590174+469608601+470163812+470985662+471476464
3142+471737735+471861397+472074572+472633714+472867641+472069923+471021712
3129+470844249+471545776+472333561+472580251+472568418+472769548+472969157
3115+473033186+473396269+473955241+474065633+474026878+474414177+474720628
3102+474399723+473906470+473736403+473857571+474423179+475265231+475789971
3088+476072119+476277307+476405238+476787931+477417187+477946745+478067195
3075+477657707+477385532+477649719+477602511+477032297+476725846+476641362
3061+476345478+476132978+476508656+477390350+478037907+477878321+477227595
3047+476849846+477155536+477933686+478362741+477937785+477257517+477032888
3034+477340226+477743839+477768606+477577323+477504841+477710282+478325127
3020+479130410+479804761+480130103+479955767+479510271+479162403+479008481
3007+479158134+479759370+480413013+480877823+481488272+482214988+483323931
2993+484979760+486102017+486368486+486780806+487728515+488805465+489647897
2980+490129740+490315824+490333364+490243174+490253782+490520082+490807176
2966+490778268+490219633+489448457+489234732+489552847+489655251+489586573
2953+489934230+490621979+491156143+491330521+491322111+491191433+490816897
2939+490545821+490841071+491505786+491965990+491976894+491749772+491427261
2926+491138350+491111767+490938572+490140010+489176916+488667603+488856519
2912+489610790+490394138+490827293+490935445+490982653+490975764+490742809
2899+490591718+490741372+490991824+491298866+491690519+492097344+492467105
2885+492717345+492804534+492793545+492609363+492231741+492067802+492333933
2872+492727361+493003762+493065002+492837753+492422179+492163444+492405654
2858+492948820+493346348+493491775+493188368+492311154+491583635+491815998
2845+492732982+493498918+493749792+493693751+493695611+493943442+494480987
2831+495203899+495859316+496301769+496457890+496586454+497269216+498162659
2818+498422832+498373806+498650546+499119667+499570995+499990880+500437179
2804+501028821+501717753+502208767+502256778+502080625+502105349+502393584
2791+502783208+503156012+503385458+503565077+503962773+504460084+504881068
2777+505263380+505386197+505283329+505353105+505547896+505759296+506155514
2764+506636469+506901501+507026051+507390866+507953896+508265207+508328264
2750+508552597+508905029+509172978+509585889+510161471+510585624+510851629
2737+511006777+511166912+511661476+512482945+513205772+513472918+513447602
2723+513634828+514213327+514856023+515244125+515594698+516038462+516135287
2710+515925619+516086557+516773461+517458209+517710182+517582632+517562007
2696+518172921+519084876+519403752+519129168+519016748+519368969+519935338
2683+520452808+520805283+521069766+521283998+521259021+521171029+521444641
2669+522049384+522673654+523041217+523130181+523241586+523548206+523895609
2656+524151090+524291235+524242209+524095429+524140228+524449468+524869564
2642+525382132+525987509+526549187+527093917+527680953+528144157+528357840
2629+528390425+528442282+528856123+529623242+530164422+530453544+530891982
2615+531246781+531384729+531664299+532217947+532725739+532948424+533208638
2602+533741366+534293238+534558313+534547282+534634344+534979381+535384854
2588+535818474+536432558+537230275+537969374+538373072+538366014+538101066
2575+537919334+538126170+538638146+539165464+539478592+539431130+539244116
2561+539365411+539896744+540554908+541023776+541178966+541256730+541599950
2548+542011635+542133057+542180265+542488871+542885891+543109548+543378088
2534+543874892+544368230+544749782+545215691+545775721+546046332+545865530
2521+545735275+546083523+546465794+546495463+546737039+547494606+548140050
2507+548253695+548311596+548691922+548981890+548955264+548858354+548840224
2494+548928511+549103946+549288889+549292904+549116329+549085857+549278070
2480+549373543+549263489+549247345+549505742+549919245+550225357+550173585
2467+549873981+549648887+549466522+549132896+548844703+548818965+548958307
2453+549144223+549170214+548951841+548732410+548506091+548110677+547756596
2440+547639104+547518231+547183211+546915601+546927308+546937535+546736658
2426+546391580+546051023+545753828+545321138+544778056+544334419+543946021
2413+543529982+543244663+543176577+543114366+542785516+542204060+541700156
2399+541330480+540966382+540692940+540441558+540220606+540055907+539717167
2386+539174381+538330344+536813349+534473237+531495796+528036597+524409191
2372+521225210+518225581+514723739+511108293+507930948+505530230+504683741
2359+505230500+506206145+507990454+511334824+515549730+518356005+517823616
2345+514803701+512258781+511033318+510456299+510809408+511765063+512054988
2332+511724997+512120750+513362653+514496405+515286050+516274797+517695812
2318+519124646+520244578+521147023+522039579+523083522+524159585+525005482
2305+525711531+526453292+527108498+527515323+527793711+528281597+528891835
2291+529176351+529205132+529255679+529301872+529448779+529792717+530150559
2278+530331784+530235762+530094265+530253090+530540817+530728889+530979763
2264+531317741+531540849+531688305+531951689+532314096+532699663+533032274
2251+533106530+533089667+533431196+534031502+534566131+534934159+535123963
2237+535421454+536059670+536682587+537032230+537523920+538278656+538809481
2224+539090869+539378344+539632726+539807484+539859003+539955912+540431711
2210+541218229+542101740+542930437+543482436+543797170+544154590+544735920
2197+545460987+546053094+546447494+546873676+547475884+548033420+548318738
2183+548647757+549451814+550579184+551467556+551896105+552282602+553026603
2170+553914763+554492797+554802417+555300277+556053280+556641372+556988057
2156+557412929+557895828+558212717+558415665+558731962+559115543+559195125
2143+559012674+559047034+559378969+559579635+559415569+559142169+558802838
2129+558195558+557468040+556800620+556142582+555352641+554276198+553077403
2116+552140175+551382100+550347920+549034423+547829838+546747605+545536469
2102+544326601+543342122+542372859+541164554+539879838+538762315+537652104
2089+536362824+535036732+533808522+532839934+532135196+531221424+529891232
2075+528604953+527689997+526974862+526168311+525031559+523692999+522635490
2062+521858735+520927677+519736786+518518042+517496668+516735889+516043364
2048+515087667+513917484+512964069+512251428+511490437+510707173+509896397
2035+508936853+508005331+507293619+506678985+506007424+505310842+504506151
2021+503478902+502448949+501660698+501139213+500737628+500188587+499405789
2008+498607099+497965417+497358856+496681208+496122574+495722849+495160748
1994+494285013+493301676+492542291+492029934+491493150+490889082+490268997
1981+489583235+488922872+488411699+488050603+487773399+487348611+486564334
1967+485687499+485186554+484962728+484659786+484253637+483729573+483049812
1954+482413371+481920118+481551709+481215759+480665831+479736929+478808787
1940+478647553+478943733+478940268+478645102+478240685+477720595+477086393
1927+476408154+475612930+474778359+474307294+473849203+473204478+472964846
1913+472823222+472189401+471437920+471242241+471412816+471433694+471319456
1900+471149220+470788969+470248423+469817465+469446775+468679402+467970268
1886+467886756+468023943+468243035+468428866+468324223+468087507+467900534
1873+467522532+466151092+463936375+463338562+464664908+465831202+466196863
1859+466185452+466067242+465888596+465672884+465444875+465059012+464303135
1846+462815429+461241548+461622466+462971845+463416327+463183245+462931314
1832+462029165+460213370+459385392+459900580+460253773+460640439+461203596
1819+461409544+461270329+460922123+460106021+458958364+458498964+458780141
1805+458935373+458455095+457157404+455997195+455808743+455565308+454239005
1792+452955134+453842069+455512774+456063929+455465736+454464817+453736918
1778+453681046+453395643+451485263+448393077+447968882+450287186+452218318
1765+452983746+452531657+451698269+451794714+452145963+452568172+452680930
1751+450816575+447950286+447654697+449062906+449809993+449459969+448973266
1738+449227057+448583304+445836367+445537566+448071581+450359583+451772357
1724+452173054+451890609+450829634+447458089+443701653+444989751+448404488
1711+450480709+450442461+448456979+446596639+446442209+444901082+441137082
1697+440320642+442873126+446516888+448806623+448906829+447804309+444860594
1684+440726410+442021100+445531015+447328764+446776891+445353383+444489777
1670+443109462+443112589+445322911+446092270+445002303+445369020+446777990
1657+446672205+443153880+436923274+437446407+439500820+438827526+440245582
1643+444530603+447517004+447975221+445976723+444669269+449241807+455009800
1630+458628078+460915868+463366498+466378384+470771049+475443582+478314688
1616+481024645+486257756+491593947+495469565+498835489+502882484+507099250
1603+510895794+514655146+518389055+521581404+524584457+528094456+531823885
1589+535431681+538908588+542304984+545870940+549447250+552091995+553157661
1576+555144157+560246379+564690732+567760560+572147394+577393902+581891888
1562+585129205+585298257+585267701+593441442+602940471+611302072+618506380
1549+624719405+629388345+632068168+633031642+634924060+646070001+659397567
1535+668454819+676604005+685694096+693330629+699309009+704833483+709690114
1522+715164463+723333766+732509609+742256004+751774179+759128310+763252266
1508+764431409+771149733+785623434+796673057+804164712+810105393+817409738
1495+826595048+833817994+837773236+842075881+851050128+861207406+869489975
1481+876249885+881904614+885908965+887732114+888345100+892232889+900471757
1468+907867391+912210608+916458818+921927166+925402214+925663231+928283971
1454+935718740+942677287+948174881+952986375+958626988+964196514+968218869
1441+971936085+974672795+974761547+977218813+983347650+987991105+991046395
1427+994344528+995894573+995700754+995394346+994060773+996034717+1003923731
1414+1010785073+1012988422+1012392004+1011613178+1010795216+1010656086
1402+1011921023+1011340411+1007834512+1004513387+1002904259+1004196582
1391+1006294526+1004598927+999175125+996963831+1000050395+1004235633+1006935489
1377+1008182929+1007718119+1006759337+1007480008+1008547069+1009131484
1366+1009434765+1008007875+1006463917+1007706285+1009705249+1010128219
1354+1009212968+1008184704+1007436477+1007352881+1007132858+1004905505
1342+1001262503+998459525+998222597+1000433384+1003267384+1005289677+1006285904
1329+1006436108+1006234512+1006994320+1008827527+1009980129+1010771295
1317+1013943400+1018173099+1020380758+1022152093+1024906807+1027157659
1306+1029053247+1032341407+1036525546+1040071511+1044190057+1049425704
1294+1053294306+1054873343+1055360976+1055699588+1056507660+1057870479
1283+1059979665+1062855420+1064484074+1063875822+1063619031+1064936544
1271+1065761098+1064934008+1063176451+1061022213+1059170325+1058165307
1260+1057189027+1056571985+1057954244+1059902239+1060184472+1059885080
1248+1059476141+1058705937+1059097717+1060782581+1062811298+1064586182
1236+1065200604+1064487117+1063201218+1062391540+1062044813+1061560308
1225+1061498350+1062228319+1063199443+1064231425+1065401608+1066220584
1213+1066470190+1066423278+1066736617+1068394939+1070141592+1069896635
1202+1068853833+1069072587+1070751281+1072951417+1073508446+1071648781
1190+1070500491+1071861872+1073135685+1072603507+1072099899+1072926228
1178+1073741823+1073577842+1072822599+1071332653+1069107919+1067256961
1167+1066168346+1065420457+1065729232+1067233716+1067787110+1066118729
1155+1064700884+1065357485+1065133913+1062258580+1059554159+1059178017
1144+1059443514+1057253943+1053472234+1051428303+1050665452+1048397187
1132+1045106492+1043275820+1042588283+1041011444+1038264675+1035557972
1121+1032875106+1029077844+1025384803+1023432244+1020974387+1016549263
1109+1014129020+1015110456+1014361806+1010295666+1006408045+1003450806
1097+1000570824+998757903+998527315+997891846+996102254+995562638+996427427
1084+996187287+994628706+993064292+991668762+989883312+987724762+986018513
1070+985808296+986500905+984743518+980329383+977611184+977589630+978097802
1057+977500117+974961452+972086373+970911203+971045684+970891762+969797230
1043+968269078+966512198+964861313+964008865+964406139+965693898+966346019
1030+965829309+964376893+961676614+958715909+956978048+956172680+955632642
1016+955637460+955407717+953779063+952419541+953305378+954904024+955041633
1003+954336515+954131792+954439721+954041348+952036130+949938524+949026315
989+948907387+949751044+951077263+951513165+950256005+947205449+943960059
976+942212561+941581319+941108816+939953088+937545270+934861727+933063006
962+932016232+930881719+929142420+927855845+927511992+926948032+926852686
949+928013909+928529689+927712573+927179127+927592545+928431976+929698012
935+931888428+934527425+936604830+938598384+941531786+944742773+946601846
922+946950095+947659355+949834894+952280411+953414755+952876660+952221919
908+953328200+955132922+955099703+953731982+952914950+952486064+952484458
895+952606345+951414861+950296324+950793930+951454842+951484173+951632601
881+951899620+950965012+948849824+948071675+949759581+952582255+955471788
868+957942155+959700980+960928725+961350934+961554812+964425496+970467608
854+975950241+979181092+982175607+985529613+987831857+989262466+990820963
841+992201363+993638649+995844364+998631282+1000857115+1001371289+1001171215
827+1002002785+1005124512+1010387208+1014940558+1018105647+1021762933
816+1025433406+1027049972+1026480603+1025736264+1025006970+1025004435
804+1029193053+1034245954+1034126265+1032451544+1033189290+1035527966
793+1038489854+1039982843+1040048520+1040559059+1042143336+1044841333
781+1047541950+1050611102+1054373285+1056267943+1056055022+1056153748
770+1056849738+1056975345+1056810603+1057456891+1059377837+1061469188
758+1061730882+1060757730+1059870457+1057285810+1053064986+1051514604
746+1053939158+1056233288+1054698035+1051113442+1050594366+1053544758
735+1054425861+1050474845+1045501653+1043000856+1042821068+1043735559
723+1043779175+1040960643+1036480155+1035898698+1040013526+1043111924
712+1044191832+1043092483+1038704635+1034999000+1034347048+1034899428
700+1033873447+1031440102+1030802773+1032412409+1033924501+1034625900
689+1035659742+1035235420+1030955682+1026287206+1027647574+1035895233
677+1044381763+1047109682+1043833102+1039226416+1036694683+1037793103
665+1045648982+1055659016+1059200585+1054510641+1049757808+1049839968
654+1049805988+1046825504+1048290769+1054069328+1051937067+1044318960
642+1046100015+1059387558+1064134220+1046616640+1038028171+1054275488
631+1062056984+1050741779+1037721255+1019714860+1000808512+992296117+986449260
617+980938733+992027576+1021884820+1045086797+1042458958+1036408561+1043060785
604+1041763644+1017089133+989082002
##END=
