##TITLE=Sample description
##JCAMP-DX=4.24
##DATA TYPE=INFRARED SPECTRUM
##DATE=24/8/2023
##SAMPLING PROCEDURE=Instrument type and / or accessory
##ORIGIN=Default
##XUNITS=1/CM
##YUNITS=ABSORBANCE
##RESOLUTION=4
##FIRSTX=4397.6552
##LASTX=599.8556
##DELTAX=-1.9287962
##MAXY=1.5215244
##MINY=0.58789736
##XFACTOR=1
##YFACTOR=1.4170301e-009
##NPOINTS=1970
##FIRSTY=0.8369031
##XYDATA=(X++(Y..Y))
4398+590603633+588017048+585664208+585299605+586958236+589822563+591158150
4384+589498383+587092165+585211104+584193977+584796068+585937996+586634813
4371+586982675+586222595+584900552+584942195+585993225+586516658+586297215
4357+585944432+585779797+584980598+583443950+583167469+584519166+585147883
4344+584849824+585290014+585183511+583471039+582775526+584658606+586908181
4330+586551023+584416364+583431710+583332861+583240281+583566900+583163347
4317+581263905+579835190+580442371+581492392+581395815+581379620+582445457
4303+583740621+584102069+582751213+580502353+580052993+581787043+582765641
4290+582284019+581931404+581956431+582040894+581690845+580953395+581073990
4276+581920720+582028612+581543582+581567474+581817960+581249267+579869346
4263+578923431+578944757+579217620+579753504+580518211+580750988+580698199
4249+580923152+581625016+582786378+583193927+581813249+579704963+578426624
4236+578271538+578298037+577563910+577049353+577663726+577979578+577502625
4222+577377865+577417489+577195354+577551334+578564381+579312809+579144262
4209+577362554+575036088+574768482+576118497+576782000+576626493+576305972
4195+576006146+575745271+575254647+575115250+575688318+576061459+576202329
4182+576404526+575839366+574269194+573245757+574140649+575795873+576377101
4168+575661944+574181072+573021855+573262666+574639769+575974473+576244392
4155+575830912+575919917+575754735+574150618+572780876+573603630+575536680
4141+576102891+574743455+572811329+571367809+571178693+572707560+574740763
4128+575361109+574380871+573160159+572684215+572934827+573000277+572110811
4114+571241704+571355190+571393257+571184876+571726312+571975578+571646435
4101+571835592+571672934+571251841+571741371+572213403+572276750+572584273
4087+572183622+570625227+569987299+571210409+572442731+572475161+571804171
4074+570959545+570107052+569332797+568993516+569414526+570088502+570535170
4060+571112360+571648580+571501864+571036436+571160438+571687614+571167799
4047+569256747+567633617+567482358+568273649+569133923+569467105+569235589
4033+569034275+568938287+568711021+568492293+568487876+569021362+569488388
4020+568830270+567847676+567696628+567948081+567785675+566959388+566369622
4006+566950092+567366474+566293950+564886814+564623541+565893341+567731035
3993+568576839+568471514+567871358+566814985+566249700+566553732+566906220
3979+566942184+566566477+565671374+564673428+564066037+564108226+564695805
3966+565205147+565054856+564525198+564820859+565967330+566447564+565782084
3952+564613530+563358620+562745593+563479888+564489907+564653827+565057296
3939+565903352+565741452+564376378+562623400+561795893+562754006+563747451
3925+562905853+561727498+561864414+562156542+561927845+562102953+562797288
3912+563180693+563552952+564024941+562606490+558837849+555939114+555462287
3898+557724650+561764135+564274165+562860720+560999218+561992748+561562317
3885+558866704+558211698+558023718+558524689+560697247+561339508+560507080
3871+559282582+557790100+558462520+558961767+557656802+557784421+559556370
3858+560914840+558495708+549322844+547152347+554552378+561198429+564210902
3844+563460581+560803078+557955912+555024831+555038628+557584453+558949148
3831+559570167+560179619+559557128+559017753+557579364+553093294+552255945
3817+553788303+554150844+557393066+561744534+562823326+560177937+559168339
3804+559848541+556672316+554314848+555573586+557039400+559731521+562814324
3790+564302810+564498530+563442158+561928476+561520085+560601554+559297556
3777+560579975+562784628+563094927+561189301+559454452+559262854+559459583
3763+560400240+560634994+558706318+558184609+559420381+558090136+552043737
3750+548590568+552138084+554813969+553548080+554905919+558869018+560379166
3736+556362227+551741766+552936862+557453259+561107993+561460019+559519860
3723+558608311+559013168+559344583+559844629+560206287+557128237+551673834
3709+551873423+555781251+558933122+559603902+558312187+558480439+560375212
3696+562324415+563035113+560758197+555681856+553312864+555399024+558118234
3682+559321406+559102300+557371109+551560264+547047737+548610001+548030036
3669+546434078+549290708+552206142+552634933+551836870+550507004+547943722
3655+546238653+546986493+545138872+537084550+533711259+537094435+539529971
3642+539339341+538282212+537058092+534499311+531330573+528944040+523383554
3628+515185208+514390174+516994004+517424225+513367915+507157890+505096042
3615+504750410+502811807+500456064+497365858+494755213+494774520+494612451
3601+492171026+489988625+488967544+486786489+484611155+484740920+484115526
3588+478982779+474425960+474874773+476495211+475653907+472718577+470126146
3574+468758296+468368498+468159234+465690258+460785661+458719901+459496091
3561+460357122+460934143+460998163+459866919+457521902+455313885+454388540
3547+453411414+451294211+449669777+449445329+449698801+449723786+449484742
3534+449266350+448749143+447195333+445358775+444250286+443341682+442721756
3520+442748929+442567721+441794476+440831862+439675927+438290916+437464418
3507+437729920+437580765+435883351+434348848+433882074+433497786+432892835
3493+432531765+432481121+432075423+430939257+429784626+429441601+429801956
3480+429977990+429456281+428136132+426381260+425580253+426049761+426498868
3466+426274546+425147508+423408620+422457238+422606351+422738429+422517262
3453+422516000+422266061+420708970+418894201+418622221+419123823+419142625
3439+418945349+418736001+418434493+418194944+417890702+417594031+417391329
3426+416937721+416553264+416448064+415864818+414991294+414879953+415534538
3412+416094566+416180964+415957146+415677090+415859013+416530256+417025843
3399+417156491+417273510+417429144+417374630+417331599+417821676+418875482
3385+419846130+420224866+420307268+420324345+420424539+421128255+422431537
3372+423649894+424679767+425803566+426697827+427605211+428794335+429566024
3358+430157936+431009376+431840164+432785195+434101349+435923606+437524400
3345+437880801+437791333+438548131+440107368+441581090+442150245+442253384
3331+443092290+444286166+444433387+443846313+443652149+443614377+443201570
3318+442958740+443405786+443893970+443989285+444318176+445032155+445578554
3304+445530897+444833365+444440369+445264595+446359792+446503605+446047768
3291+445940928+446900555+448781952+450185134+450599792+451000022+451359956
3277+451419012+451975886+452794601+453010848+453107887+453809962+454743846
3264+455192828+455309595+455734432+456580278+457459691+457967561+458145235
3250+458421968+458717251+458909479+459788429+461252435+461816627+461115730
3237+460372096+460756174+462142279+463424151+463607588+462971595+462732214
3223+462497460+461671341+461658722+462622303+463335398+464022457+464894466
3210+465231938+465120387+465283297+465654588+465825112+466123760+466875006
3196+467304428+466529963+465434388+465840759+467727835+469357190+469891434
3183+469595520+468758002+468271879+469001421+470381637+471547583+472403188
3169+473167054+473821976+474106490+474217958+474581509+475028681+475263856
3156+475433202+475695928+475984859+476492939+477479192+478247390+477977808
3142+477675711+478453625+479133365+478640259+477868318+477637475+477672556
3129+477610134+477682819+478022605+478371939+478790509+478888431+478424307
3115+478444960+479231372+480151964+480761458+480483632+479603378+479053950
3102+479143376+479526697+479708956+479913004+480366528+480317945+479612211
3088+479375438+480125296+480889624+480752709+480544749+481413646+482539212
3075+482704478+482086698+481363886+480938628+481043912+481682724+482201782
3061+482084342+481836885+482015232+482581317+483383418+484017014+483783564
3047+482881816+482443392+482806481+483106180+482968971+482948233+483073287
3034+483174365+483329283+483498166+483930911+484391249+484197675+483780073
3020+483986266+484502464+484668655+484677741+484891043+485274069+485732767
3007+486279293+486679944+486795112+487103224+487641758+488158965+488948910
2993+489849438+490368413+490690321+491082602+491661726+492765419+494146392
2980+494995856+495060297+494801945+494961785+495631808+496086005+495988713
2966+495716397+495433901+494990346+494571482+494377403+494497282+494898270
2953+495067279+495064671+495478992+495942149+495972939+495911864+495953758
2939+495952286+495775832+495458844+495228297+495011335+494805983+494978147
2926+495467509+495852513+495985390+495699193+494509943+492743799+491826529
2912+492517331+494157202+495382374+495490097+495347335+495804350+496371108
2899+496561948+496722125+497039911+497155332+496894625+496502471+496366523
2885+496859965+497755741+498302350+498320395+498233661+498342899+498605120
2872+498696187+498407718+497970178+497764826+497835745+497861361+497840918
2858+498190547+498785108+498865112+498027258+496822866+496166556+496334219
2845+497037219+497900354+498596455+499146388+499824487+500518612+500894235
2831+501089871+501384733+501661171+501734908+501921668+502581511+503087698
2818+502892652+502868634+503680409+504562472+504858344+504831928+504836807
2804+505177897+505771701+505928723+505801482+506244743+506897436+506964274
2791+507000574+507735458+508730292+509265166+509295830+509267353+509353751
2777+509460928+509739722+510275816+510780699+510963884+510972885+511091839
2764+511268757+511520168+511929189+512306705+512674757+513136315+513386591
2750+513391302+513639263+514213677+514735680+515183399+515746455+516308292
2737+516737588+516998042+517097479+517371983+517902903+518170551+518069389
2723+518069599+518364335+518842550+519658868+520647729+520922317+520688320
2710+521018389+521645129+521893007+521956648+522230269+522755552+523200790
2696+523537252+524093537+524658949+524723095+524492253+524589629+525040461
2683+525578363+526068482+526162157+525825021+525579331+525582485+525649744
2669+525818670+526143565+526563144+527075094+527716850+528412868+528942610
2656+529143798+529187628+529302418+529321304+529273521+529591223+530146918
2642+530451623+530561408+530777486+531087196+531357956+531710193+532366503
2629+533245285+533961450+534200831+534173238+534416615+534949092+535405182
2615+535810585+536334103+536836882+537260163+537788812+538374204+538779986
2602+539027696+539450724+540158940+540771673+541154153+541449688+541728103
2588+542131068+542508668+542705649+542999544+543537278+544163976+544713404
2575+545112583+545362479+545489426+545444839+545245165+545113929+545288490
2561+545861474+546434835+546624666+546885962+547467274+547928916+548217300
2548+548579211+548964130+549252935+549483441+549763287+550199018+550811793
2534+551343975+551570948+551755689+552105611+552485819+552803816+553030915
2521+553276353+553586484+553867592+554202708+554556879+554768120+554907265
2507+555279733+555977938+556489594+556592858+556716566+556947534+557127186
2494+557353485+557744714+558236810+558487548+558370612+558272101+558334017
2480+558502354+558798015+559007363+559196184+559579884+559902634+560026972
2467+560015531+559653789+558885002+558167111+557878685+557893407+558008407
2453+558208669+558427019+558476191+558207492+557705048+557244331+556964107
2440+556772047+556501624+556208276+556125622+556108376+555913498+555643747
2426+555340556+554966363+554573873+554193412+553841765+553639988+553654752
2413+553530919+553043576+552514801+552131859+551887514+551710260+551270659
2399+550565850+550126586+550038295+549728080+549062011+548455209+547921008
2386+547076087+545716440+543996187+542008958+539457833+536341590+533068914
2372+529594167+525761674+521870166+518159656+514921556+512472434+510959341
2359+510902345+512289333+514438168+517693892+522055875+525165598+524680232
2345+521241450+518123903+516416604+515218774+514970770+515806227+516888594
2332+517738689+518452878+519269448+520233702+521260210+522317928+523353142
2318+524481695+525741820+526856618+527861169+529094374+530389706+531224827
2305+531696143+532106174+532283134+532420932+533041194+533920145+534362901
2291+534318103+534383007+534779746+535185570+535390964+535483839+535631397
2278+535737396+535567166+535415529+535715775+536286193+536787837+537080133
2264+537181043+537354048+537743720+538149839+538453367+538875722+539580026
2251+540317855+540755268+540910607+540997972+541119745+541334477+541648226
2237+542029401+542528227+543094018+543598186+544051668+544529799+545098996
2224+545776044+546479170+547163704+547910450+548655808+549073368+549205993
2210+549538376+550184296+550920989+551542218+551963228+552370188+552865144
2197+553483345+554370077+555346529+556104338+556678919+557226959+557772644
2183+558283752+558860647+559671876+560598315+561348005+561909379+562584828
2170+563629549+564766808+565498327+565911386+566414545+567051170+567664828
2156+568317941+569023255+569581558+569982125+570380336+570774761+570973720
2143+570969429+570940490+570760208+570376003+570086189+569849458+569374650
2129+568791740+568315460+567832702+567226615+566474401+565557510+564493440
2116+563416667+562370895+561120654+559670488+558240301+556922465+555793071
2102+554776238+553716838+552533561+551251436+550034089+548867596+547493731
2089+545888352+544336435+543007326+541961890+540999655+539738225+538354855
2075+537099314+535837127+534738061+533967045+533091460+531780690+530400811
2062+529332156+528339300+527026595+525496719+524225236+523240371+522139034
2048+520942423+519952679+519045715+517928099+516844260+516095369+515295750
2035+514206148+513115746+512124656+511174746+510268118+509400777+508602210
2021+507887558+507078643+506038171+505005691+504095656+503250735+502532340
2008+501759010+500835305+499987439+499173477+498313287+497645199+497092112
1994+496152296+494818097+493791969+493326204+493025243+492704344+492226507
1981+491441063+490578938+489899620+489353347+488747596+487935695+486925003
1967+485959277+485407914+485202226+484868203+484266574+483679710+483247008
1954+482845431+482407891+481904144+481178345+480159115+478922376+477993161
1940+478022857+478323693+478016043+477379040+476847279+476345340+475776226
1927+475032257+473796780+472460983+471933638+471727865+471340254+471354009
1913+471448146+470986924+470404856+470165306+470039159+469966853+470082989
1900+470190124+469730164+468630004+467826431+467455897+466784865+466412312
1886+466677899+466768755+466814393+466992867+466862009+466509562+466238424
1873+465813839+464395009+462100048+461489502+462919941+464135648+464424495
1859+464269451+464088117+464074741+464097245+463923230+463407410+462485766
1846+461006071+459703714+460300337+461597436+461840140+461514361+461364995
1832+460397671+458104770+456877580+457467809+458054211+458576129+459211786
1819+459430472+459163708+458552111+457454433+456175337+455802364+456313598
1805+456700495+456241124+454679195+453190541+452943799+452831154+451403828
1792+449885729+450811580+452424993+452605486+451734528+450856335+450302574
1778+450165280+449633813+447432611+444119975+443596668+445909464+447973037
1765+448794276+448130058+447102584+447225324+447556444+447775172+447541175
1751+445330298+442420585+442232436+443545730+444221052+443922152+443228616
1738+443239258+442705267+440016974+439414420+441791447+444121826+445414466
1724+445486352+444936630+443483476+439306949+435184810+437128923+441122266
1711+443343995+443178225+440928775+438752306+438187146+436200255+432461015
1697+432181212+435219932+438860408+440759303+440517861+439336183+436262929
1684+431851942+433315232+437164635+438980203+438099192+436428615+435526614
1670+434204446+434617127+437206530+437915923+436411285+436251992+437269204
1657+436930932+433181387+426704262+426820146+428108244+427000471+428983324
1643+433579725+436322111+436512615+434332990+432883118+437572478+443522511
1630+447155583+449192109+451097566+453413349+457316214+461711721+464175103
1616+466720887+472572576+478473311+482288811+485272008+488941212+492739298
1603+496218588+499713483+503239588+506527827+509514600+512592482+516015659
1589+519653611+523303929+526772029+530098462+533357256+535706479+536322072
1576+538085609+543295752+547570454+550176935+554290830+559587581+563866237
1562+566164270+564579627+562937653+571415130+581434387+589702011+596163699
1549+601643003+606043348+608292755+607875321+607459275+616664401+628862483
1535+636328722+642519650+650654270+657966095+663133544+667242265+670306813
1522+673697896+680192183+687811741+695591181+703576688+709996734+712948720
1508+711814868+714923498+727201121+737269003+743325329+746593967+750558580
1495+757085087+762749049+765823775+768665809+775437124+784227718+791800081
1481+797659805+802261337+805423303+806815843+807803989+812410569+820075471
1468+826289365+830239256+835265878+842311696+846987175+846364137+849013775
1454+860944882+872457294+879710231+883604683+888753372+896300918+903372310
1441+909407100+914345642+918548500+925134653+933253836+939833006+946135317
1427+953647446+959847292+964029455+967136571+967915326+968782246+973273658
1414+978616342+983639346+988508736+991605588+992557644+994047182+997052673
1400+998524712+996755960+993634290+993122046+996961059+999283866+995095562
1387+988415945+987946858+993104969+998249704+1001268150+1002505309+1001810932
1373+1000997348+1002861584+1005516016+1006468829+1006151169+1004243860
1362+1001450451+1000935347+1002467284+1003948578+1004551930+1004923347
1350+1004989218+1004079983+1003106475+1002930315+1001800753+998390194+996490289
1337+999003810+1002199258+1003143574+1002931408+1003013768+1003211044
1325+1003448532+1004189599+1005297793+1007053674+1010363449+1014469226
1314+1017918399+1020339970+1022702232+1026498762+1031508558+1036596256
1302+1040917059+1043896471+1046164260+1048349773+1050624124+1053132261
1290+1055294387+1056874697+1058593226+1060483036+1062146210+1063430733
1279+1063798953+1063933975+1065023325+1066034689+1065868877+1066036793
1267+1067288590+1066166852+1061570787+1058124812+1057687692+1058093180
1256+1057900279+1057482340+1058154929+1059487235+1060314447+1061432316
1244+1063088591+1063471534+1061972910+1060345153+1059454678+1058784950
1233+1058623848+1058725557+1058603490+1059091253+1059737678+1059812383
1221+1060863539+1063560287+1065586465+1065292529+1064872655+1066305323
1209+1068127075+1069162584+1069816665+1069693252+1068542069+1067435222
1198+1067419827+1068789905+1070612835+1071722964+1072300742+1072047943
1186+1070443152+1069450043+1069996611+1069959175+1069917448+1071755604
1175+1073739047+1073741823+1071525015+1068364311+1065984971+1065462043
1163+1067194032+1069807243+1070787649+1068335035+1064406344+1062442923
1151+1061886597+1061773784+1061759146+1059675762+1055965041+1053482899
1140+1051822753+1049556395+1048428936+1048707562+1047957241+1046016114
1128+1043730995+1040218223+1034788469+1029134686+1025846784+1024581947
1117+1022046217+1017649700+1014213483+1011358998+1006964837+1003243937
1105+1002608027+1002484867+999405345+993988209+989875366+988905812+988920702
1092+988186617+987216643+986012292+984734080+983761245+982335979+979557713
1078+975796012+972755441+971138115+968726807+964456480+961377126+960681150
1065+959880858+957660348+954259380+950525777+947001228+943408116+940761927
1051+940119877+940032217+938157634+934723184+932182826+931086242+930364187
1038+929943640+929277025+927154269+924670697+923766930+922976901+920284275
1024+917246312+915982148+916720355+918118616+918452933+917403039+915486729
1011+913518093+912676747+912958906+912964374+912425210+913062381+914889770
997+915457537+914678445+914431703+914628726+914272536+913147012+911273691
984+908879292+906986622+906703369+907796757+908736362+908166660+906158821
970+903450968+900783580+898668060+896554811+894196502+892283978+891014767
957+890208081+889488887+888692464+888625416+889330141+890027210+891668764
943+894928568+898298746+901169803+904064164+906373679+907752423+909368738
930+911715437+914443396+917499615+920370757+923210435+926612833+929219903
916+930043246+931230855+933877548+935275304+934424283+933662521+934173335
903+935197655+935402166+934000540+931615648+929874825+929626401+929908139
889+929490200+928418686+927565562+927494812+928045418+928356516+927964404
876+927088988+926071650+926064331+927375521+929329267+932331645+935737745
862+937771831+938895504+941483477+946468373+952103984+956635019+960007720
849+962716835+965198472+968041516+971340270+974130651+976438231+979509761
835+982390661+983057782+982550081+983165043+984082775+984429291+987086920
822+992109756+996599317+1001067257+1004860084+1005546217+1004197002+1003515749
808+1004343213+1005717162+1008462787+1013201277+1016768058+1017337087
797+1017823925+1021591094+1027613097+1031879134+1033574613+1036244861
785+1040749143+1043531953+1044159786+1044714682+1045346049+1046712594
773+1049495572+1051717427+1051669391+1051163541+1051803657+1052768920
762+1053607490+1053569296+1052488444+1052754955+1053724930+1052003456
750+1049023287+1047555875+1047098313+1045811435+1043726873+1044742949
739+1048304009+1047552173+1041934649+1037522569+1037720013+1041141508
727+1045279169+1047832902+1046747002+1044023249+1042430321+1041262565
716+1040769754+1041757143+1041586619+1038397144+1035948232+1037019999
704+1038006042+1036086620+1032983626+1030580226+1028997813+1027398239
692+1027058789+1028931269+1029589472+1027606871+1025925021+1025904495
681+1027292997+1029906376+1033205803+1038022867+1043662516+1043501667
669+1033949647+1026382668+1031433854+1038598795+1040596454+1042037115
658+1046085265+1044970089+1041623382+1044140605+1043930290+1038327909
646+1039125677+1044775085+1040754696+1025123215+1017401191+1028751324
635+1040858339+1038972399+1036517345+1035480911+1027952966+1023014845
623+1025540817+1024225168+1019282672+1016261871+1006264991+994919065+997993455
609+1004820040+1010746476+1031445043+1056779382+1057565457+1033093663
##END=
