##TITLE=Sample description
##JCAMP-DX=4.24
##DATA TYPE=INFRARED SPECTRUM
##DATE=24/8/2023
##SAMPLING PROCEDURE=Instrument type and / or accessory
##ORIGIN=Default
##XUNITS=1/CM
##YUNITS=ABSORBANCE
##RESOLUTION=4
##FIRSTX=4397.6552
##LASTX=599.8556
##DELTAX=-1.9287962
##MAXY=1.3461847
##MINY=0.41408411
##XFACTOR=1
##YFACTOR=1.2537322e-009
##NPOINTS=1970
##FIRSTY=0.5807423
##XYDATA=(X++(Y..Y))
4398+463210792+462600213+461633024+460783024+460057347+459497162+460006334
4384+461286016+461512267+461142297+461131933+460738430+460410867+460551924
4371+460312028+459916005+459675349+459365376+459896893+461437104+461905295
4357+460651096+459300529+458355970+457934322+458638938+459496924+459043186
4344+457645553+456999128+457692334+458419390+458187482+457205934+456077863
4330+455431438+455600972+456431954+457244538+457139376+455863117+454706949
4317+455111292+456420449+457086604+456771355+456026566+455266325+454797516
4303+454605305+453955028+453150907+453192839+453433210+453342025+453525298
4290+454055056+454346677+453690886+452447717+451991363+452976856+454644907
4276+455396304+454901062+454145338+453591191+453387237+453480799+453588481
4263+453453510+452772760+452021267+452302762+453430500+453666592+452116160
4249+450256707+450357162+452475576+454247077+454225921+453164314+452098760
4236+451330818+450735120+449919350+448786763+448453400+449716632+451176165
4222+451380547+450903275+450783897+451043951+451021749+450475256+449924485
4209+449688535+449608808+449416549+448855746+448012688+447598076+448306258
4195+449509303+449904280+449347756+448480166+447795422+447667059+447818955
4182+447709134+447576777+447365026+446809548+446525106+446570128+446974328
4168+448344339+449369292+448666482+447425737+446538893+445956221+445836273
4155+445457270+444448054+443836334+444149491+444673734+444625337+444445724
4141+445032294+446032954+446396220+445536950+443819409+442809432+443068724
4128+442995558+442192292+441985961+442535924+443097392+443303343+443123778
4114+442789084+442698897+442941931+442943309+442206364+441157545+440414658
4101+439779357+439420559+440192020+441321517+441294894+440520296+440050583
4087+440239561+440957632+441259570+440734043+440357750+440402059+440107490
4074+439577019+439420274+439361037+438973952+438682854+438934730+439104121
4060+438551163+437921900+437603038+436959465+436071099+436243628+437778419
4047+438900167+438796859+438371550+437868273+437229882+436721899+436635373
4033+437068478+437552168+437324538+436149401+435207170+435546048+435882406
4020+434944692+433884273+434044632+435095733+435915971+435800159+435082849
4006+434393873+433849710+433418887+433236707+433407810+433778112+434091793
3993+433913892+433223918+432928494+433232951+433359270+432982834+432528667
3979+432625272+433066507+433105064+432721259+432222118+431548736+430812267
3966+430667502+431186563+431416190+431143490+431017552+431076742+431238051
3952+431673819+431602221+430479047+429814936+429799247+429394239+429596434
3939+430793108+431492067+430558394+428382597+427252197+428198516+429152869
3925+428876176+428959231+429872889+429568907+427961758+427401240+428422628
3912+429694322+430178773+429284227+426607626+423528393+422232880+422212627
3898+423754549+426813339+428639798+427294509+426234660+427933138+427934279
3885+425761905+425447987+424702389+424397076+426669097+427833538+427128778
3871+425830460+424410673+425045879+425314014+423951657+424453461+426464810
3858+427653877+425566936+417873015+415686141+421609988+426691965+428394340
3844+427523232+425557666+422677300+419686971+419997323+422511950+424145437
3831+425137396+425938285+426171097+426714547+425218550+419614992+418420601
3817+421223806+423065003+425891932+429213913+430430792+428031549+425813631
3804+426006222+424679950+424232011+425944180+427137003+428989230+430960360
3790+431425128+430863327+429728315+428901468+429342941+429314559+428614982
3777+429396901+430858145+431283216+429615070+427416691+426959197+427695096
3763+429410165+430261971+428813564+428708116+431418567+432868638+429786411
3750+428904844+434339866+439242230+442095687+447699483+455208087+460932163
3736+461875391+460437586+464227806+471926482+477251159+476862268+472176932
3723+466998017+462999041+460658893+460230351+462374913+468175484+480028169
3709+497409819+515792604+532583025+546975153+560041104+572140341+581029701
3696+586006753+586847197+580911845+567486335+556428976+552993703+550471185
3682+545127252+537822270+530396246+519264151+506855132+501322031+494863340
3669+488208396+487765734+488469019+487359252+486216966+486705838+488130427
3655+491464531+497542080+502948625+503611120+503117208+505424505+506851091
3642+505004474+500965943+497480751+495385586+493824932+492097264+486151596
3628+476015549+472742393+472276151+467311127+456418025+445183953+439865408
3615+436476773+433010693+432010747+432422982+432981788+434286286+435055084
3601+434023808+431783070+429630284+427743161+425611008+423266675+418544162
3588+410124943+404705894+404148182+403525527+401253934+398808338+396882160
3574+395034330+393726837+392629287+389201788+384023206+382334855+382845786
3561+382373578+381272819+380481605+379503766+377963746+376715204+375862614
3547+374508006+373081563+372673298+373209664+373737235+373282189+371992952
3534+370745670+369580611+368227620+367130047+366595583+365932684+365080331
3520+365071108+365642632+365483248+364254911+362758748+361660771+361048790
3507+360817903+359992198+358551017+358153662+358287041+357666312+356723915
3493+355981123+355265048+354535306+354266267+354548998+354450706+353651505
3480+353137436+353136128+353089513+352686050+351776006+350801114+350238053
3466+349907781+349308255+348346676+347989589+348570883+348881568+348445420
3453+347768164+346773970+345371512+344382667+344441571+344675144+344362913
3439+343927122+343378846+342740313+342404169+341951262+341312634+341380594
3426+341994525+342011949+341398328+341008747+340906294+340578303+340150760
3412+340112228+340305865+340173889+339896554+340187082+340688077+340720002
3399+340601290+340452960+340134240+339915809+340170276+340787725+340877198
3385+340399190+340637897+341634230+342096169+341951381+342225245+343433828
3372+345200219+346511967+347047074+347666852+348977840+350630392+352062374
3358+353295987+354574148+355823403+356845979+357626234+358589692+360034748
3345+361439749+362405323+363334717+364160897+364489078+364788568+364997323
3331+364456560+363853326+363984375+364153219+363849499+363574137+363335976
3318+362907673+362810307+363114979+362979603+362396480+362446969+363157742
3304+363330747+362812280+362667135+363206520+363694370+363846195+364061749
3291+364334876+364314267+364274784+365016031+366679708+368221891+369054538
3277+370006585+371473463+372975854+374098363+374557355+374588209+374517871
3264+374486922+374904362+375657566+376143800+376567207+377374442+377971115
3250+377803744+377565869+378137678+379309083+380155897+380301755+380259847
3237+380616268+381029001+380971832+380872375+381114244+381317580+381260292
3223+381378885+381840682+382380614+383008664+383683401+384329779+384789175
3210+384734454+384495509+384512434+384602074+384693663+384872824+385023984
3196+385053887+384917965+384849125+385284037+386280203+387336986+387794765
3183+387680522+387671133+388107542+388441333+388505301+389061040+389657143
3169+389310611+388729579+388858179+389339469+389881849+390691770+391152212
3156+390863467+390600989+391007899+391666377+391596205+390923299+390794651
3142+391630601+392385969+392077399+391590738+392133284+393049557+392831958
3129+391678048+391189485+391851694+392497193+392164448+391278198+390921231
3115+391572291+391897453+390790586+389875835+390682143+391863437+391232368
3102+389391503+388991986+390837058+392632710+392066369+390383058+390244069
3088+392323166+394172755+393130948+390926436+390658230+392413567+393524642
3075+392299252+390621551+390803589+392676568+393531012+391967886+390376592
3061+390710003+392171175+392688738+391752427+390779437+390458816+390422185
3047+390283648+390130445+389945578+389713551+389661112+389484067+388965101
3034+388344300+387976945+388040295+388178332+388312566+388707876+390029418
3020+394719699+402806791+407456091+404202950+397932571+393814432+391890465
3007+390722316+389938519+389624838+389885605+390637169+391200848+391466630
2993+392095370+393394686+394990639+395996790+396273982+396972893+398890871
2980+401024450+402066328+402760913+404139767+405946497+408115828+410129174
2966+411265042+412274021+413749432+415488462+416610068+415805280+413921866
2953+412833920+413053088+413871234+413437891+411220733+409013274+408230356
2939+408713523+408724885+407059164+405075104+404209273+404383086+404631919
2926+403904198+402661694+401897602+401705439+401662223+400726268+398931091
2912+397928174+398311028+399243821+399717052+399365433+398901045+398912074
2899+399120498+399347747+399747573+400152867+400255747+400327821+401066762
2885+402499671+403894689+405177747+407115549+409971002+413408700+417290152
2872+421672885+426826555+433186883+440578392+448047916+454709564+460089865
2858+463728237+465344562+464934181+462299512+457612131+451779279+445492594
2845+439086531+432996716+427445264+422444060+417909051+413717103+410179616
2831+407379025+404968182+403046259+401598755+400451715+399604378+398717034
2818+397739576+397133656+396956230+396792092+396451859+396173669+396127672
2804+396254181+396431464+396593154+396719686+396696295+396567576+396671930
2791+396947981+396867374+396602662+396801957+397322611+397631822+397664388
2777+397620697+397471036+397318308+397608075+398198687+398587412+398762009
2764+398874944+399117265+399627958+400123867+400388151+400660803+400974056
2750+401057064+401057207+401308322+401733821+402230870+403005753+404021198
2737+404848425+405355695+405879938+406726039+407750754+408517270+408978140
2723+409463684+409953460+410160124+410162120+410283209+410559807+410683463
2710+410387231+409889563+409692265+409791104+409886236+410036325+410275650
2696+410410526+410365029+410301846+410360607+410400970+410353856+410224162
2683+410078019+410164022+410257014+410042553+409804749+409737192+409686893
2669+409612680+409645436+409728539+409732676+409797760+409974425+410135925
2656+410285586+410433013+410591660+410931441+411499280+412038974+412313908
2642+412425631+412662342+413022233+413305630+413565445+413937174+414420579
2629+415051030+415729832+416189608+416569277+417107592+417601836+417950745
2615+418343250+418944035+419738268+420587554+421392864+422075041+422693322
2602+423347449+423943955+424342498+424639967+425061757+425510362+425922549
2588+426450405+426933144+427248156+427668710+428323455+428992130+429642169
2575+430399319+431022259+431268478+431371263+431604503+431895981+432189552
2561+432526385+432811779+433025907+433223538+433450787+433812200+434304447
2548+434639807+434595213+434498751+434660630+435031266+435604715+436249524
2534+436787078+437156763+437256268+437227077+437469731+438055398+438587105
2521+438738097+438577311+438501625+438809981+439288346+439605212+439764714
2507+440007035+440372060+440642668+440827986+440973321+441091890+441414699
2494+441901954+442185779+442149790+442074056+442123452+442127397+442029081
2480+441874190+441791705+441996658+442255142+442234747+442096448+441976833
2467+441749013+441427440+441151983+440927681+440669814+440390174+440202859
2453+440122704+440004040+439761434+439453839+439175529+438960450+438734056
2440+438428981+438044130+437623148+437247568+436876504+436424572+435950248
2426+435482532+434982916+434501508+434093029+433743027+433420361+433124318
2413+432909334+432644669+432073312+431315306+430668215+430153481+429666701
2399+429227985+428973446+429197130+430947143+436484285+448778871+470545678
2386+502995787+544795173+592642681+643529581+696343539+750841331+806013789
2372+860738545+913482998+959582632+994768769+1019314963+1036017431+1045437642
2359+1041846432+1018906769+978832673+928298438+879327281+853084131+862200645
2345+897727846+924964524+924400299+912064446+900349870+892472579+891307331
2332+894847101+894305315+886256969+874954675+862110696+845621120+825024220
2318+800999273+776318726+759253894+753051215+746899215+728189058+696641531
2305+662696472+636763674+618915116+602793989+585707858+567348702+546973822
2291+526140877+507400008+491043264+476831223+465922099+458840801+454259914
2278+450628151+447481884+444834473+442566256+440788479+439514930+438227879
2264+436582934+434891446+433508456+432347914+431285355+430309703+429244102
2251+428055272+427053187+426343531+425760431+425290719+424957641+424717603
2237+424551397+424439673+424508229+424909196+425472613+425915560+426306686
2224+426871577+427538541+428209260+428979009+429751040+430476337+431450230
2210+432620233+433607723+434452730+435398526+436479959+437657996+438930689
2197+440284774+441659777+442954339+444127860+445297768+446658270+448285578
2183+449908653+451309662+452800524+454527241+456240504+457952292+459760116
2170+461547068+463293848+465168419+467196409+469020491+470393545+471736029
2156+473423382+475105267+476400114+477413419+478252722+478750532+478903854
2143+479034404+479294885+479437130+479240877+478807724+478118844+476916085
2129+475261489+473582266+472103575+470561938+468712420+466637698+464415025
2116+462156601+459963024+457638041+455030613+452335898+449813190+447519109
2102+445225362+442700799+440195633+438070563+436212679+434398057+432742795
2089+431504095+430688706+430229120+430337325+431227354+432858750+434973360
2075+437321353+439958590+442913691+445874069+448531226+450816701+452871028
2062+454916608+456923156+458699364+460366226+462078442+463594787+464665760
2048+465277243+465492369+465453147+465245485+464799353+463987007+462686216
2035+461003143+459190993+457368670+455517061+453497106+451290360+449120031
2021+447083389+444803951+441965090+439106689+436771437+434637620+432362794
2008+430034959+427685635+425294332+423026019+420949775+419016584+417234814
1994+415399369+413442455+411874527+410719310+409505331+408370556+407592678
1981+407058641+406652064+406454861+406529739+406824308+407230790+407569620
1967+407998400+409042892+410643909+412333020+414034064+415813172+417760198
1954+420155875+422957321+425715267+428336339+431030341+433646422+436267827
1940+439365031+442551185+445155047+447153465+448872100+450411693+451534011
1927+452074133+451938021+451392052+451101714+450788604+450238546+449938938
1913+449359023+447847052+445887381+444332955+443235168+442114276+440804405
1900+439423317+437898177+436140986+434626067+433477126+432208996+431321154
1886+431233297+431279460+431349061+431717510+432199250+432580345+433048156
1873+433547250+433086475+431665737+431868027+433901959+435465988+435868239
1859+435720812+435514956+435181593+434429625+433212556+431653756+429805380
1846+427350133+424536469+423202066+422741482+421295546+419074157+416921609
1832+413974922+409412101+405657300+403823900+401919614+400032254+398417521
1819+396354423+393851111+391201014+388108517+384548495+381738562+379938441
1805+378198721+375904926+372853577+370050181+368505359+367228245+364726383
1792+361966084+361742971+362658269+362426407+361279106+360237180+359492819
1778+359173885+358693143+356866849+354085704+353780224+355976535+357914099
1765+358792885+358479537+357913244+358273325+358837931+359253161+358861417
1751+356456825+353497042+352870584+353431244+353427345+352547371+351294051
1738+350782502+349743809+346495589+345148897+346632462+348065609+348579083
1724+348071052+347146626+345447769+341132712+336683563+337642029+340468220
1711+341938616+341543401+339433260+337362935+336701867+334922711+331405833
1697+330404936+332237362+335125928+336923839+336964654+336122927+333676523
1684+330281137+331729426+335171188+337164091+337110203+336402044+336320582
1670+336193384+337696488+340869782+342674230+343207078+345034607+347408201
1657+348313777+346639427+344219694+347076835+350087750+352234855+357719891
1643+364531272+369605214+372863822+374932602+379711714+389711174+399184108
1630+407264878+415672734+424776745+435117744+447989630+460233679+471211596
1616+485881844+503098667+518974194+535419319+554198935+574827022+596557793
1603+620246429+645801221+671786362+697769459+724602983+751542953+776388850
1589+798187748+816411839+830572249+840034011+844677606+844293088+837150888
1576+823903470+814262570+806446134+792769603+778666148+770121752+763773928
1562+759223610+752410209+740685839+741767082+749359407+756068406+762107636
1549+768581113+774274002+777582006+778877139+781878545+793992806+807394402
1535+816223098+824015003+833149393+840498875+845123357+849103174+853408556
1522+858872246+866896535+875241637+883587879+892145682+898503538+901031429
1508+899489839+901547542+913442112+923663021+929235011+930522917+931546397
1495+936173351+940354745+940243307+938846245+943045229+949075806+952226209
1481+952874869+953163543+953022534+949879072+943721653+941537584+945650517
1468+948820412+947847517+946524525+947710407+946984254+940287426+937049831
1454+944399884+951944191+956280286+957222468+958491358+963379603+969432906
1441+973975236+975788669+975750731+978999545+985116174+989732764+993651062
1427+998505456+1002306896+1004904578+1006926910+1006058227+1005637862
1416+1010371216+1014606807+1015079657+1014252145+1013739455+1013139953
1404+1013930192+1015985233+1014868952+1010258161+1007898283+1009658374
1393+1012191400+1011649519+1006699470+1001155720+1001455803+1006542867
1381+1012080437+1015936550+1016624574+1014554796+1013729186+1014795262
1369+1014337435+1013098116+1012797652+1011630977+1010065427+1010578022
1358+1012081768+1012900723+1012837587+1012712743+1012946078+1012597502
1346+1010811262+1008937166+1007486096+1005140956+1003842020+1005107201
1335+1006207793+1006412128+1006651263+1006915690+1007652968+1009560724
1323+1011802128+1013358075+1014732792+1016290546+1017944334+1020698048
1312+1024646962+1028360545+1031629897+1035077055+1038767913+1042519909
1300+1046323821+1049797603+1052567386+1055496909+1058162576+1059720330
1288+1061792200+1064080575+1064998322+1065846182+1067346410+1068395466
1277+1068740334+1068584017+1067467451+1065571390+1063969708+1062945753
1265+1062365078+1062133740+1061517218+1060515799+1060237394+1060216951
1254+1059801626+1060784029+1063214935+1064269697+1063726009+1063473277
1242+1064031227+1064996800+1065493041+1065294127+1065233844+1065006784
1231+1064730091+1065669421+1066636801+1066300300+1066217293+1067172977
1219+1067668267+1066594774+1065397768+1066438172+1069037280+1070621847
1207+1071072543+1071792515+1072506403+1072496039+1072372525+1072417690
1196+1072520855+1072608713+1072125498+1072182073+1073500121+1073741823
1184+1072447641+1071236847+1069679189+1067804617+1067431985+1068430552
1173+1068700684+1067763826+1066739777+1066156344+1065321511+1063188977
1161+1060552786+1059508294+1059787934+1058906034+1055769704+1051662856
1150+1048477273+1046766815+1045231311+1042424255+1038946575+1036200657
1138+1033211802+1028573151+1022958469+1017201256+1012534271+1009598091
1126+1005878804+999752097+992589359+985282189+978646024+973678480+969258808
1113+963718861+957183960+950691466+945134119+940599205+936228120+931521960
1099+926849175+922471814+918458624+915346445+913113313+910470846+907391661
1086+905578038+904866623+903590602+901900682+900271046+898273245+896604720
1072+896153834+896637904+897040107+896774729+897022707+898214294+898880259
1059+898812559+898990270+899635127+900304895+900843734+901316489+901006136
1045+900053590+900336463+902343201+904397386+905053652+904491613+903894584
1032+903934994+904554369+905632045+906986986+907764198+907573461+907636501
1018+907996297+907586963+907566995+909223541+911407704+912343421+911730798
1005+911056751+911377753+911855263+911970694+912154110+911762176+910242456
991+908590189+907433783+906490935+905334624+903698141+901807881+899809130
978+897869711+895912987+893318062+890414591+887882327+885679051+883757698
964+881868293+879658837+877817259+877663414+878857093+879589807+879499953
951+879630407+880446795+881820561+883512573+885074986+886404063+888251346
937+891410116+895414844+898809707+901282449+903546673+905535250+907394133
924+909645141+911887876+913634275+914413200+914102181+914287404+916242797
910+918502933+918691103+916544022+913281420+910173045+908082918+906345267
897+904488476+903368297+903133345+902675328+900794005+898232264+896700754
883+896341909+896471603+896753811+896971552+896811336+897459521+900637497
870+905317224+910186642+916469286+925041732+934116219+941205457+945973041
856+949489135+951960165+952638967+950885246+947810815+945566083+944237956
843+943393900+943892993+945596605+947684164+950055452+952055819+951940198
829+950104325+949089308+949120115+950247331+954032321+959393606+963287277
816+964692516+965140264+966458407+968605013+969617938+969145088+970107809
802+973440581+976776967+980344977+985091642+988311361+989585860+991914646
789+996419704+1002682666+1009079791+1013919828+1016875119+1018652136+1021845136
775+1026983450+1031207441+1033820051+1036091597+1037490561+1037165470
764+1036910741+1038414012+1040853190+1043251387+1044715388+1044607088
752+1043474928+1041824943+1040743749+1041474085+1042769503+1043336011
741+1043427767+1042190349+1040451272+1040393651+1040851573+1039853481
729+1037168513+1034518820+1033850002+1034354991+1034118138+1032359473
718+1030523505+1030163519+1031000159+1032463779+1033252878+1032335512
706+1031026402+1031931597+1033636825+1031434690+1028173420+1028870192
694+1030713672+1031345597+1030834333+1028011968+1024447857+1022614837
683+1023197129+1025956072+1028746774+1029649212+1030302626+1034181083
671+1039509279+1039328145+1034504652+1035700043+1040824189+1042728617
660+1039922892+1037006680+1034132781+1031696075+1035184785+1039703154
648+1036896193+1032919039+1032063573+1027048487+1019109773+1018184895
637+1021884976+1022614932+1022423814+1026164020+1031611260+1029607660
625+1018164737+1007947156+1007397193+1010742041+1005639764+994802999+989351765
611+990954493+994267583+995177818+997775595+1006612754+1013424538+1004315916
##END=
