##TITLE=Sample description
##JCAMP-DX=4.24
##DATA TYPE=INFRARED SPECTRUM
##DATE=24/8/2023
##SAMPLING PROCEDURE=Instrument type and / or accessory
##ORIGIN=Default
##XUNITS=1/CM
##YUNITS=ABSORBANCE
##RESOLUTION=4
##FIRSTX=4397.6552
##LASTX=599.8556
##DELTAX=-1.9287962
##MAXY=1.5464275
##MINY=0.44997779
##XFACTOR=1
##YFACTOR=1.4402228e-009
##NPOINTS=1970
##FIRSTY=0.65089649
##XYDATA=(X++(Y..Y))
4398+451941516+452353511+451745927+450384089+449687485+450523641+451385126
4384+450580919+449068106+448731847+449441447+450147363+450373825+449965555
4371+449696424+449966052+450220988+450696137+451111981+450530925+449517720
4357+449151871+449566390+449907615+449151912+447962321+447730396+448213657
4344+448683260+448829517+448425262+448015916+447915059+447810312+448193129
4330+449385369+450460156+450922310+451209941+450939940+449393770+447647210
4317+447345716+447819085+447547554+447428197+448490693+449355033+449271020
4303+449144463+449335706+449676186+449747370+449257653+448828773+448600448
4290+447787425+446596096+446212161+446859144+447686113+448262037+448407590
4276+448023489+447550616+447031681+446438955+446108407+446117843+446724723
4263+447419134+447185925+446754190+447040372+447430474+447357304+447102078
4249+446829843+446336773+445828102+445598038+445384902+445044380+445247419
4236+446284172+446842507+445959046+444686063+444392142+444907601+445339295
4222+445566585+445776163+446108076+446500123+446497184+446225156+446205995
4209+446355397+446349686+446572217+447318401+447514238+446441686+445017935
4195+443922497+443196757+443273362+444046157+444718427+444795818+444253831
4182+443750663+443736882+444182316+444868533+444856282+443910743+443095403
4168+443190921+443743462+443606393+443039905+443545307+444912277+445379936
4155+444760806+444041356+443394208+442970294+443039615+443254614+443123380
4141+442898200+443397064+444247126+444185337+443656304+444019960+444630275
4128+444166796+443237853+442855780+442922452+442838191+441962428+440831108
4114+440749578+441492866+442047020+442131033+441979355+441902046+441921497
4101+442182600+442711675+443101073+443035559+442501684+442223572+442564093
4087+442657087+441902336+440674091+440032654+440492987+441217237+441415474
4074+441068621+440733024+440986139+441391967+441294959+440757897+439934321
4060+439114305+438933077+439676240+440752227+441328523+441360018+441244469
4047+441246290+441605724+442146305+442095897+441287551+440705378+440837647
4033+441092666+441080043+440770064+440381701+440426811+440992802+441684730
4020+441964994+441620085+441176306+440780659+440099616+439434547+439194510
4006+439428836+439898357+440079461+439839258+439251747+438418156+438208661
3993+438962378+439548813+439429912+439014110+438588955+438569958+438877744
3979+439032195+439373131+440114266+440318919+439558870+438872074+438953480
3966+439311342+439187806+438544796+438269829+438580305+438645860+438233700
3952+437785617+437276903+436953226+437214659+436994073+436247599+436336703
3939+436971063+437597187+437462725+435979420+435353502+436679211+437424568
3925+436700069+436556213+437178447+436731936+435625034+435896111+437572356
3912+439241028+440170841+439905310+437385210+433037972+430000426+429930485
3898+432371538+435532537+437007648+435396916+433685534+434557572+434548302
3885+433140691+433089373+432593407+433102658+435359421+435370553+433034454
3871+430521679+429996578+432317612+432730849+431150411+432462214+435205217
3858+436660505+434913986+427062786+423906505+429642068+435405152+437775394
3844+436420840+433263400+429868778+426694412+426870011+430081211+432568865
3831+433637775+434343815+434714135+435153609+433376217+428289624+427776193
3817+429626838+430100497+433331066+437904725+439689194+437027223+434466400
3804+433888614+431442636+430495151+432437962+434675025+437673378+440232878
3790+440817741+440057775+438977856+438594417+438842690+437880928+436934561
3777+438352559+439949096+439617596+437558864+436095010+436237625+436864329
3763+437770966+437129860+434265348+433436103+435257281+435237250+430196222
3750+426640403+429334241+430725835+429219602+431438580+435154934+435444427
3736+431035235+427149861+429114193+433973620+437294823+437260101+435807504
3723+435820582+437507422+440192030+442819940+443525608+439795803+434829890
3709+437179399+443933050+450092361+454510286+459011230+466232416+474993895
3696+483135747+489256652+491551738+489841225+490205543+494185897+497015769
3682+496687456+493503115+487670131+477134281+468909616+468532013+465971727
3669+461270021+460606152+460289634+457969552+455335392+452952983+448540066
3655+444437749+443382372+439657989+430723518+428360021+433092767+437125721
3642+438328059+437856469+436819095+434740290+431986071+429001086+422084126
3628+413490384+413520512+416883970+417547963+413663873+407812388+405535388
3615+404766690+402975765+401189806+398380295+395546450+395211888+394829857
3601+392061815+388451615+385412745+382811695+381610723+381664028+379629961
3588+374157363+371023389+371842081+372788365+372539554+371536365+370037912
3574+368419441+367298965+365787393+361426001+356239503+355860451+357602955
3561+357776444+356925926+356262513+355295081+353699165+352558989+351799189
3547+350173434+347962154+346470696+346278211+346900921+347163927+346520483
3534+345488778+344318266+342795272+341459093+340780636+340110333+339555164
3520+339829593+340422422+340162624+338705267+336940787+335597076+335034955
3507+335140985+334357988+332651407+332130361+332583658+332484788+331614467
3493+330334883+329024508+328117768+327442643+326646940+325751540+325032567
3480+325104164+325621692+325648510+325114738+324416188+323869938+323362219
3466+322610033+321693423+320937533+320463708+319948394+319406862+319132640
3453+318948971+318598910+318095411+317592782+317022259+316193758+315615848
3439+315792565+316187344+316018924+315232327+314645498+314763406+314973294
3426+314849964+314555588+313951129+312984110+312436226+312903512+313820764
3412+314314433+314229282+314207679+314667350+314992476+314922865+314974473
3399+314887501+314351991+314059497+314391473+314921727+315306800+315589982
3385+315923386+316422042+316996517+317430301+317773306+318162456+318650869
3372+319420064+320433662+321128197+321410655+322286376+324123716+325759031
3358+326539648+327278362+328511408+329777645+330637516+331195271+331804469
3345+332386228+332849044+333638084+334535802+335034624+335601732+336391392
3331+336903706+337156386+337318329+337444120+337782117+338348274+338625786
3318+338366629+338215136+338503388+338691734+338654797+339006452+339909902
3304+340698134+341027647+341182450+341472874+341795021+341722948+341560943
3291+341926089+342955331+344469055+345691175+346260249+346578423+346974463
3277+347842797+348839986+349319440+349864324+350933275+352047834+352895496
3264+353494306+353924593+354231923+354374994+354429581+354618549+354949138
3250+355223815+355575593+356042341+356298891+356417503+356517987+356653401
3237+357102767+357643596+357958789+358194067+358279363+358166753+358225148
3223+358499990+358773674+359116265+359444743+359665991+359845233+359789279
3210+359700176+359989379+360352746+360743427+361578963+362416196+362606198
3196+362217131+361634585+361720709+362962860+364410780+365017329+365109868
3183+365399940+365643536+365791532+366316220+367054168+367766582+368341305
3169+368598559+368720481+369025245+369617392+370158055+370191702+369839220
3156+369597693+369682161+370009067+370681005+371674676+372326625+372300593
3142+372120938+371994339+371926673+372278452+372665988+372512488+372446809
3129+372898658+373207768+373120982+372968310+372756457+372703566+373177639
3115+373889887+374458444+374674685+374505624+374485842+374757746+374807243
3102+374647825+374763333+375221969+375587281+375631646+375520360+375528430
3088+375891176+376418223+376864941+377147315+377216181+377486388+378046710
3075+378278511+378115286+378057635+378188787+378354785+378539779+378571273
3061+378454980+378470003+378644443+378786645+378672875+378475631+378577978
3047+378865319+379111274+379151046+378798564+378369394+378311164+378536758
3034+378703501+378586048+378230462+378009297+378142517+378420671+378735037
3020+379185768+379737937+380268915+380545703+380270571+379596563+379263242
3007+379758381+380669239+381247894+381334804+381551707+382576458+384103550
2993+385254445+385944965+386224278+386064777+386547707+387829340+388612854
2980+389374351+391191473+392939068+392949331+391497769+390456794+390631773
2966+390861174+390469706+390172060+390189401+389869779+389003742+388268607
2953+388385108+389177148+390066692+390921887+391638894+391894948+391802037
2939+391914275+392177943+391957606+391452493+391437594+391903101+392161016
2926+391745049+391113378+390947629+390769546+390106299+389844782+390392770
2912+390887785+390974281+391089706+391503522+391952060+392135316+392314764
2899+392723862+393191024+393550997+393755028+393780687+393589154+393317747
2885+393288694+393654047+394275702+394967505+395483502+395364560+394483955
2872+393457175+393069805+393482710+394299995+394977066+394997758+394596607
2858+394235351+393701641+393234148+393239776+393348414+393611834+394357315
2845+395000655+395092076+395114301+395444600+395973840+396623017+397326408
2831+397895338+398279066+398734847+399509960+400362133+400931517+401286110
2818+401506034+401622659+401857481+402304737+402886454+403353947+403488120
2804+403483112+403637315+404074555+404635290+404984379+405173097+405495037
2791+405995680+406550290+406974245+407133870+407090870+407069060+407334963
2777+407924047+408593792+409150802+409536227+409749240+409957989+410404044
2764+411127798+411959154+412559122+412689818+412563592+412551838+412900099
2750+413522582+413992185+414336266+415017020+415932347+416496435+416605983
2737+416788163+417336647+417901314+418181206+418454020+418921182+419375928
2723+419836055+420386857+420877360+421330824+421887006+422508123+423082184
2710+423435411+423343411+423084502+423342169+424127297+424802547+425101020
2696+425257790+425395356+425539212+425894881+426439103+426824859+426978897
2683+427152220+427348265+427425532+427516663+427728723+427987715+428208053
2669+428436585+428825817+429183514+429263264+429322446+429595095+429900397
2656+430039288+430139813+430449586+430862242+431097437+431211124+431429434
2642+431754311+432029278+432215390+432334291+432352997+432340043+432390989
2629+432548503+432813744+433142057+433648991+434285668+434641834+434713886
2615+434973582+435567508+436260926+436817936+437017042+436934395+436932491
2602+437047792+437293747+437825926+438329963+438465004+438446422+438529525
2588+438568758+438477296+438620697+439047425+439226170+439061828+438873316
2575+438705662+438573187+438543554+438541858+438548438+438621318+438795221
2561+439056613+439282207+439333649+439217479+439090632+439087859+439184578
2548+439247318+439227991+439165830+439098495+439259734+439764723+440250094
2534+440470556+440583663+440695032+440650542+440433723+440337335+440461948
2521+440694411+440949927+441130410+441255312+441362087+441409970+441421641
2507+441413364+441419654+441496632+441693876+442094159+442533675+442691148
2494+442533799+442202920+441779255+441402852+441281054+441298477+441191785
2480+441149695+441305761+441347643+441257919+441287717+441239875+440870300
2467+440492780+440407608+440427184+440248232+439897115+439703099+439788519
2453+439848653+439610188+439240159+439003308+438894464+438874888+438868556
2440+438709139+438418445+438175470+438102672+438127752+438073454+437964403
2426+437892061+437795756+437705908+437731732+437775477+437612666+437253024
2413+437005661+436979299+436881090+436617339+436534361+436670313+436606786
2399+436340841+436258567+436348167+436226865+435815574+435396626+435031687
2386+434520325+433676554+432275192+430103063+427207222+423745473+419893870
2372+416129302+412606178+408936755+405424433+402954575+401589178+400813941
2359+400726575+401843534+404539979+408891107+413950303+417384117+417229376
2345+413932673+410445347+408872814+409177744+410500307+411780740+412348262
2332+412355753+412782274+413900392+415014868+416049345+417560379+419626519
2318+421730154+423402510+424543307+425338864+426146630+427332579+428939669
2305+430483439+431424798+431938478+432463083+432991744+433556618+434219989
2291+434731392+435013271+435301605+435689182+436040091+436275369+436357520
2278+436342497+436454983+436655414+436703132+436651358+436733095+436960096
2264+437222233+437638821+438151839+438386992+438446464+438731652+439177459
2251+439473036+439647973+439983570+440416051+440746102+441059061+441310272
2237+441357286+441338207+441519849+441963256+442430790+442793743+443156157
2224+443465971+443615911+443760637+444056876+444357378+444524038+444750128
2210+445172386+445630112+446098226+446623162+447042400+447345633+447706682
2197+448171236+448633804+448988397+449311744+449757551+450322548+450831510
2183+451222894+451698872+452288494+452832467+453341801+453810288+454189464
2170+454492531+454754751+455129540+455656918+456188518+456760509+457486332
2156+458233303+458812330+459212985+459512866+459765567+459928917+460004197
2143+460146481+460405266+460647455+460665624+460467510+460388174+460418054
2129+460216630+459797351+459299192+458750459+458232847+457610655+456676579
2116+455667513+454817161+453984522+453145095+452431937+451790375+451073989
2102+450240522+449233028+447998865+446728862+445628043+444639504+443738703
2089+443037546+442362421+441409556+440369864+439566237+438819514+437905883
2075+437002144+436203275+435373037+434472070+433494001+432541923+431790689
2062+431186748+430621957+430055594+429430049+428706088+427992475+427407653
2048+426807064+426131359+425484625+424759506+423992918+423455732+423052924
2035+422575623+422100598+421635505+421110072+420602021+420164905+419745254
2021+419251771+418588193+417888071+417470572+417225444+416854007+416463285
2008+416242699+416108692+415807859+415260078+414633250+414077192+413577501
1994+412816583+411813062+411275172+411222447+411123576+411000743+410938830
1981+410874641+410739558+410312292+409654094+409210067+408904971+408157918
1967+407251860+406997545+407049443+406838707+406537874+406207202+405868584
1954+405686073+405497851+405077455+404401875+403487085+402377037+401745202
1940+402215095+402908596+403033456+402748226+402304654+401834843+401395037
1927+400838731+399793948+398636804+398161448+397808510+397477425+397923190
1913+398404009+398016598+397296735+397191780+397537103+397777099+397929688
1900+397996981+397656211+396903653+396401148+396196744+395696225+395534076
1886+396095514+396536976+396733351+396889872+396947025+396941107+396874104
1873+396407976+394667459+392166728+392063056+394336415+396155193+396711872
1859+396653145+396577492+396664237+396755368+396686337+396267844+395294287
1846+393552362+392193504+393295564+395181180+395860361+395879812+395916935
1832+394882168+392454110+391367156+392249582+393272471+394469180+395640065
1819+396067413+395955010+395642962+394853943+393828778+393733963+394470422
1805+394872194+394220535+392666708+391788793+392224336+392296844+390774471
1792+389485099+391238901+393786026+394754617+394525465+394001273+393679417
1778+393969986+393887421+391795829+388347323+388169530+391308264+394145254
1765+395397544+394989895+394420717+395015596+395892311+396824938+396698090
1751+393756270+390476038+390978378+393171283+394353714+394250705+393975821
1738+394546282+394020435+391204758+391289019+394638696+397849151+399817828
1724+400426156+400257137+398742669+394113801+389958676+392719682+397679139
1711+400661848+400935821+398797298+396632991+396182342+394356197+390822685
1697+390758537+394340884+398788689+401159925+401011268+399656465+396265072
1684+392125921+394604429+399368627+401878464+401548454+400388164+399779877
1670+398672065+399731787+403046162+404225116+403442926+404430389+406162133
1657+405674982+401144819+394994448+396878904+398905066+398385800+402142132
1643+408588743+412580146+413409143+411459752+411036459+417645054+424863342
1630+429270631+432190351+435066824+438296523+443425082+449006441+452307697
1616+455859170+462769839+469438277+474093093+478100554+482822209+487684409
1603+492184360+496775897+501472720+505614768+509342296+513500608+518053077
1589+522546572+526824944+530842834+534709791+538457226+541258749+542312636
1576+545065034+552145549+558089200+562090163+568115840+575785936+582567688
1562+587028820+587615338+590446162+603073480+615749592+626967272+637138596
1549+646763091+654439354+659201401+661797485+666669163+684139727+702511754
1535+714758448+727146350+742244519+754951339+764013816+771467383+778653597
1522+787537454+799381961+812124125+826254034+840431206+851261681+857171395
1508+858513699+866100030+884244188+898208058+906391089+910663667+916583892
1495+927345170+936050075+937813934+937330135+944504927+954468785+960889861
1481+964470305+966457232+965479950+960906664+955557726+956127773+963115750
1468+967926674+966585777+964267763+966091383+967103595+960162549+952679930
1454+957529507+964613996+968279445+968080380+967197788+968829710+971799962
1441+973268824+971038051+966269176+966153213+970267035+972614350+974091737
1427+976143144+976714515+977149810+977102630+972479929+969711805+974967624
1414+980154082+981114478+980299759+979503829+977658192+975270154+973279667
1400+969498503+964869511+962431479+961431931+962148483+963459997+961475635
1387+955948325+953559128+956649399+960872148+962741127+961761610+959187915
1373+958581284+960759745+961582989+960469796+959127244+957185840+956822143
1360+959434822+961697710+961735454+960547188+959680322+959396085+959283516
1346+957949572+954419040+949659352+945888038+946162094+949407644+951767623
1333+952472339+952531355+953342101+954793581+955676007+956955818+959754651
1319+962734836+964890287+967134054+969675303+972200327+975313278+978778917
1306+981711591+984196141+986642368+989205468+991377886+992623844+994070109
1292+997487990+1002475464+1006212346+1007382568+1008155405+1009809343
1281+1010829004+1010867576+1011108441+1011271914+1010964832+1010992313
1269+1011705223+1012392722+1011878463+1009940122+1008074951+1007519555
1258+1007528329+1007440674+1008081656+1009478009+1010855905+1012281643
1246+1013863156+1015172186+1015653668+1014999939+1013326715+1011697525
1234+1011375130+1011853218+1012535668+1014177936+1016442479+1017595403
1223+1017089752+1016464248+1016757176+1016831174+1016449267+1017034378
1211+1018372212+1019673379+1020864460+1021272523+1021365558+1022367754
1200+1023407363+1023097964+1022469232+1023029181+1023804252+1023804583
1188+1023492618+1022372886+1020220829+1019257535+1020870502+1023154993
1177+1024089814+1023919553+1023427477+1021532260+1018314272+1017243872
1165+1018799396+1019615770+1019012201+1018915938+1018770674+1016863620
1153+1014845405+1014058911+1013380268+1012449255+1011154793+1009641235
1142+1008305138+1005843434+1001672002+997955234+995460421+992765880+989866646
1128+987772446+986286368+984294143+982314747+981146842+979327195+976214576
1115+972450049+968148004+963274009+958321961+956355974+959592005+962991345
1101+961148936+957469912+955902304+955577343+956355063+958066280+958357718
1088+957489860+959109862+963192314+965553534+964907917+963832220+964182012
1074+965311593+966825483+968707870+970025260+971482865+973482374+974568583
1061+975102790+976258776+977913625+979844103+981348390+981395653+980543852
1047+979953858+979878867+979982165+979738735+979415595+979883171+981385472
1034+983274150+983971748+981876803+978709803+978401148+980595419+981828961
1020+981326125+980595419+980910861+981675420+981031128+979045276+977929103
1007+978862516+980661222+981261067+980358196+979844682+979920915+979146340
993+978243386+977714063+976730738+976314978+976442859+975070095+973208235
980+972397655+971432954+969908883+968824743+969153677+970472391+970304034
966+968038498+965923605+964513346+963043987+962654300+963641597+964149317
953+963816741+963295033+961710871+958591382+955856697+955197919+956320382
939+958435689+960114624+959818302+958505630+958484524+959903888+960761152
926+960411939+960946560+962956167+963954639+963618835+964321813+966408397
912+968101321+967819981+965444855+962998463+962160485+962245574+962932908
899+964392582+965377645+965270373+964867938+965451394+967416470+968643640
885+967306798+964744775+963385833+964000659+965236437+965135456+963530766
872+962516320+963858707+966797175+968909088+969389576+970393924+973616133
858+978054998+981816546+983730883+983957925+983755218+984178345+985493087
845+986886130+987472400+988455807+990993827+993626372+995238842+995283870
831+992163801+988224461+988664556+993124198+997213354+998506078+998194113
818+1000137503+1004891397+1008209289+1008073709+1006469434+1006274176
806+1008589706+1010725623+1010488400+1009830698+1010257054+1010853174
795+1012531695+1016784160+1019694982+1017604094+1013596964+1010490138
783+1009381332+1011438450+1014407627+1015188327+1013694468+1011804300
772+1010815264+1010624145+1010922371+1009793286+1006209366+1003407967
760+1003711159+1005888792+1007421802+1006814508+1005410953+1006173112
748+1009473622+1010703357+1008268222+1006301242+1005210729+1003667787
737+1002827491+1003619614+1005134082+1004409750+1001377915+998497718+995899689
723+993175102+991432433+993795557+1000287816+1004699201+1005260309+1005915527
710+1005412194+1002297671+1000110850+999975850+1001436600+1003664228+1002368358
696+996828964+992745932+991443772+989364306+987850499+989933773+993698714
683+995164348+992569795+989640349+992045355+998114735+1000179468+996969675
669+993177834+992611180+995504621+1000825664+1007485205+1009786581+1009675585
656+1012837701+1011263637+1005126881+1004105648+1001650813+992126057+982371859
642+972734865+965052188+971198876+999094666+1044796243+1073741823+1053256890
629+1017209357+995127597+986510513+992079705+1008703848+1016392237+995831320
615+971702126+970676506+976054661+969371200+960583193+966465013+990924630
602+1016360453+1023966484
##END=
