##TITLE=Sample description
##JCAMP-DX=4.24
##DATA TYPE=INFRARED SPECTRUM
##DATE=24/8/2023
##SAMPLING PROCEDURE=Instrument type and / or accessory
##ORIGIN=Default
##XUNITS=1/CM
##YUNITS=ABSORBANCE
##RESOLUTION=4
##FIRSTX=4397.6552
##LASTX=599.8556
##DELTAX=-1.9287962
##MAXY=1.4411459
##MINY=0.61102593
##XFACTOR=1
##YFACTOR=1.3421717e-009
##NPOINTS=1970
##FIRSTY=0.75712395
##XYDATA=(X++(Y..Y))
4398+564103641+563579569+562132809+560417285+559816297+560601938+562464057
4384+564375824+564806060+564094270+563574329+562596396+560403563+558945035
4371+559914041+561738811+561893710+560183605+558470168+558388855+559837036
4357+560966004+560341967+558807189+557690433+557313711+557951248+559093228
4344+559496818+559170189+558301547+556902216+555892086+555781774+556439917
4330+557377615+557315620+556114265+555614441+556017631+555334663+554472638
4317+556187407+558740975+558712375+557165828+556333602+555992762+555417042
4303+554661776+554537609+555837863+557584739+557557605+556233548+555772448
4290+555616217+555124564+555129538+555100316+554471217+554268401+554902962
4276+555462606+555728217+555860378+555456433+554441507+553730917+554279769
4263+555004171+554343363+552717102+551696358+552175577+553215061+553879244
4249+553892433+552791443+551707017+551985684+552240770+550964230+549108640
4236+548225076+548929582+550155140+550369681+549967867+549859598+550760881
4222+553168831+555308284+554954699+552893184+551358405+550870038+550641553
4209+550142573+549159177+547935262+547270103+547662591+548844761+549741425
4195+549354755+548554503+548307411+548055300+547937083+547884680+546997919
4182+545796875+545070475+544915887+545488321+546215875+546126613+545069721
4168+543584369+542965084+544244333+546324411+547416342+546942142+545188248
4155+543332170+542394605+542061403+542049058+542569355+543160529+542983381
4141+542231046+541857699+541907126+542020813+542286646+542369736+541996078
4128+541577966+541622908+542142761+542760936+543152047+542800593+542020458
4114+541743834+541208615+539922972+539515607+540099320+539795917+538870032
4101+538739647+539187335+539646569+539345831+537932378+537238930+538342851
4087+539301733+538749683+538065783+537976920+537225829+535769077+535094681
4074+535660897+536588203+537015596+536899422+536562446+536109251+535377567
4060+534528464+534454568+535094325+535313884+535292656+535663472+535883564
4047+535229995+533921436+533492000+534745358+536297945+536905062+536625152
4033+535919668+535379920+534959632+534090058+533557548+534153874+534376807
4020+533651651+533477567+533571581+532802815+531720033+530961792+530845884
4006+531693609+532568158+532401757+531911480+532097998+532647250+532995773
3993+533126114+532730606+531698272+530820304+530320080+529859113+529145148
3979+528644436+529639422+530957129+530328384+528528839+527397828+527665348
3966+529342724+531570507+532233979+530895578+529866086+529878920+530397929
3952+531716524+532871117+532055366+530742189+530477377+529951706+529615307
3939+530023916+530265057+530789529+530361514+527714775+526658327+528478257
3925+529245513+527439705+526193142+526523501+526400666+525108139+524431877
3912+525025005+526230845+527742664+528424788+526865451+524921576+523566565
3898+522640502+523987297+526076834+524873037+522473613+524080556+525824857
3885+524130383+523245088+522203028+520433814+521376752+522458247+522460779
3871+521846867+519330114+518695419+519973647+519989412+519983061+521540533
3858+524165955+525453553+519857650+513433074+514598146+518055395+520677531
3844+521045016+519771008+518304086+516114273+515048322+515903685+516490374
3831+516919322+517620763+518134488+519792102+520716833+516666767+514232926
3817+514328183+512345184+512816720+516040554+518203100+517157443+516443167
3804+517762073+515275829+512351268+513385023+514089218+514748960+516223919
3790+517378068+518447927+518940380+518337793+517750216+516089671+513711785
3777+514059198+516375088+518382957+518115525+516095977+515175376+514493341
3763+514218893+514922999+515071325+515459328+517551308+519567614+517848094
3750+515225025+518075690+521269504+521113095+524152943+530571746+535202195
3736+534306685+529580802+528160998+531556207+536032024+538159841+537192922
3723+533937912+529329091+526506803+527666281+531761377+535148860+534500709
3709+534339504+538474835+544942666+550963475+555735411+561398549+568179420
3696+574528412+579787160+583282379+583518547+583078808+585333014+587975178
3682+589101038+589337028+589603527+585344205+577996496+577669379+578321171
3669+576875344+578410389+581278862+583397088+585173896+587028287+588785200
3655+592100961+597887335+602801602+602583820+600891966+602331754+604101767
3642+604218208+602987854+602042473+602207897+603192402+604954644+603650082
3628+595247169+590610148+591773045+593212699+591325978+586231410+582829939
3615+581092166+580043801+580919326+580789651+578107786+577396085+579209087
3601+580041447+578591356+576743449+575510519+574604218+575218662+576872369
3588+574815561+569548463+566823876+566082999+565325646+563765732+561313283
3574+559986339+562585604+568365005+572217495+569094736+564122559+562629347
3561+562831853+562960062+563839895+565598274+565913045+565435514+567858164
3547+571106735+569993798+566930724+566228083+566965630+567445737+567180259
3534+566960789+567980023+569968130+572369730+574423695+574253431+572233527
3520+571186760+571428612+571038700+570237426+571406896+573721498+573603548
3507+572904060+574746505+576278530+575705608+575446304+575678430+575136284
3493+574214883+573769460+573924581+574486534+575480676+576861933+577468339
3480+576766453+575927476+575514960+575555772+576164132+577449332+579105747
3466+579888990+579349864+578707841+578745056+578563201+577899818+578169559
3453+579802748+581783660+583000514+582535818+581270558+581276242+582128009
3439+581888244+580852712+580273040+579785029+579572753+581060458+583269456
3426+583909835+583058957+582062772+581855692+582734904+583824037+583625439
3412+582665803+583005888+584738021+586355978+586521934+585408243+584670386
3399+584437105+583705331+583115800+583143823+582905568+583179927+584589739
3385+584810896+583263594+582490209+583174687+584181619+585186641+585582726
3372+584807965+583964592+583861340+584041952+584212972+584549504+584806100
3358+584470234+583815466+583344907+583030002+582734815+582637159+583022763
3345+583636941+583673756+582674640+581218333+580275705+579817359+579280763
3331+578899822+578621510+578434681+578727426+578437035+577366775+576922151
3318+576936273+576808153+576938716+576921308+576025576+575303040+575517358
3304+575478944+574562296+573618736+572972761+571893531+570783703+570541407
3291+570337036+569870074+570423234+571180276+570110061+568629195+568908928
3277+570005700+570265226+569592073+568747678+568107832+567308646+565869924
3264+564333103+563394649+563146402+563740596+564163460+563343623+562156968
3250+561398593+561229439+562075255+563074460+562762086+561460633+560022932
3237+558787027+557968390+557799990+558176713+558415234+558050813+557235462
3223+556727466+556383562+555639132+555350562+555424414+554615191+553651558
3210+553845537+554033121+552855925+551345793+551012769+551097368+550288323
3196+550127918+551537152+552501362+551582227+550237697+550540212+551802985
3183+552152173+551028623+550576938+552242235+552908372+550515520+548394586
3169+550464805+554011139+553274303+549390771+548893122+553170341+555279907
3156+551779226+548685954+551562110+556441649+555110308+549471773+549259631
3142+556679637+560849697+554673412+547802124+550136178+556909410+555928679
3129+547875665+545127719+552555408+559464088+554890350+546415272+546892670
3115+556088774+559564320+550433941+542237219+546253801+556029000+555454079
3102+544558305+539497488+547116314+556416780+551593862+539080575+536945119
3088+548101930+556724579+549326822+537498457+535631809+542341447+545824409
3075+539755194+533028502+534494003+542293885+544508922+536840047+530562731
3061+532482537+538848849+539881538+533371563+528052729+528199767+530870708
3047+530655724+527091094+524674484+525138514+526754295+527099088+525847728
3034+524719292+525086600+526528786+526903998+525624128+525190029+532411127
3020+562915031+621562495+667432482+656314130+616806679+585227054+566104937
3007+553521795+543937866+537200294+533768092+531899534+529086661+526350306
2993+526006135+529515609+533766138+532018861+526591003+525120573+529608380
2980+535889204+536087935+529902101+525379922+527173029+533925078+537684087
2966+533591699+528195637+528546203+537016218+545352607+541064552+530647864
2953+526790844+532580015+542577881+543498260+534335240+527953874+530255909
2939+538518356+542461307+536184658+528876740+528315853+534988054+542524235
2926+539967381+530394909+525536642+529091458+536739771+537726719+529444288
2912+522509673+522840920+528080573+531782916+529223486+524367173+522608972
2899+525407278+530576321+531323637+525969942+521553989+522279723+526182883
2885+528286143+525569105+521518817+520549366+522846694+525545879+525345150
2872+522529213+520384564+520876350+523253348+524837287+523830844+521541910
2858+520286331+520776164+521850597+521523658+519477508+517617921+517311543
2845+518230367+518974353+518442110+517601312+517786187+518638043+519507662
2831+520014503+519949621+520020454+520648576+521136810+521039643+520585782
2818+519972936+519368395+519141420+519391310+519719760+519764036+519588664
2804+519614688+520015036+520365779+520183790+519603097+519432477+519948955
2791+520319149+520132809+519960857+520112869+520322214+520488837+520721452
2777+520948693+521125086+521374265+521768396+522101109+522012513+521525434
2764+521222786+521628641+522420810+522935956+523038363+522845983+522617676
2750+522585124+522593784+522754190+523436091+524136956+524028997+523404694
2737+523134331+523354245+523480145+523461049+523911002+524535616+524611689
2723+524450529+524476108+524505329+524576872+525123504+525965767+526272590
2710+525906392+525461280+525347237+525529936+525616712+525469895+525594463
2696+526325659+527015820+527021993+526882682+527153888+527496371+527574087
2683+527438284+527420165+527883619+528424388+528440287+528307637+528544471
2669+529050335+529520139+529814616+530054647+530106694+529925061+530044077
2656+530573745+530986527+531090267+531238904+531560870+531752807+531804543
2642+532068422+532616519+533198278+533748552+534245445+534565590+534812638
2629+535137269+535627012+536121641+536270811+536295192+536693097+537478650
2615+538206915+538495619+538470305+538496418+538754701+539148743+539729526
2602+540623303+541327099+541461125+541384831+541489547+541929286+542535426
2588+543017665+543360014+543638060+543967042+544559904+545414735+546260773
2575+546879347+547149932+547247232+547624399+548172007+548430646+548530122
2561+548744219+548879444+548881043+549196792+549904629+550567212+551119084
2548+551615889+551817062+551798588+551966099+552358853+552778297+553280476
2534+553824754+554272619+554741269+555055152+555028107+555138331+555628252
2521+556165247+556529224+556690162+556814508+557044769+557176398+557183325
2507+557432505+557920739+558119114+557966569+557954889+558221788+558648737
2494+559002234+558929358+558632084+558554412+558695633+558946944+559193459
2480+559270731+559304082+559483495+559767891+560091767+560343344+560347163
2467+560121387+559813854+559477766+559177250+558997881+559046865+559428872
2453+559849115+559942952+559761008+559526350+559435400+559366921+559123648
2440+558844226+558603973+558320509+558029274+557794528+557506757+557076832
2426+556660053+556412561+556348212+556340085+556161339+555716049+555126829
2413+554705431+554573536+554332705+553737889+553053856+552468633+551947492
2399+551576498+551656745+552457930+554443728+558779344+566990988+580065073
2386+597795941+618859091+641271833+663269661+684053922+703337821+721526458
2372+739780244+758152868+775436892+790914886+803982088+813805471+819253580
2359+817843413+807348120+789415990+769231874+751615937+742515001+746871357
2345+759065298+761893003+752586453+743019000+737360614+735360916+737466974
2332+741221364+741254671+737761139+736659794+739286326+740031022+734239187
2318+723425703+713491075+710743261+714296789+715230935+708016098+694663080
2305+679545243+666978399+658239353+651109205+643444904+634165488+623308306
2291+612411377+602738141+594349439+587136334+581288099+576753574+573044437
2278+569703362+566510348+563585520+561236012+559386950+557861541+556736215
2264+555914069+555165553+554275328+553130950+552285312+552220386+552272655
2251+551763239+551071078+550861734+551070190+551108915+550948731+551029911
2237+551249558+551283221+551353387+551699911+552251117+552814224+553117627
2224+553289979+553525125+553759961+554219417+554902341+555498355+556099033
2210+556829829+557657659+558609879+559443616+559903294+560295915+560870791
2197+561432566+562068016+563117359+564286695+565051198+565687447+566572387
2183+567441296+568032692+568553922+569405289+570599227+571832779+572911299
2170+573642850+574023436+574533652+575484717+576419973+576867972+577069767
2156+577425706+577872284+578164363+578365536+578649621+578856079+578696650
2143+578297501+578033844+577894400+577480996+576630561+575582107+574407797
2129+573036976+571717582+570654694+569513736+567947915+566303757+564910421
2116+563442211+561693825+559910888+558340849+556970561+555467668+553621049
2102+551746896+550144971+548711711+547264996+545722446+544230078+543005985
2089+541901042+540558688+538927364+537302168+536046456+535250246+534478637
2075+533381022+532179090+531101813+530227176+529722733+529458721+528913022
2062+528003390+527020839+526166541+525788886+525918383+526170316+526340580
2048+526505471+526867139+527468305+528184624+528918129+529792145+530864314
2035+531819420+532586943+533420502+534395992+535362645+536117333+536629770
2021+537121956+537643408+537619738+536792751+535815618+534947464+533889151
2008+532631840+531303564+529867374+528284189+526721566+525418869+524452438
1994+523701969+522467573+520269589+517778371+515478868+513577892+512246729
1981+511096977+509751692+508318699+507042781+505903643+504963547+504384807
1967+503670043+502405804+501222524+500490750+499790330+499040971+498415691
1954+497741383+497054818+496621163+496405690+496405335+496715088+496790273
1940+496236802+495613565+495287913+495204557+495168452+495230581+495527056
1927+495988644+496777261+497666376+498031241+497912224+497715226+497757103
1913+497987009+498409473+498949488+499043191+498845526+498996517+499174598
1900+499026982+499189430+499758577+500020369+499945451+499586359+499053361
1886+499028092+499321547+499525696+499819551+499957086+499699647+499691031
1873+500570687+501803706+501995775+501370228+501832527+503412603+504743899
1859+504934237+504613736+504701089+505206154+506260959+508044428+509636406
1846+510028005+509274383+508339616+507682228+507101268+506832504+507024129
1832+506580438+504341197+502099470+501534498+500812139+499192495+497914756
1819+497197327+495770595+493587932+491739581+489585562+486926877+484739063
1805+483595439+483599214+482521627+479200803+476612063+475269576+473454132
1792+471028196+469164212+468554386+468554209+467735438+466117126+464595670
1778+463140561+461677414+459858284+457687878+457678019+459087831+458814448
1765+457680728+456957526+456724778+457181747+457175397+456823455+457827811
1751+459200452+458565979+457324389+457331362+457307958+456251243+455251683
1738+455660913+456685387+456862712+456762215+456820435+456443668+456477019
1724+457093595+457626593+458072061+458468501+458822309+459234159+459586456
1711+460105554+460676433+460846920+461227950+462269388+462114888+460579888
1697+460734742+462037927+463791776+466015873+468232953+469818092+470199211
1684+470690686+473585672+476046202+476802578+476769138+477201594+478313865
1670+479578991+481595387+484300700+486411243+487948109+490207067+493086376
1657+495461197+495925406+494059601+495507916+498557134+500399445+502539920
1643+505896804+508714695+510086803+509872618+509509529+512235848+516061116
1630+519038968+521543020+524173327+526682663+529535549+532643964+534658628
1616+536453155+540530666+545301625+549073290+552129569+555361353+558836765
1603+562346772+565792208+569203494+572724247+576379605+580157577+584180908
1589+588440452+592636002+596832219+601043445+604920138+608275735+610857058
1576+613962454+619061552+623901833+627824845+632286006+637533119+642795643
1562+647320797+650280398+654401430+663205979+672502714+681770717+690508341
1549+698091152+705124710+711833549+715138786+715234798+723801581+736326192
1535+745045121+751489992+757767397+764228211+770770294+776698288+781068233
1522+785364370+791951750+800551928+809826770+818244694+825661103+832030701
1508+834660519+833727662+839276579+847179002+852714242+855438119+858084457
1495+862875933+867970013+871082203+871752692+874026527+878760981+883594291
1481+887521743+890331774+891578160+890448215+887724249+888354236+894054944
1468+899463885+901181984+901059149+902945559+905245773+904604150+905028346
1454+911556306+918341130+922676879+924973008+928116817+932836883+936823933
1441+939553227+941941372+944486280+948100826+952935556+957589186+962235178
1427+967339738+971102255+973281321+974663333+974969578+977342445+982710618
1414+986949733+989665794+992625928+994487113+993025343+990847698+990677611
1400+989761363+987865538+987461593+988217969+990401831+992383454+991110778
1387+987091842+985074870+987183592+991469692+994910421+995438534+993862721
1373+993967171+997246606+1000481632+1002194313+1002890204+1001261456+998713350
1360+998646648+999409951+999240664+998245900+996847901+996114085+996017362
1346+995137440+994276614+993738376+991339218+988446231+988251275+990048956
1333+991824254+992715279+993170383+993196496+993128283+993843359+995078287
1319+996744517+999112410+1001231702+1002842331+1005201698+1009654155+1017650192
1306+1026440530+1029974873+1029311312+1029967946+1033088662+1036644943
1294+1039571326+1042199190+1044683702+1046843583+1048893507+1051610901
1283+1054375989+1055565531+1055687479+1055702756+1055165494+1054246759
1271+1054076228+1054647240+1054627611+1053608689+1052634975+1052358928
1260+1052616767+1053504683+1054620062+1054859871+1054085021+1053422348
1248+1054070010+1056239750+1058677988+1059843905+1060638384+1062525238
1236+1064101317+1063774377+1062404178+1061650645+1061547349+1061714683
1225+1062516711+1062884063+1062514047+1063481188+1066136320+1067752900
1213+1066799703+1065889938+1066953092+1068481742+1069646682+1070129053
1202+1069141306+1068470373+1069906297+1071869890+1072657175+1072238841
1190+1071462748+1071317974+1071863495+1072425182+1072209442+1071679375
1178+1072267618+1073458848+1073741823+1073427318+1073249770+1072892987
1167+1072174093+1071199135+1070174617+1069534504+1069073715+1068765072
1155+1068977081+1068149296+1065879191+1064906187+1064468136+1061622845
1144+1057991601+1055850194+1054097278+1051485312+1048406784+1044966499
1132+1040720989+1036173319+1032628317+1030731960+1029264328+1026204451
1121+1021387929+1016705077+1013041859+1009315491+1004498258+998416253+992192672
1107+987332540+984174964+981903616+979247862+976621330+974848252+972659860
1094+969593944+966927178+964913580+963486627+963426941+963142101+959859824
1080+955121728+951745392+949967873+949156430+948192930+946280674+944232615
1067+943268049+942973706+941732293+939665583+939220692+941122645+941992886
1053+939824834+936929449+935323793+934731909+933635625+931862636+931004564
1040+931304947+931629133+931243840+929929419+927925680+927159534+928845570
1026+930648136+931341895+931750459+931322533+930789002+931934224+933898083
1013+934985485+935197316+935380370+935715304+935345376+934220493+934018521
999+935688747+937935226+939161095+939243696+938674638+937692575+936615476
986+936227163+936500812+935773302+933798873+931949767+930079522+927626718
972+924744390+921554306+918958238+917978574+918042256+917531818+915484647
959+913067015+912450528+913829253+915971016+917814260+918292280+917477372
945+916706253+916820562+917836820+919837894+923085177+927133955+931009093
932+933975089+936168277+938385712+940412366+941915259+943512033+945222760
918+946761181+948234142+949955883+951857214+952743265+952265956+951898781
905+952221635+951827194+950339489+949783043+950489325+950158388+948480523
891+947146119+946288312+945155436+944036504+943179320+942226567+941893499
878+943305708+945677954+947464798+948764742+950456817+952238777+954253441
864+958258254+964132601+970209632+976172709+980952284+983087296+983645429
851+984483785+985223374+984858597+984569405+985387421+987851949+992132276
837+994837767+993848954+991346590+989427229+989768202+991696889+993210884
824+996224753+1002114821+1007701575+1010879757+1013198801+1015083346+1014917877
810+1013588269+1013265415+1013622730+1015286295+1018809803+1019985933
799+1019093044+1022500999+1028463454+1030757184+1030934998+1033157940
787+1036930671+1039692385+1040620269+1040052720+1038886626+1039019321
775+1041427982+1045226115+1048015095+1048070074+1047456162+1048680166
764+1051895474+1056112563+1058282747+1057390213+1056839718+1056520505
752+1053577513+1050387963+1049420910+1048255704+1046463619+1046137212
741+1045062956+1040836363+1036829419+1035926138+1037585617+1041117384
729+1043663980+1041951565+1037890263+1035592003+1035607191+1035299792
718+1033791658+1032185381+1030227650+1027848388+1024905041+1021265626
706+1020321666+1021945974+1020201495+1017339417+1020418389+1026484584
694+1029101435+1029691188+1029951603+1026938356+1022252485+1020696124
683+1021001658+1018779160+1014475918+1012672375+1014475918+1016820808
671+1017668577+1016384710+1015121715+1016900033+1019059115+1020628089
660+1021498330+1020266066+1018946849+1019281338+1018325566+1016623365
648+1020375845+1026256232+1023308534+1017486855+1016912379+1012452817
637+1002044655+995647701+995626207+998976696+1004993863+1008156858+997759531
623+979126981+970669178+972717503+970739344+970253775+979168103+980750844
609+972944523+971994079+976323167+982438212+997924289+1013663942
##END=
