##TITLE=Sample description
##JCAMP-DX=4.24
##DATA TYPE=INFRARED SPECTRUM
##DATE=24/8/2023
##SAMPLING PROCEDURE=Instrument type and / or accessory
##ORIGIN=Default
##XUNITS=1/CM
##YUNITS=ABSORBANCE
##RESOLUTION=4
##FIRSTX=4397.6552
##LASTX=599.8556
##DELTAX=-1.9287962
##MAXY=1.4392908
##MINY=0.54095858
##XFACTOR=1
##YFACTOR=1.340444e-009
##NPOINTS=1970
##FIRSTY=0.68507767
##XYDATA=(X++(Y..Y))
4398+511082655+510385422+509019594+506988816+505669855+506015626+507721444
4384+509848447+510614024+509032267+507230402+507618904+509074599+508717845
4371+506024519+503591765+503142655+503536805+504007259+504605687+505170810
4357+506108027+506766173+505992370+504519822+503256089+502389084+502327898
4344+503076356+504258271+505229550+504998992+503753800+502683762+502339593
4330+502804666+503659843+503777412+502864251+501941441+501685671+502338615
4317+503847046+504559086+503532892+502823742+503506256+503649260+502274672
4303+501144604+501410557+501855755+501542133+500829427+499973494+499644488
4290+500564363+501527949+500857930+499278352+498724835+499308678+499378579
4276+498833155+499365817+500307926+499733242+498921643+499753475+501010805
4263+500965761+499847832+498642172+498387913+499342072+500209077+499996172
4249+499218856+498649776+498015285+497388399+497809362+498352029+497638300
4236+496761112+496312491+495605565+495015497+495583865+497313384+498635057
4222+498573471+498370216+498694242+498127963+496291414+494732202+494235646
4209+494543175+495251435+495889038+496293949+495990555+495043555+494774044
4195+495422364+496087047+496149522+495659458+495077838+494515428+494176017
4182+493825310+493118384+493213898+494569232+495459315+494849637+493826556
4168+493187307+492420218+491544009+491333683+491829038+492286997+492612847
4155+493064269+493085213+492337956+491320299+490632493+490658818+491258090
4141+491796222+491906099+491780170+491307804+490289613+489837346+490700127
4128+491209844+490371476+489823206+490328655+490532177+489969945+489623952
4114+489412248+488781626+488576192+489105608+489325672+488862955+487898836
4101+486510730+485708557+486314100+487200625+487465378+487692156+487840407
4087+487271772+486434559+486327129+486781752+486649687+485857697+485450964
4074+485364076+484851291+484418766+484452783+484205817+484011810+485100391
4060+486654579+486732928+485608197+484829769+484761513+484858805+484756177
4047+484848934+485298400+485172426+484367497+483908159+484080867+484158327
4033+483741722+483663594+483888061+483290433+482259525+481422757+480777684
4020+480968134+481952129+482656965+482983704+483564657+483799661+482908467
4006+482060049+482207811+482355928+482129639+482418715+482986461+482945730
3993+482500399+481938078+481420178+481443079+481772174+481990548+481855993
3979+481619121+482272643+482808596+482022164+481140707+480232438+478966214
3966+479041096+480851454+481734244+480546370+479602127+479578027+479484425
3952+480210872+481691734+481379758+480302961+480838425+480784310+479183921
3939+478500251+479350626+481032521+481719348+479837043+478296640+479118022
3925+479958525+479609020+479448941+479466283+478238033+475837696+474368972
3912+474302095+475469648+478241101+480731528+480068980+476766064+473170248
3898+472191500+474528829+476395348+474674145+473107462+475494326+477378588
3885+476193115+475782424+474977183+473084206+473330283+474344694+474871798
3871+474020890+471770670+472022350+472813228+471610013+471475592+473195594
3858+475149757+474675345+467592790+462828177+466212955+470441482+472842042
3844+473953034+474588680+473366701+469403949+467067154+467546634+467932068
3831+468524849+470023943+471195098+472148234+471611214+467895873+467053814
3817+467934203+466698572+467556239+470469585+472108125+470533794+469084592
3804+469666434+467948343+466714269+467956747+467957459+467985784+469145422
3790+470416314+471443976+471465631+470906467+471014387+470402663+469145555
3777+469669858+471326674+472268293+471189273+470037728+470544022+470117723
3763+469676617+470353661+470147337+470281848+472432907+473874862+471739944
3750+470962895+475442834+478554678+477329186+478935577+484373099+489435860
3736+489475524+484296173+482551046+486384890+491900362+495445664+494244539
3723+489220731+484346375+482654742+483978283+486706204+488578949+488583173
3709+490506165+494911668+499655649+504015307+508251082+513245587+519013316
3696+524799321+529837269+532908604+532778985+532796816+536073408+539858027
3682+541438450+540639345+538779274+533794152+529336801+531494797+532413872
3669+530556913+532216975+534896028+536162918+537817511+540765585+543466827
3655+546807450+552313851+556620772+554621832+551703862+554087213+557426324
3642+558383996+557299595+556537753+557026483+558334105+560217032+559046100
3628+551630803+548274617+550168261+551677582+549573701+544683293+542579012
3615+543066052+543385943+543773734+543241116+541643129+541628855+542447391
3601+542069116+541237106+541030116+540211490+538688429+539215266+541357521
3588+539501852+533573554+530410396+530076810+529877467+528994410+528123136
3574+527771719+528778882+532050938+535023290+532380967+527898448+526816359
3561+526454492+524974741+524725329+526031751+526340925+526220332+528302780
3547+530857061+529832734+526503450+524905196+525635422+526480905+525359953
3534+523837381+524500908+527089516+530454551+533070284+531849372+527418567
3520+524666323+524387652+524327534+524484944+525666815+527008587+527589763
3507+528834198+530984724+531420360+529724325+527784036+526633692+526814492
3493+527963458+528750868+528120335+526707773+526337902+527489446+528517197
3480+528081427+527061191+526385392+526146385+526744057+528001743+528559351
3466+527640988+526283074+526117793+526947446+526885994+526030550+526160570
3453+526862515+526905381+526605367+526206459+526006405+526793103+527977153
3439+527837084+525764152+523038410+521584316+522221519+523738488+524346343
3426+524199159+524291738+524234110+523377332+522443317+522511484+523296937
3412+523589615+523107955+522745021+523125030+523823952+524306901+524571965
3399+524281511+523315168+522644216+522376261+521757779+521153259+520723848
3385+520240676+520730562+522240817+522615846+521355359+520529352+520961209
3372+521735279+522436913+522705801+521811272+520581867+520565058+521154237
3358+521130581+520851066+520773605+520413472+519540909+519266730+520043112
3345+520170686+519101715+518507778+518990683+519365001+518602758+517484074
3331+517587592+518396435+518322532+517544504+517032652+516808675+516170005
3318+515091162+514479572+514365116+513999558+513515275+513320334+513181555
3304+512781936+512379916+512596734+513121170+513245764+512968784+512272129
3291+511417041+510865926+510725456+510799493+510734883+510570847+510359276
3277+510200175+509934311+508972549+507867738+507879166+508848932+509234989
3264+508536156+507684047+507215505+506814819+506331114+506140976+506102246
3250+506084059+505924470+505127899+504443162+504538053+504382110+503232699
3237+501681669+500563918+500546977+501312376+501702168+501833566+502471213
3223+503031311+502857893+503032868+503362719+502255463+500748943+500309393
3210+500365332+499683751+498263407+497559816+498075315+498499079+497879752
3196+497439313+498284396+499405481+498903945+497236813+497377504+499343406
3183+499853302+497934045+497137653+499741691+501925878+499991592+497036092
3169+497930977+500415134+499233885+495702457+495446464+499447857+501733961
3156+498946410+496336058+499588549+504754649+503367566+497101680+495860135
3142+502493802+506603782+501501313+496121152+499288801+506331381+505468956
3129+497643902+495314755+503271385+510258515+504435158+494459845+495317957
3115+506646781+511650001+502407626+493686887+497723141+507961740+507416627
3102+495930169+490726095+499038322+509078912+504725212+492464418+490012010
3088+500907910+509989138+502883061+490884484+489130020+496154502+499343095
3075+492616448+485932223+488084972+496485821+499025827+491475264+484901226
3061+486275814+492581276+494247563+488494863+483608856+483837413+486634435
3047+486896609+483580398+480652156+480467398+481929051+482087040+480190684
3034+478632316+479216738+480812323+480738910+479273477+479530270+487317350
3020+517688397+576491626+623969899+614867860+576003608+544091490+524239001
3007+510571069+500232155+493534367+490136783+488228465+485833730+483349662
2993+482682267+485597525+489353997+487478496+481729397+479568867+483977838
2980+491065107+491710847+485160465+480279928+481524452+487396500+490513235
2966+485619224+479080359+478840952+487755699+497020795+492982984+481913221
2953+477488375+482997311+492429957+493088814+484336726+478057900+480273569
2939+489020455+493265701+486357277+478483754+478116996+485507303+493886763
2926+491520664+481355702+475852992+479067686+486683838+487886119+479910501
2912+473179408+473862412+480006326+484356958+481294561+475759568+474162604
2899+477643652+483285542+484189142+479136298+474759565+475023472+479009613
2885+481758256+479217227+474722835+473124537+475284178+478417144+478289659
2872+474987054+472354736+472289770+473984605+475011733+473804783+472110260
2858+471869608+472777877+473526024+472788371+470792588+469167833+468927047
2845+469699472+470251655+469854349+468915219+468687596+469627837+470521877
2831+470579995+470256324+470135331+470326314+470561008+470489550+469828869
2818+469062759+469069162+469673504+469977342+469660520+469113851+468847586
2804+469030254+469298386+469287269+469099933+468899256+468742912+468841361
2791+469168678+469235466+468929938+468608446+468459084+468619074+468967467
2777+469070274+469091217+469396479+469518583+469183218+468932606+468935185
2764+469004641+469177526+469352101+469357926+469197358+468973737+469036612
2750+469552956+470026922+470191492+470311907+470296611+469945727+469537037
2737+469461444+469679418+469798766+469864843+470260371+470773779+471048937
2723+471298615+471567948+471504139+471135824+470858221+470829940+470869426
2710+471001358+471466520+472029153+472295373+472369943+472492626+472550788
2696+472388886+472278298+472339662+472270072+472248016+472732700+473454477
2683+473928311+474247090+474464797+474442608+474490765+474871842+475315216
2669+475541683+475602735+475692468+475757878+475746984+476048911+476768287
2656+477341281+477529951+477633335+477866428+478457119+479305670+479685680
2642+479480156+479424484+479759316+480128831+480454992+480881335+481346053
2629+481772663+482077169+482183399+482398705+482853151+483160146+483382078
2615+483911316+484592763+485126893+485456922+485687436+486117158+486658047
2602+486876466+486921910+487281554+488047976+488860687+489283118+489357021
2588+489392905+489495978+489796082+490413497+491017127+491228165+491312962
2575+491702887+492382911+493123409+493691645+494012114+494319198+494775690
2561+495121149+495153876+495148896+495464473+496162150+496999363+497738927
2548+498304939+498536920+498437938+498398985+498714919+499320995+499912664
2534+500284225+500611942+501017920+501397751+501792523+502201569+502450003
2521+502575264+502837082+503230076+503488826+503572867+503723652+504149951
2507+504658513+504846872+504747134+504749491+504996146+505280197+505449035
2494+505619386+505968091+506252854+506171169+506135018+506471984+506753589
2480+506742517+506753322+506808861+506697784+506643313+506841010+507092378
2467+507201276+507192828+507139735+507023900+506928875+506988949+507156410
2453+507088732+506620412+506174548+506065784+506245517+506535926+506554558
2440+506148847+505769860+505816327+505974583+505829445+505492524+505163161
2426+504817969+504469086+504192461+503910322+503530402+503152260+502877991
2413+502695501+502567972+502358669+501942820+501412158+500971853+500740716
2399+500554625+500393256+500892658+502963189+507473988+515387530+527755489
2386+545051252+566065068+588048962+608770991+627635260+644846359+661508032
2372+679333567+697994536+714829761+728856580+740358868+747983957+751476432
2359+750668657+742920174+728157392+710376634+693817234+684571391+687638279
2345+697809155+699825571+691119905+680907764+672988975+669798515+673352354
2332+679405158+680273185+676339514+675356230+679300617+681206978+676079431
2318+666194518+656956368+654394039+658085146+659460223+652935676+640123811
2305+625397535+613243060+604776001+597739335+590316791+581655636+571426598
2291+560859126+551638941+543847414+536689133+530319952+525342256+521616554
2278+518463401+515378148+512441946+509970907+508015677+506363263+504797515
2264+503492916+502701549+502106989+501309352+500407975+499689043+499232685
2251+498820793+498407123+498312187+498518911+498676633+498657779+498614425
2237+498832532+499235709+499460441+499616518+499917555+500218148+500510114
2224+500898839+501371516+501907202+502427903+502889063+503380417+504000767
2210+504724590+505448324+506141821+506826069+507537486+508273582+509036580
2197+509877572+510644572+511298316+512190622+513294766+514190897+514893509
2183+515525421+515981334+516534273+517491500+518582082+519527836+520294881
2170+520827543+521131782+521391554+521917057+522733726+523509353+524148156
2156+524722662+525084884+525162834+525081105+524890611+524627859+524496328
2143+524603981+524646624+524308191+523570983+522545723+521538338+520679648
2129+519678221+518497818+517423867+516388912+514991958+513240295+511674101
2116+510471331+509138408+507410046+505598976+504005524+502602122+501129397
2102+499513001+497904075+496316360+494796055+493502218+492437694+491296420
2089+489796882+488111741+486536654+485225964+484190610+483179801+481980365
2075+480711251+479591500+478714757+478111082+477779719+477337412+476231979
2062+474881936+473988785+473313964+472583382+472042271+471889929+471956050
2048+471940176+471884326+472136272+472759379+473219339+473318677+473475821
2035+473893938+474605355+475541016+476483925+477354531+478155637+478700884
2021+479106861+479837221+480371706+479874128+478790394+477808399+477068969
2008+476492685+475709499+474382090+472752976+471230315+469867822+468761366
1994+467942918+466769763+464920985+462945079+460960279+458981482+457317552
1981+455960795+454689946+453350042+451991951+450817639+450065624+449655645
1967+448852093+447360425+445950575+445006777+444347519+443888048+443333019
1954+442449340+441518970+440821294+440390993+440298325+440418651+440110499
1940+439325846+438780466+438668100+438744804+438701494+438515135+438360081
1927+438457151+438996172+439480944+439384141+439012981+438885762+439194003
1913+439473963+439436967+439399527+439514294+439729245+440070212+440375118
1900+440621106+440951580+441052696+440752504+440538665+440462228+440370405
1886+440489263+440628443+440894174+441622310+442016771+441631515+441516391
1873+442374592+443330885+443106152+442701953+443730148+445307992+446175219
1859+446050758+445625660+445642601+446219597+447518903+449557063+451287426
1846+451672771+450971804+450239265+449789355+449555151+449838357+450372353
1832+449717097+447238588+445490082+445584528+445172281+443877199+443122872
1819+442977467+441991826+439882831+437763387+435548519+433359040+431749625
1805+431121583+431570604+430530047+426929963+424331261+423129246+421144936
1792+418522088+417018948+416830188+416968746+416209572+414604425+413095060
1778+411797621+410302751+407943367+405186231+405406695+407533610+407888273
1765+407096239+406389713+406017796+406261561+406107885+405905830+406949989
1751+407816549+406570513+405412743+405958123+406196151+404866207+403566722
1738+403947666+404718979+404399044+404591805+405510169+405828459+406179787
1724+406866036+407343916+407386871+406771456+406473710+407656959+408808060
1711+409397772+409512140+409163079+409426675+410703526+410649856+408693025
1697+408381138+410022524+412658267+415471475+417691724+418622582+417716091
1684+417219491+420649492+423834794+424842179+424593968+424849738+426151668
1670+427629685+429933798+432872000+434915407+436465904+439149403+442247240
1657+444072406+443096903+440461828+443149285+446550827+447949427+450464576
1643+454394067+457310971+458609521+458043732+457215768+460198749+464352928
1630+467121136+468947769+470688493+472337082+474877712+477905069+479258803
1616+479966084+483187582+486989010+489559921+491560328+493940701+496671423
1603+499568717+502453960+505200958+507781206+510395694+513519143+517117004
1589+520837681+524582459+528490695+532513654+536264213+539189654+540872794
1576+543433433+548732887+553396962+556721311+561204274+566907394+572165584
1562+576021705+577623161+581107544+591016691+600455028+609020936+617105007
1549+624336880+631141120+637592608+640586883+640730687+649744282+662300778
1535+671099067+678399774+686013701+693126405+699284415+704050051+707679750
1522+713009042+721541644+731319171+740942844+749261386+757361998+765359982
1508+769395302+769066429+775266372+783980353+790128625+793438077+798229682
1495+806450620+814011321+819126285+822920776+828467953+835183260+841220634
1481+846475666+851369988+855593135+857707687+858202509+861883700+868983819
1468+875029552+878920891+882752912+887033331+889266075+888836886+893006139
1454+902758409+910608320+916090576+920849809+926797983+933145731+938066555
1441+942306421+946162365+948159615+950809898+956557351+962103016+966630935
1427+971794367+976610606+980138121+981939808+982129235+985479774+992554992
1414+997313069+999297869+1001911867+1004432397+1004290016+1003489266+1004111350
1400+1003261332+1000667877+999747157+1000904615+1003577487+1005694352
1389+1004768919+1001637866+1000543193+1002495977+1005312120+1008409378
1377+1011115600+1011733238+1011833109+1013342297+1014272177+1014267997
1366+1013873848+1011324503+1008594092+1009660306+1012541992+1013539994
1354+1011886825+1009951204+1008713973+1007850436+1007882630+1008840079
1342+1008709793+1005787910+1002949356+1002698210+1003421855+1003824631
1331+1003878347+1004203663+1004252664+1003909740+1004377793+1005526892
1319+1007643401+1011281193+1014398284+1015979418+1017435958+1020875785
1308+1028723917+1038099735+1042809166+1043535568+1043827267+1044503333
1296+1046211997+1048852942+1050888612+1052056920+1052857937+1053779280
1285+1056467270+1059853205+1061284221+1062299121+1063843881+1063444840
1273+1061686641+1061327442+1061266968+1059961436+1058775518+1058097318
1261+1057602229+1057845282+1058501961+1058713977+1058621220+1058741546
1250+1059197504+1060425842+1062155050+1062791363+1062045307+1061685485
1238+1062457154+1063225354+1063652587+1064445600+1065711201+1066767988
1227+1067165251+1066974846+1065982268+1064926726+1065029443+1065335283
1215+1065002052+1065174048+1065549255+1065262091+1066002722+1068452373
1204+1070633448+1071668713+1072303781+1072356074+1071512725+1071125512
1192+1071673071+1071988960+1071654039+1071220314+1071507300+1072331617
1180+1072259404+1071124356+1070502272+1070957252+1072060728+1073403701
1169+1073741823+1072681656+1071054455+1069172017+1067531297+1066587366
1157+1065810450+1064817250+1063827873+1061980741+1058734520+1056638199
1146+1057379097+1057803840+1054897964+1050599847+1047304980+1044629084
1134+1041930333+1039047669+1036023690+1033440196+1031386473+1028532000
1123+1024126809+1019085570+1013789450+1008811443+1005200687+1001874693
1111+997230361+991922325+987763299+984660971+980032113+974043830+970833983
1097+971182866+971441304+969821395+967274007+964665256+962492986+960980418
1084+959780450+957992369+954633559+950404543+947400397+945918244+944526981
1070+943016460+942415186+942263378+940981413+938886159+937127337+935975747
1057+935256816+934120167+932365792+930602701+928482012+925838755+924181316
1043+924833904+926557153+927134593+925822569+923182246+920760520+919945274
1030+920626410+921642821+921879471+920993079+919876885+919879909+920394473
1016+920244800+920111667+920181035+920468821+921950173+924068816+925424151
1003+925648083+925032491+924378124+924729853+926428290+928106627+928045442
989+926580453+925179052+924199814+922962405+921633661+920775817+919280591
976+916463559+913806251+912234365+911182203+909830248+908068758+906774432
962+905836459+904232380+902663963+902359368+902837648+902791048+901952768
949+901807007+903232687+904820847+905579799+906599501+909113184+912492537
935+915175458+917382857+920158179+923196742+926092747+929015164+931861632
922+934489949+936664887+937663868+937923729+939114538+941003201+942094672
908+942497715+942557656+941287075+938658847+936700549+936624334+937632830
895+938131387+936884195+934554870+932581631+931372147+931127938+931469884
881+931738194+932362768+933436541+934264594+934770354+935771825+937959213
868+941130820+944421685+946590842+948837905+954212463+961604993+966987733
854+969119716+969445388+969224034+969974804+973634918+978466631+981123139
841+982764392+985640208+988449414+989862021+990875231+991430705+991305843
827+992188411+993692263+994826955+998149303+1003717379+1007448283+1009671422
814+1012896211+1015516968+1016656018+1017195928+1016888221+1017603951
802+1020676309+1023185812+1024458705+1027015698+1031011177+1034374611
791+1035914125+1036608601+1037512868+1040069861+1044943639+1048667429
779+1050088040+1052306199+1054792134+1055373665+1056366954+1059536693
768+1061337847+1060275101+1059429974+1059189144+1056981390+1053825703
756+1053453164+1054834377+1054915395+1053340664+1050587486+1049485076
745+1051205212+1052443600+1052800309+1054538943+1057401153+1059580270
733+1059047830+1055308389+1051099916+1049130323+1049079899+1048731816
721+1046947648+1044626505+1042433514+1040993516+1039972657+1038305347
710+1037759923+1039326739+1040403003+1039890217+1040711243+1043276240
698+1043262456+1041457744+1041663268+1041785284+1039299170+1036548749
687+1037714745+1042547792+1045406445+1044196160+1043630993+1045170151
675+1043484521+1037542839+1031263657+1026495798+1026795501+1031095663
664+1034417922+1037304588+1038350792+1036102218+1033775739+1033906914
652+1037512690+1042998325+1045616949+1045852798+1046803222+1045607255
640+1039096048+1028337238+1019472516+1022605081+1035113108+1043904372
629+1045860535+1038378361+1026124948+1022887709+1023363055+1021160992
617+1020128217+1015950337+1012966467+1015499448+1012098484+1005256270
606+1009218755+1024158558+1033525927+1026790965
##END=
