##TITLE=Sample description
##JCAMP-DX=4.24
##DATA TYPE=INFRARED SPECTRUM
##DATE=24/8/2023
##SAMPLING PROCEDURE=Instrument type and / or accessory
##ORIGIN=Default
##XUNITS=1/CM
##YUNITS=ABSORBANCE
##RESOLUTION=4
##FIRSTX=4397.6552
##LASTX=599.8556
##DELTAX=-1.9287962
##MAXY=1.5024779
##MINY=0.43134537
##XFACTOR=1
##YFACTOR=1.3992916e-009
##NPOINTS=1970
##FIRSTY=0.62064725
##XYDATA=(X++(Y..Y))
4398+443543907+444206706+444559786+444076233+444014767+445123037+445698599
4384+444233030+442104323+441157620+441439693+442346312+443574577+444871847
4371+445443149+444940171+444216673+443838503+444188006+445118437+445584142
4357+445952728+446533273+445845002+444184300+443260131+442829567+442463708
4344+442830760+443970424+445014246+444990052+444038961+443064060+442486624
4330+442676561+443349753+443861803+444626535+445510664+445289972+443848471
4317+442568537+442411570+442717369+442474059+441773136+441154383+440794657
4303+440717430+440869584+441419715+442237521+442235732+441417883+441046699
4290+441236253+441296654+441304577+441995106+442918125+442533736+441006786
4276+440094075+440304373+440243418+439570098+439785976+440883215+441317654
4263+440874312+440444345+440324905+440587085+441364425+441799717+440885302
4249+439289687+438782791+439900646+441284855+441440119+440072564+438382045
4236+437908928+438561418+439127012+439056770+438617730+438465065+438910878
4222+439168415+439069720+439633652+440396381+440245335+439744871+439628966
4209+439678463+439360908+438668633+438394313+438831521+439401460+439726512
4195+440087345+440600460+440607190+440129388+439853108+439567926+439072105
4182+438806006+438801278+438486789+437892060+437921025+438715276+439504244
4168+439773198+439207391+437746167+436440846+436684327+438057206+438815973
4155+438192960+437081069+436955537+437934400+438617943+438348692+437684914
4141+436910300+436627077+437454085+438242840+438352270+438733550+438926383
4128+437889802+436712739+436488000+436216023+435652176+435958017+436715507
4114+436691611+436021784+435655839+435944855+436491706+437107564+437357945
4101+436842359+436715379+437418943+437317862+436215299+435734898+436166271
4087+436438716+436311055+436466830+436716402+436184885+435193882+434948315
4074+435374320+435492993+435587813+435907541+435604468+434989505+434958751
4060+435406523+436246607+437105562+437032083+435793255+434246370+433660160
4047+433887198+434025295+434616873+435463645+435352170+434938645+435305059
4033+435815234+435487286+434464208+433608022+433656837+434462206+434882035
4020+434294887+433661864+433919742+434399759+434530360+434735972+434849832
4006+434389834+433635880+433156501+433024964+433047369+433335917+433755576
3993+433785223+433498464+433664845+434282449+434567887+434572573+434472769
3979+434022484+433590472+433501446+433473886+433398193+433558738+433950581
3966+434128847+433761411+433056783+432756053+432893512+432852577+432689944
3952+432586477+432139557+431786519+432770621+433735172+432802739+431898803
3939+432476536+433165404+432820672+431381513+430488141+431427688+432217168
3925+431163548+430261018+431037719+431866174+431556243+431086875+431649572
3912+432723297+433584594+433785095+432119409+428898405+426898551+426914524
3898+428687169+431325584+432317823+430242318+428827695+430339949+430612394
3885+429127189+428896488+428062239+428116081+430335433+430624747+428956548
3871+427423167+426442813+427590911+428325314+427323023+427670566+429591361
3858+431636026+431534178+425346640+421679865+426005690+430608774+432255249
3844+431164315+429002084+426719519+424252895+423856877+425910998+427704004
3831+428957571+430540535+431594878+432042565+430412021+425714203+424988660
3817+426752957+427421378+430261699+433718857+434037861+430423650+428285316
3804+428879875+427117112+426219097+428161318+429975239+432308409+434469277
3790+435057404+434672333+433672896+432835794+433245527+433306525+432750942
3777+433627872+435090586+435188643+433150580+431646122+432516321+433314491
3763+433770399+433609172+431779661+431074735+432482074+432506396+428358369
3750+425634506+429021124+431357361+428852017+428768827+431511347+431685523
3736+427250354+424155136+427017693+431764454+434664112+434382976+432877069
3723+433074290+434799057+437255884+439794666+440774040+437943388+434351370
3709+437431083+444348892+450894538+456625359+463599651+473143693+483600446
3696+493661948+501945267+506339459+506139810+505896500+508123776+509752999
3682+509013186+505787880+500088537+488993819+478279998+475248717+470197350
3669+464069872+463977523+464496176+462359332+459630443+457110957+452082123
3655+447153262+446363016+443991168+435459768+431381556+434202922+436850325
3642+437483135+437046992+436039461+434170123+432211886+430719865+425955980
3628+418443568+417683182+420057202+419780496+415032840+409198127+407541301
3615+407157977+405499618+403790398+401237687+398238098+396902193+395527824
3601+392387752+389214881+387133243+384831339+382914803+382528923+380736130
3588+375357538+371924021+372452002+372916855+371807733+369950023+368053337
3574+366466369+365676038+364826454+361112398+355402726+353603288+354559191
3561+354906990+354660123+354409316+353302622+351047978+349566500+349425102
3547+348840297+347439262+346207633+345760542+345993863+345703399+344603882
3534+343690681+342536982+340642064+339405046+339383322+338891654+337412561
3520+336343394+336050566+335807533+335333819+334525491+333008274+331130140
3507+329933908+329349103+328810111+328546844+328447041+327913373+327158035
3493+326802994+326792942+326521497+325620095+324689387+323879142+322626129
3480+321792328+322076701+322329957+321557303+320261395+319363721+319039584
3466+318816976+317922070+316486106+315508713+315162575+315276521+315664466
3453+315709661+315175589+314075241+312688902+311965851+312028531+312219980
3439+312179450+311709272+311070200+310437240+309804003+309780788+310339439
3426+310613503+310419925+310082498+309475053+308633606+308358796+308800200
3412+309211744+309359873+309348692+309038250+308532887+308305913+308482411
3399+308509906+308259824+308410274+308942749+309438847+310191758+310945925
3385+311123807+311191088+311491477+311796722+312039457+312355181+313103172
3372+314100181+314880801+315856789+317289196+318610554+319559685+320275601
3358+320661587+321087614+322461579+324400350+325602205+326034834+326638786
3345+327786010+329077339+330165781+330992958+331617271+332323305+333026974
3331+333424185+333668134+333894086+334359152+335263450+335785021+335270628
3318+334580781+334492521+334562400+334534074+334862491+335701170+336425797
3304+336463090+336290383+336576375+337076839+337256766+337212551+337520607
3291+338446906+339612852+340427187+340980279+341755872+342549356+343022345
3277+343324928+343760965+344508275+345368826+346248355+347349490+348372419
3264+348689975+348343347+348216133+349088868+350440960+351227245+351585778
3250+352013423+352254156+352163000+352180273+352610858+353141011+353643946
3237+354288428+354601298+354357860+354134336+354221403+354598763+355155177
3223+355685650+356210053+356625474+356465610+355814419+355425131+355669698
3210+356263533+356431363+356127608+356400395+357268209+358071150+358637212
3196+358721553+358575447+358789153+359483388+360281600+360461058+360012604
3183+359986833+360791137+361463221+361541300+361792661+362558926+363173164
3169+363126010+363136531+363945648+364912243+365310348+365248626+365117600
3156+365341955+365916579+366366524+366566300+366742564+366953373+367169336
3142+367346707+367405107+367474922+367872175+368567943+369027685+368863987
3129+368425927+368369913+368695519+368940661+368952290+368928436+369162928
3115+369604056+370138213+370702998+370884543+370653075+370421393+370398051
3102+370547351+370799649+371251212+371648934+371731230+371751335+371798532
3088+372044909+372697995+373249277+373437041+373937207+374740275+374843869
3075+374369730+374369389+374996747+375626534+375660611+375132331+374769794
3061+374906954+375168879+375184001+374968804+374703557+374482397+374537857
3047+374841356+375008717+374959220+374684303+374351413+374335099+374654401
3034+374823508+374326835+373802858+373932138+374230866+374667563+375375769
3020+375868140+376127083+376282048+376049344+375675179+375804245+376242008
3007+376600711+377127073+377538043+377142323+376385727+376482634+378203525
2993+380984637+382714941+382359007+381509849+381561860+382576631+384563919
2980+386822545+387969749+387955181+387705950+387344307+386782249+386408850
2966+386352921+386509037+386726917+386600789+385949364+385404770+385811650
2953+386847336+387513500+387800684+388094939+388229799+388071000+387832418
2939+387842982+388150868+388403763+388438521+388583093+388771880+388408619
2926+387851374+387794763+387832376+387573092+387215624+387025218+387161569
2912+387446113+387692532+387924000+388190951+388528825+388793732+388800760
2899+388790580+389172839+389727187+389918657+389771402+389636925+389628534
2885+389823455+390377377+390876009+390862890+390813435+391021050+391184449
2872+391195226+390844829+390228247+389941063+389995331+390220793+390739062
2858+391133845+390970658+390641474+390507466+390316805+389999079+389977483
2845+390329584+390836054+391419410+391946412+392523123+393197210+393706150
2831+394128322+394599352+395116556+395734160+396375532+396985086+397492408
2818+397822188+398175141+398640676+398945495+399088022+399314677+399583034
2804+399858504+400215333+400752260+401486322+402034579+402204197+402320187
2791+402601919+402940474+403213218+403603827+404258361+404907018+405351681
2777+405724611+406079609+406309160+406430176+406659004+407076192+407498705
2764+407927010+408504403+409112039+409603942+410043408+410474482+410904747
2750+411360911+411747387+412014764+412171987+412286997+412656052+413354759
2737+414152886+414878514+415420168+415817294+416241638+416566775+416562345
2723+416716757+417517653+418468658+418987736+419155651+419414466+419960167
2710+420524653+420928679+421335133+421805865+422194002+422437312+422571363
2696+422799381+423225600+423634439+424012055+424339493+424418722+424404026
2683+424508856+424585785+424547491+424672979+425144776+425641491+425844420
2669+425968588+426256923+426655880+427033879+427156812+427095942+427225307
2656+427576045+427949316+428160850+428124089+428127198+428439429+428746080
2642+428849632+429004469+429276234+429610316+429926722+430207985+430566220
2629+430910739+431169341+431332059+431327416+431369118+431775614+432395433
2615+432856495+433249105+433751997+434123395+434307879+434601112+434970976
2602+435154097+435054124+434756120+434636978+434853367+435110010+435326910
2588+435529498+435678671+435802243+435811571+435727273+435711811+435777026
2575+435862985+435896167+435821624+435664018+435464624+435284144+435253986
2561+435404052+435525750+435522640+435488989+435431527+435453336+435758411
2548+436241751+436437694+436181179+435992946+436103484+436076052+435825756
2534+435715304+435895060+436231869+436464828+436580264+436835799+436992596
2521+436745538+436609528+436880355+437124730+437225981+437341290+437349724
2507+437273178+437390872+437647301+437690068+437512271+437479515+437627707
2494+437574206+437257545+437029570+437024288+437031487+437002180+437089460
2480+437243403+437250985+436969594+436613915+436594449+436780041+436702388
2467+436418100+436363960+436485956+436309692+435792147+435319797+435188856
2453+435354129+435439279+435211219+434899712+434751733+434664410+434533341
2440+434452281+434417565+434323086+434159814+433971965+433786543+433635795
2426+433547322+433471799+433362923+433377065+433587448+433687933+433544766
2413+433418426+433357385+433209448+433030331+432851256+432588096+432379374
2399+432354881+432371238+432344616+432305981+432187606+431911283+431544061
2386+431099313+430396516+429280579+427635126+425386127+422612468+419530243
2372+416517832+413840101+411362445+408735531+406093964+404267605+403601143
2359+403799727+404880778+406924293+410075184+414129160+417205081+417300284
2345+414763930+412326697+411347025+411141625+411503864+412299350+413025915
2332+413550404+414225299+415195984+416177914+417044962+418119538+419601293
2318+421275243+422906468+424283266+425268561+426123681+427212911+428472101
2305+429463274+429998113+430451423+431096672+431718067+432072042+432262192
2291+432582772+433083874+433589748+433946961+434092640+434200707+434469064
2278+434742021+434853879+434960625+435143193+435314472+435474975+435595225
2264+435663847+435888926+436303303+436569700+436689396+437039197+437550054
2251+437824033+437847291+437896192+438067897+438342942+438591363+438680347
2237+438954198+439654098+440251384+440356469+440399874+440798235+441376778
2224+441849554+442107262+442266913+442555247+442899468+443170295+443467447
2210+443799229+444138083+444581979+445076863+445364771+445381597+445460996
2197+445911665+446639508+447385923+447965957+448314565+448589269+449011057
2183+449548111+450035882+450471770+450861781+451136272+451381882+451761884
2170+452356826+453068312+453695032+454307226+454930963+455290689+455469636
2156+455850447+456446369+456956886+457289095+457713737+458285763+458625213
2143+458665253+458699032+458718456+458670493+458659119+458599357+458383351
2129+458090161+457825723+457488275+456988748+456499146+455989950+455311263
2116+454704308+454218966+453363718+452132940+451124984+450408301+449563489
2102+448489253+447331528+446127245+444986942+444072101+443261962+442339625
2089+441314672+440336576+439479368+438756637+437975208+436898757+435824520
2075+435024519+434296080+433599545+433006647+432229776+431123507+430179999
2062+429668077+429209656+428523600+427764789+427201709+426676837+425937621
2048+425155510+424498547+423896662+423219168+422492176+421880195+421377474
2035+420890257+420385321+419859086+419373275+418946759+418489359+418026465
2021+417652768+417191961+416477068+415855971+415654363+415566401+415201266
2008+414627834+414108117+413629462+413049258+412557825+412375172+412261652
1994+411756418+410805285+410053418+409826124+409728238+409570929+409343550
1981+408977691+408574346+408258836+408015781+407793088+407439197+406755527
1967+405971372+405547027+405371616+405173628+405034509+404855561+404389601
1954+403865922+403590664+403329592+402793773+401999905+400945647+400194419
1940+400537660+401234578+401383793+401137288+400804398+400463414+400081879
1927+399568423+398710151+397757868+397393073+397196193+396888775+397078244
1913+397320105+396966173+396427670+396362115+396704333+396948879+396910159
1900+396784031+396563979+396153222+395926780+395768450+395114341+394767778
1886+395280850+395797969+396103257+396339794+396456423+396556695+396635413
1873+396365693+394985232+392823853+392527681+394160099+395371112+395732201
1859+395962561+396205275+396306441+396343926+396368078+396136099+395449191
1846+394140675+392995601+393749258+395308708+396079403+396259287+396285228
1832+395420864+393435451+392554389+393232437+393918152+394893479+396010269
1819+396412208+396284078+396107091+395593464+394699964+394496397+395186073
1805+395704385+395339377+394226081+393525031+393787978+393841521+392649080
1792+391604449+393145199+395448594+396320839+395979642+395349345+395010875
1778+395400333+395563221+393963900+391237481+391350617+394132539+396529092
1765+397650994+397323215+396703268+397146398+397924803+398960532+399483742
1751+397634679+394838488+394914437+396746376+397879225+397868874+397640898
1738+398109117+397676637+395189183+395299081+398443881+401447304+403267571
1724+403705376+403559271+402777969+399438505+395745235+397642304+401713531
1711+404294526+404664389+402995935+401439509+401625015+400488461+397289607
1697+397171785+400409658+404309008+406481590+406386728+405068458+401930431
1684+398069630+400201277+404557345+407029251+407028867+406098181+405499532
1670+404469256+405348827+408455204+409939004+409479475+410251150+412081428
1657+412579336+409762613+404618215+405840005+408079335+408481401+411949890
1643+417500316+421228259+422493114+421458790+421479620+427554321+434622069
1630+439511060+442948581+446181513+449901277+455180705+460517511+463984594
1616+468150299+475262433+481921854+486917165+491472413+496479012+501421844
1603+506115317+510926783+515677250+519981521+524096281+528406388+532894419
1589+537477653+541900172+546143913+550521152+554853707+558057630+559494105
1576+562638436+569837637+576115267+580833957+587341650+595322706+602524803
1562+607549420+608905899+611683519+624034657+637483459+649403821+659832247
1549+670025116+678958668+685163501+688876237+694946167+713502181+732039835
1535+744365586+756564656+771229710+784523164+795240478+804124448+812355672
1522+822828483+835593146+848042852+861876683+875880046+886424249+892714701
1508+896006543+904355418+920536901+933695239+942168239+947012291+953045801
1495+962612589+970034824+971763212+971465208+978124969+988190816+994280468
1481+995942576+997103155+997935657+994565097+987888979+987011069+993421386
1468+997965900+996016438+992585391+993550794+993645613+986906964+982182949
1454+987883697+993773061+997043776+998729652+999598276+999737821+999550227
1441+999869699+999387850+995894613+994002315+996382511+998682370+1000568279
1427+1002265230+1001594935+1000743520+1001654996+1000246421+998271827
1416+1001087528+1004358838+1004833106+1003302450+1000791569+997501941+995658970
1402+996543440+996071984+992237635+987797226+985568332+986937207+988160743
1389+984837124+979364181+978659979+982053882+984956309+985921882+985217765
1375+983180724+982198113+983169990+983308343+983120664+983919770+983366700
1362+982239517+983156615+984045855+983590160+982520482+980838695+978758291
1348+977898868+979135865+980854200+979927560+975474202+971672652+971514790
1335+972715324+974275542+976580342+978181367+978492405+979192177+980599985
1321+981770190+983580107+987239130+990954890+992635570+993685143+996367346
1308+1000430267+1004571138+1008127333+1010996535+1013289834+1015050680
1296+1016820471+1019515710+1023032971+1026449024+1028871135+1030392760
1285+1032440705+1034985238+1036238677+1036096661+1035747286+1035549809
1273+1035798146+1036734924+1037941166+1039167513+1039398044+1036967244
1261+1033228907+1032162211+1034303527+1035373972+1034044541+1033940777
1250+1036012320+1037929153+1039212069+1040560753+1040493280+1038161814
1238+1036274543+1036326340+1036814834+1037106193+1037939973+1039341732
1227+1040584266+1040878095+1040523779+1040942416+1041559721+1041491141
1215+1042356528+1045095385+1047886976+1048102087+1046779046+1047197171
1204+1048863624+1049299469+1048903835+1049376398+1049994215+1049554110
1192+1049212317+1049666990+1049515944+1048828951+1049053177+1049471729
1180+1049319149+1049399826+1049337465+1047864059+1046099209+1045896877
1169+1045513254+1044053309+1044196944+1045312626+1044276173+1042501952
1157+1042331396+1041396578+1038218297+1035226674+1033434392+1032541744
1146+1032197225+1030630959+1027898065+1025964193+1024772519+1023412590
1134+1021308247+1018687212+1016685697+1014954753+1012706606+1010476690
1123+1008372262+1005352099+1001306558+997439751+994841036+993962530+993698433
1109+992833557+990864841+987813839+985103181+982594258+980134918+979964278
1096+981842008+983613929+984791631+985667070+987067296+988829249+989276851
1082+988513952+988008674+989220965+992776478+996050856+996261963+995148240
1069+995892483+998120099+999589416+1000413313+1002561275+1006315372+1008849596
1055+1008334181+1006064309+1003892153+1003323493+1004196461+1005176091
1043+1006578872+1008870042+1010571083+1010389878+1008894918+1007680072
1032+1007353955+1007101018+1006966840+1007209809+1007813654+1009455827
1020+1011466883+1012289077+1011379987+1009452845+1008464270+1009333575
1009+1010504633+1010708243+1010473963+1009893802+1008702213+1007345776
997+1006522049+1006578872+1006787083+1006660487+1006142516+1004984067
986+1004129330+1004431167+1005264862+1005955177+1005870922+1004442157
974+1002356386+1000383581+998671977+997848505+998188509+998458228+996850048
961+994538261+994336610+995024285+994259681+992969184+992361164+991550983
947+989966400+989166697+990021094+991240541+990912379+988777538+987251312
934+987457052+988209132+989075286+989912814+990701186+992027465+993533755
920+994127548+993586064+992942178+993397021+994712991+995819814+996539861
907+997475447+998606293+998799510+997470505+995132054+992781931+992023461
893+992691200+992584625+992270179+993710700+995339924+995513972+995177206
880+994887210+995108029+995340776+993242993+990367998+991113093+994235828
866+996064146+997109204+997892550+998401746+1000632429+1005125913+1009908625
853+1012761555+1014036548+1015749686+1017217299+1016963510+1015613207
841+1014867090+1016546918+1020366102+1023992837+1025660567+1024523331
829+1021243501+1019060270+1020950098+1026054412+1030868391+1032871609
818+1033348773+1035120268+1037437933+1039188726+1041786249+1044628785
806+1045049892+1042126252+1038423441+1038087015+1041689896+1044794144
795+1045546991+1048905794+1053562592+1050908161+1044732549+1043484904
783+1043902518+1042411136+1040278339+1037026197+1033473154+1031899136
772+1032804052+1034893826+1034973481+1032283269+1031822974+1036092231
760+1038950357+1037018019+1035607399+1035878653+1035349692+1035624438
748+1035842787+1034369125+1033494112+1032380474+1030300923+1030688634
737+1033063548+1033259917+1031036390+1029426932+1028007623+1025053996
725+1022354072+1021066897+1021493030+1023954329+1026945442+1028900782
714+1028869261+1028598860+1029223322+1027086861+1023694151+1024379952
702+1026108510+1025296113+1023404411+1020226983+1019347284+1024645241
691+1028493988+1026048108+1025020430+1027236289+1027132695+1026053986
679+1027719331+1029152867+1028548255+1028313294+1026137475+1020873765
667+1022554445+1031539453+1036180661+1036072636+1034372788+1031150208
656+1026834095+1024259745+1027256054+1037443556+1049031539+1056202455
644+1064426523+1073741823+1071692430+1060432353+1046219501+1028040081
633+1019125102+1023071819+1023421961+1019635917+1018217886+1020452914
621+1024499051+1023641332+1014382600+1001087698+991806305+994719807+1011745037
608+1027138488+1030080700+1036021521+1051984059+1067168958
##END=
