##TITLE=Sample description
##JCAMP-DX=4.24
##DATA TYPE=INFRARED SPECTRUM
##DATE=24/8/2023
##SAMPLING PROCEDURE=Instrument type and / or accessory
##ORIGIN=Default
##XUNITS=1/CM
##YUNITS=ABSORBANCE
##RESOLUTION=4
##FIRSTX=4397.6552
##LASTX=599.8556
##DELTAX=-1.9287962
##MAXY=1.2852858
##MINY=0.34257543
##XFACTOR=1
##YFACTOR=1.1970157e-009
##NPOINTS=1970
##FIRSTY=0.48726189
##XYDATA=(X++(Y..Y))
4398+407063907+406830297+406621409+406270035+405374160+404442681+404443553
4384+404834912+404639045+404379393+404473902+404666457+404849277+404807301
4371+404526460+404319689+404594255+405197987+405453308+405141271+404224781
4357+403148924+402748303+402656234+402272842+402148879+402368322+402266319
4344+401919302+401592676+401219442+400985931+401006596+400975499+400926452
4330+401325579+401870478+401924132+401532798+400861619+400263191+400293341
4317+400705141+400773658+400563127+400426989+400020169+399624130+400145078
4303+400931954+400957847+400573833+400294810+400113484+399695435+399202347
4290+399247684+399029336+397619558+396632907+398075600+400730934+401615183
4276+400326828+398851819+398217887+398183653+398434617+398589926+398529674
4263+398513516+398399860+397745861+396861862+396877945+398028768+398914784
4249+398442335+397246623+396479466+396330083+396448519+396668834+396928063
4236+397241270+397396828+396923706+396125577+396049068+396608085+396681830
4222+396334016+396215431+395881012+395207643+395198605+396107477+396881630
4209+396825935+396656435+396869107+396591877+395633908+394942762+394998133
4195+395365591+395091771+394257218+394005756+394435855+394829455+395102900
4182+395265853+394908478+394246487+394012578+394248753+394371272+393956584
4168+393427146+393489886+393783848+393608098+393254334+393303307+393880100
4155+394550756+394372019+393539780+393444449+393993133+393938509+393069722
4141+392208055+392209350+392934878+393231703+392506174+391911654+392405490
4128+392650279+391606912+390561704+390715120+391437562+391680932+391614406
4114+391671421+391540935+390942556+390293461+390144352+390149431+389910319
4101+389689580+389693788+389949855+390022928+389657562+389251688+388794601
4087+388250075+387942569+387870841+387843230+387817984+388050872+388493918
4074+388302682+387387138+386856280+387017465+387178674+386895767+386098335
4060+385198277+384911063+385102348+384960484+384388621+383934347+383798806
4047+383760241+383769776+384051289+384506310+384708948+384639709+384555332
4033+384117938+383085950+382182755+382040517+382647038+383355960+383326059
4020+382869369+382592687+382193311+381681251+381567371+381728854+381660611
4006+381177431+380478692+380138671+380489398+381089519+381373173+381238753
3993+381043734+380941456+380725000+380660591+381077494+381330001+380590206
3979+379438338+378873645+378908825+379255991+379413067+379100309+378731955
3966+378234584+377267428+376474951+376952329+378240510+378838266+378581203
3952+377902530+376676319+375871094+376523724+377061827+376574913+377019079
3939+378609063+379286142+378081591+375913245+374992522+375677494+375639052
3925+374475682+374467291+375242042+374604076+373559789+374110390+375458872
3912+376369735+376760023+376198243+373531207+369942925+368640180+369330230
3898+371110404+373675486+375165010+373966609+372620020+373498940+373657261
3885+372479525+372088216+371534876+372422585+374626185+374360084+372334349
3871+371059514+370797670+371900865+372373239+372159272+373388148+374738322
3858+374977260+373001370+366613175+364544244+369645055+374335037+376045424
3844+375081754+372811877+369814879+367307309+368529736+371496211+372999876
3831+373780129+374730156+375523530+376340257+375324726+371464915+370936621
3817+372709799+373600595+376022494+378772787+379132650+377070641+376543468
3804+377575730+375814976+374188194+375335630+377034341+379090400+380982586
3790+382005412+381941526+380611718+379428429+379805970+380265921+380544147
3777+382111026+383749361+383982398+382775632+381700571+381641764+382229487
3763+383689383+384001594+381916206+380909662+381859191+381445051+378011630
3750+376887173+380381618+382589973+382225503+384538427+388378967+389552596
3736+386795805+385336257+389306537+395009934+399527354+402596182+405760639
3723+410595448+417304493+426056277+436390700+447375687+459153898+473589934
3709+490775266+507786816+523071049+536952425+550256186+562644777+573610842
3696+583122164+589921387+591577846+586309502+580327256+579889813+580644695
3682+579038279+574711945+568545061+559184118+551428943+550638657+548399105
3669+545002482+545912673+546757932+545152263+542730016+540163515+536037204
3655+532975299+533183837+530859038+521677753+516974425+520838518+525426472
3642+527138651+526426443+525799830+526394126+527399425+527579332+523897785
3628+518589257+520564400+525250598+526872003+524026902+520516647+521016433
3615+522201340+521750900+521304793+520589048+520727726+522995810+524439747
3601+523316435+521532851+520783047+520241832+519640316+520058141+520129745
3588+517885961+516866322+519231903+522196261+524145213+524783527+524434767
3574+524208800+524731044+524849853+521766984+517578182+519104479+523153508
3561+525116353+526009664+527139647+527880488+528505208+529391199+529773421
3547+529661035+530153900+531964373+534618513+536766542+537816556+538799099
3534+540020455+540755470+541432823+542432395+542809687+542555686+542926256
3520+544372782+546327610+547851965+548277209+548018178+547982177+548855072
3507+550384008+551466986+552044800+552964651+554051264+554607866+554777963
3493+555552664+557215149+558478283+558479129+558653907+559619968+559990538
3480+560276158+561314520+561504187+560482556+560111787+560932747+561887952
3466+562519146+562675351+562139762+561924302+562884138+564401672+565806271
3453+566641871+566494131+565441328+564215291+563853087+564324988+565052534
3439+565506559+564852709+564212802+565397460+566964239+566988390+566183812
3426+565821160+566240179+567019063+567018167+566026462+565812794+567119648
3412+568468876+568984696+569701785+571418097+572655188+572245132+571651384
3399+571517686+571010679+570841777+571081437+570532205+570340148+571099811
3385+571025568+570689157+572151618+574617485+575867772+575310971+574041713
3372+573350119+573706995+574705521+575384617+575311121+575448304+576720600
3358+578590827+580093770+581039863+580993355+579576656+578436663+579035789
3345+580218605+580758276+581226941+582022207+582372361+582164021+581831544
3331+580993007+580111397+580193309+580500043+580669144+581508926+582262315
3318+582013493+582188221+583900699+585295141+584485285+582590161+581690975
3304+581871230+581993326+582186030+582865026+583430989+583749723+584237110
3291+584677342+584724597+585269298+586539652+586934172+586477010+586682462
3277+587392679+587731779+588362673+590020278+591281868+591141000+591277835
3264+592576622+593494680+593523063+593358393+593052158+593372983+595074307
3250+597175680+598926748+600600985+601717125+601703532+601457547+601726288
3237+601758903+601047142+600511106+600563340+600602130+601010742+602035610
3223+602516176+602302259+602412902+602611084+602344783+602198488+602043129
3210+601268976+600691361+600638729+599622724+597335768+595835862+596077963
3196+596744759+596637303+595446919+593982616+593400370+593361530+593237493
3183+593154436+593041353+592778040+592374755+591856346+591304027+590524596
3169+589362594+587880714+586355462+585333732+584436387+583078594+582067818
3156+581885720+581864408+581362979+580313264+579220576+578481727+578083721
3142+577673365+576882183+575694438+574115159+572603153+571804203+571181872
3129+570030726+568630658+567173426+565944949+565526825+565056517+563493671
3115+562009102+561708991+561619561+560726001+559424177+558446713+557830956
3102+557509284+557598665+557451821+556611093+555698960+554766859+553792632
3088+553496953+553553321+553096358+552241239+551386817+550519947+549568924
3075+549111812+549367158+549209558+548079176+546792440+545896988+545012590
3061+543773656+542532332+541595352+540880354+540369315+539649487+538326650
3047+537123469+536650173+536154321+535075874+533952712+532852058+531349363
3034+529855681+528661015+527363025+525963803+524551784+522987593+521585185
3020+520667773+519879977+518760051+517197106+515353668+513978248+513506048
3007+513016221+511795661+510316470+509017036+507809323+506664351+505868737
2993+505616727+505575547+505099563+504043076+502823910+501812039+501405070
2980+501331872+500605521+499393875+498405258+497435313+496441517+495615329
2966+494531753+493114406+491979891+491169339+490176738+488947862+487820717
2953+486755466+485507420+484481556+483987297+483571265+483055943+482519509
2939+481601201+480240271+478978631+477952717+477015538+476323744+475588979
2926+474324500+472864778+471577743+470388903+469548921+469000237+467939717
2912+466476011+465584244+465139779+464513316+464017115+463935154+463803099
2899+463220555+462200119+461118535+460449199+460200078+459967389+459439270
2885+458578325+457442715+456284946+455547840+455123542+454441658+453522205
2872+452731769+451983857+451199247+450451585+449616733+448785366+448085655
2858+447425979+446786968+446000815+444867594+443441683+442150764+441481229
2845+441166329+440767675+440250162+439628928+439108975+438775153+438248927
2831+437466906+436838451+436319992+435608182+434969768+434730108+434457483
2818+433737158+433118264+432948565+432749138+432320409+431816988+431297433
2804+430704482+429985003+429323335+428991456+428835799+428375250+427728471
2791+427365321+427186958+426910101+426500592+425959228+425306971+424842340
2777+424762968+424650582+424255414+423849789+423392925+422771989+422234360
2764+421841880+421623582+421673077+421701610+421440090+420979541+420645421
2750+420644973+420636608+420288893+419752857+419116734+418448195+418117012
2737+418152317+418128515+417886215+417500458+416974605+416422460+416096979
2723+415969182+415857269+415802670+415644249+415192191+414798267+414710978
2710+414700372+414653913+414561669+414373173+414247766+414196054+414156194
2696+414271542+414260837+413760428+413205818+413112081+413134588+412860420
2683+412580152+412429449+412252854+412263908+412439458+412308798+411983466
2669+411955731+412033584+411778139+411344530+411163776+411287640+411399652
2656+411389270+411370423+411316670+411258684+411348712+411519607+411645512
2642+411732926+411676758+411482535+411429429+411653902+412044962+412409656
2629+412664230+412860893+412925924+412900977+413175145+413733066+414059269
2615+414125720+414337869+414824335+415388804+415843177+416289509+416770822
2602+417032790+417149209+417449245+417850861+418249814+418821752+419505578
2588+420087575+420520139+420732512+420725441+420768015+421095164+421549338
2575+421744283+421726009+421952972+422442948+422708800+422561857+422308553
2561+422097724+421898497+421871956+422031497+422204682+422251041+422142539
2548+422062021+422040908+421893368+421634885+421500341+421565522+421736764
2534+422000874+422247555+422278428+422096778+421925585+421930265+421972740
2521+421916074+421872404+421961885+422165544+422358696+422389021+422296254
2507+422298146+422508677+422771740+422796239+422750528+422944975+423073295
2494+422981325+422931680+422862715+422689331+422679621+422906733+423077876
2480+423076781+422959266+422761582+422630275+422629677+422646956+422477356
2467+421981952+421479427+421355887+421353647+421133605+420857695+420716577
2453+420547027+420123775+419654214+419361175+418960280+418255839+417570743
2440+417260723+417184762+417103971+417023279+416851389+416501882+416004785
2426+415446764+414976133+414628792+414230213+413647270+413092063+412706605
2413+412381000+412072399+411788471+411536512+411078354+410233269+409431032
2399+409019481+408789506+408544468+408153333+407450685+406659527+406049844
2386+405417033+404403120+402966179+401382369+399553970+397124925+394386584
2372+391801807+389425794+387388557+385712728+384068069+382475147+381306822
2359+380828846+381285834+382498800+384278152+386704383+388734225+388854902
2345+386930872+384710566+383649199+383537361+383806201+384041205+383857589
2332+383296356+383014221+383618426+384757572+385309368+385182866+385405148
2318+386237112+387220949+388104924+388735022+388989496+389182001+389694535
2305+390306283+390681708+390899982+391197951+391593966+391894550+392046597
2291+392134384+392203200+392268630+392346433+392502414+392673433+392649009
2278+392398145+392122359+392068954+392297486+392610518+392804741+392889043
2264+392968539+393086303+393351284+393823260+394316100+394655822+394798831
2251+394807396+394874145+395155384+395605674+396000917+396294056+396713848
2237+397258922+397745463+398275474+398998613+399776252+400435180+401041527
2224+401734913+402472044+403125346+403740282+404475023+405387281+406504168
2210+407809204+409150938+410442156+411775849+413270227+414931766+416783942
2197+418786796+420767417+422763275+424792695+426815790+429114846+431703954
2183+434140343+436466338+439181276+442281324+445385057+448318643+451104140
2170+453888890+456731352+459626248+462572581+465321927+467744622+469963858
2156+471893240+473528537+475066387+476299993+476881591+476919683+476639839
2143+475886600+474398146+472329937+469861431+466830597+463197649+459046542
2129+454468547+449712836+444905687+440016179+435044460+429997900+425039177
2116+420335401+415809915+411378963+407064753+402853768+398696759+394696678
2102+391052153+387739732+384563523+381413706+378328621+375402753+372611007
2089+369920518+367455995+365232353+363157620+361127354+358928435+356648749
2075+354649132+352997900+351505488+349932808+348135729+346253950+344564576
2062+343099626+341682503+340246832+338858067+337533910+336200989+334854649
2048+333487096+332052620+330701475+329586404+328628485+327685604+326673185
2035+325623694+324702921+323971516+323364598+322874098+322343465+321658369
2021+320954500+320120818+319105436+318279846+317607846+316704227+315627499
2008+314606540+313641923+312658908+311629757+310626675+309735754+308884245
1994+307787898+306434437+305377925+304775761+304320691+303929680+303487780
1981+302873766+302194496+301554464+300913785+300244399+299492529+298481429
1967+297418270+296874440+296672923+296261770+295723468+295164726+294501041
1954+293922033+293486157+293018638+292401213+291536783+290407172+289629807
1940+289856745+290328149+290268371+289903029+289598786+289403392+289223037
1927+288870219+288010320+287055214+286820135+286825737+286893731+287537274
1913+288007831+287646672+287202905+287479388+288098606+288449681+288547104
1900+288600508+288470893+288035790+287664200+287417717+287049463+287069057
1886+287572478+287986369+288292356+288526763+288720811+289009270+289258914
1873+289061828+287817890+286191257+286617273+288763634+290421314+291127672
1859+291492291+291928465+292430442+292882525+293242165+293261112+292782588
1846+291968052+291782418+293317778+295158999+296193253+297015956+297838659
1832+297703716+296611626+296549781+297692487+298924649+300438199+301724039
1819+302190512+302226563+301994472+301131486+299985991+299561145+299705773
1805+299504479+298457030+296955979+296273572+296574454+296672873+295647656
1792+294587285+295818974+297801811+298557714+298432033+298253570+298389509
1778+299139711+299656253+298676250+296558893+296284601+298152214+300065388
1765+301051615+300880746+300762858+301451290+302028979+302509470+302159117
1751+299658120+296903620+296928841+298124877+298724874+298715363+298495571
1738+298458798+297431963+294978345+295174436+297920396+300525165+301981824
1724+302284649+302270358+301612549+298825135+296576720+299685233+304454762
1711+307770021+309145915+309088527+309198995+310249756+310715159+310823064
1697+313472597+319056937+325063607+329250591+332017042+333912988+334719084
1684+337100624+344030183+351419070+357336608+362051239+366878604+371609667
1670+376630931+384217154+391963340+397728010+403454139+410774359+417744252
1657+422535864+425100075+430448688+440072197+446806288+453925589+465202022
1643+475805783+483612097+489105910+492684830+497851544+507344891+515896825
1630+521944750+526686718+531144111+535479308+540491361+545278840+547874273
1616+549852205+554404804+559263988+562259368+563925339+565881411+568247640
1603+570362406+572243389+574215196+576323838+578738666+581777467+585311025
1589+589118054+593189491+597699865+602735868+608029956+612772322+616946684
1576+624317795+634890086+643518106+651429037+661203125+671442291+680971590
1562+688135008+691797334+699678887+715957812+730760036+743581688+754990275
1549+766199138+775756620+782575560+787163514+792006116+805133456+819499879
1535+829219790+837899149+847912597+856545448+862875109+868461440+873890919
1522+879042047+884896271+891554675+899593279+908366350+914465762+915617108
1508+911763024+912609528+924213708+933402363+938183319+939045061+938596812
1495+941165903+943329667+940243811+934822598+935820377+940589184+943377271
1481+942697578+939818865+935400013+928746788+921048180+918267662+922041080
1468+925166075+923813062+920880373+920449652+919478163+913254166+910106664
1454+918342951+927804479+934574721+938737730+943477557+950697940+958427520
1441+965218775+970094640+972945766+977456837+984020333+989917580+996654858
1427+1004028906+1008600030+1010961179+1011986047+1010048847+1010628154
1416+1017352287+1022912227+1024545283+1024697156+1024204689+1022727290
1404+1021967528+1022228450+1020787700+1017754028+1015091622+1014227889
1393+1016961600+1019098077+1015416381+1008084758+1005560282+1008989920
1381+1012866611+1014841555+1015634281+1014760490+1013953423+1015090826
1369+1016027358+1016743003+1017311157+1015604803+1013751058+1014045542
1358+1013920459+1012760847+1012063826+1011873611+1011063756+1009688833
1346+1008321480+1007194733+1005677299+1002206731+998424152+997766766+999048872
1333+1000405968+1002248060+1003861597+1003795769+1002863121+1002329524
1321+1002617734+1004357350+1007971923+1012501020+1016635746+1020654550
1310+1024796944+1028017942+1030585340+1033451205+1036369753+1039794809
1298+1044049738+1047644095+1049965509+1051806008+1053307607+1054518009
1287+1055641171+1056499128+1057621592+1059244192+1060087509+1059944301
1275+1059603110+1058928794+1058297103+1057797665+1056080556+1053182524
1263+1050477395+1048739272+1048991730+1051220825+1053214392+1053629478
1252+1053462169+1053907928+1054756424+1055421080+1056307021+1057932708
1240+1059603110+1060140590+1059904465+1060366457+1061311953+1061670572
1229+1061799539+1061994833+1062079682+1062501939+1063111123+1063409690
1217+1063919286+1064821560+1065924007+1067433872+1068493695+1068214747
1205+1067695890+1068666581+1071102124+1073202550+1073741823+1072947702
1194+1071726645+1070620015+1069509401+1068953696+1069188227+1068516601
1182+1066458599+1065316317+1065964739+1066786545+1066661860+1065436421
1171+1063619324+1061922432+1060175147+1058335942+1056988108+1055689073
1159+1053631669+1051155096+1048469188+1045279759+1042097500+1039897983
1148+1037989066+1034210171+1028693552+1023833323+1020228808+1016463557
1136+1011725423+1006275429+1000573575+994512903+987418998+979890388+973730525
1123+969057722+964311223+958843004+953149117+947657197+941880950+934606291
1109+927385410+924071395+924029469+923258353+921280122+919427572+917537378
1096+915928721+915121853+914872284+915419524+916872922+918622198+920238523
1082+921949259+924195682+925988578+926431549+926987951+928459375+930458121
1069+933245809+936154597+938489754+941339088+945242867+948652785+950719949
1055+952595902+954265109+955133323+956412043+958391469+959774358+960594272
1042+961687557+963117552+965146772+967838158+969574289+969349915+968765230
1028+969009720+969572994+970288937+970996814+971150281+971183045+971980253
1015+973027827+973197626+972639033+972082332+972045583+972322540+972012520
1001+971255147+970758797+970469591+969849851+968516656+966610528+964738658
988+963650949+962824064+961358417+960046634+959037700+956915464+953480847
974+949957398+947239322+945512951+944373059+943066952+941554697+940677022
961+940996303+941896187+942125241+941501218+941322257+942447510+943519483
947+943295309+943083584+943628732+943967932+944677203+947011463+949909894
934+951954351+953718566+955824967+958011538+960262044+962026757+961863132
920+960394198+959963278+960253479+959844369+959286473+958850971+957730199
907+955775073+953887269+952532265+950782490+948227940+945906825+944712656
893+944766534+945502793+945879438+945225140+944094409+943555435+943064263
880+942157508+942510351+944806469+947955166+951336104+955082334+959422312
866+964322576+969518121+973870846+976593901+978936029+981207648+982055845
853+981922098+981839240+981134450+979125646+976651463+975694714+976340846
839+976430874+976012900+977926797+982788719+985716130+983392824+979335479
826+976467523+975047586+975621317+977983761+980514212+981698521+982385285
812+983709118+984823616+985155346+985032254+985278935+987415413+991563981
799+995508094+997570178+998476535+999432388+1000752337+1003005035+1007177305
785+1012939709+1017823342+1020884002+1024393510+1028263927+1030475992
773+1031191039+1030704448+1030281296+1031513009+1032383415+1032127372
762+1033546711+1035843626+1036457391+1037171542+1039113025+1040103235
750+1039420057+1038144524+1037244839+1037446706+1038365113+1039292583
739+1040449207+1041252589+1040346630+1037264558+1033060817+1030247436
727+1030371025+1031765865+1031213546+1028560502+1026509870+1025406825
716+1023521411+1021359041+1020576373+1019828162+1017496491+1014872129
704+1012752084+1011653918+1012379721+1013260484+1013146754+1012953950
692+1012032157+1010029626+1008571249+1008191019+1008142419+1007866957
681+1007779020+1009731457+1013363558+1015194995+1015109449+1013887395
669+1010983089+1012500124+1017979397+1018860757+1015516866+1011548952
658+1010473294+1012601605+1015093017+1016639729+1017554551+1019282516
646+1020881513+1020111293+1018308837+1016161703+1013614323+1011653819
635+1010486240+1012062033+1015408115+1014431349+1009378117+1004575649
623+1001527237+1001419482+1001533312+996155520+986973239+984069032+992073477
609+1002022791+1002220375+991763656+982188298+984249785+994694752
##END=
