##TITLE=Sample description
##JCAMP-DX=4.24
##DATA TYPE=INFRARED SPECTRUM
##DATE=24/8/2023
##SAMPLING PROCEDURE=Instrument type and / or accessory
##ORIGIN=Default
##XUNITS=1/CM
##YUNITS=ABSORBANCE
##RESOLUTION=4
##FIRSTX=4397.6552
##LASTX=599.8556
##DELTAX=-1.9287962
##MAXY=1.4295225
##MINY=0.43039688
##XFACTOR=1
##YFACTOR=1.3313466e-009
##NPOINTS=1970
##FIRSTY=0.67633504
##XYDATA=(X++(Y..Y))
4398+508008239+508786390+509440527+509842071+509898795+509311231+508200303
4384+507315958+506895073+506521152+506246084+505792025+505045124+504916365
4371+505335279+505738032+506237623+506400049+505936319+505375035+505128173
4357+505711439+507159799+508032415+507790969+507865915+508092273+507138041
4344+505779445+505047944+505001383+505411210+505340652+504485452+503685587
4330+503814749+504768937+505253305+504881086+504638163+504684142+504060180
4317+503056387+503263315+504781920+506187167+506544343+506360159+506066959
4303+505114070+503937599+503395342+503614671+504362871+504752506+504146720
4290+502683138+501203394+500666375+500603115+500076573+499477771+499690922
4276+500526468+501197260+501405262+500964321+500098958+500014834+500745484
4263+500578536+499611186+499287543+499179781+498710858+498448370+498597097
4249+499025145+499548239+499906043+500008253+499545688+498527703+497999773
4236+498197970+498253172+498124189+498077091+498163139+498189822+497618420
4222+497123128+497499332+497816125+497216071+496222441+496011260+496718674
4209+497053286+496335441+494829595+493269533+492858453+493839637+495328917
4195+496506284+496908902+496711063+496409804+495774560+494582464+493542766
4182+493158414+493369013+493706938+493398561+492884689+493182948+493638305
4168+493174441+492602233+492900179+493192797+492783195+492423332+492912133
4155+494075934+494528695+493189395+491596784+492192989+494088380+494460152
4141+493178023+492168948+492342522+492853529+492471146+491264948+490307761
4128+489948391+489733136+489497241+489220114+488886442+488523937+488405655
4114+488884740+489404075+489569948+489389659+488812571+488941330+490100699
4101+490710961+490454742+490258603+489931288+489366781+489144139+489266988
4087+489772668+490330191+490165168+489512687+488866743+488386538+488137750
4074+488115723+488505447+488886084+488617821+488200383+487883186+487244181
4060+486810090+487033314+487480434+487689152+487289757+486788689+487110587
4047+487587076+486961144+485958561+486079440+486837176+486934596+486163429
4033+484843962+484084794+484776135+485613427+485698446+485753468+485926595
4020+486206990+486382400+486072769+485837502+485647990+484691609+483366635
4006+482676905+482644134+482800605+482840137+482887191+483552924+484629513
3993+485018924+484311555+483224758+482612571+482193969+481617687+481516372
3979+481974998+482503107+482936483+482819409+481810289+480648592+480351228
3966+480814465+480990188+480755772+481047584+481837957+482458740+482601557
3952+482229293+481515208+480986920+481379644+481664965+480824494+480530354
3939+481275151+481877489+481657264+480293743+479297830+480226274+481521924
3925+481492644+481065268+480963237+479690017+477652660+477434495+478740352
3912+479965846+481263466+482228039+480509759+476184824+473578169+473679708
3898+475517793+478403635+479475657+477250713+476108446+477840650+477958664
3885+476445118+476241593+475139396+474550623+476350743+477362549+476987643
3871+475378468+473119543+473708003+474725226+474410492+475725751+478232971
3858+480086815+478706416+470152175+466012857+471373685+476967542+479128330
3844+477551300+474590065+471998319+470225509+471485431+474272242+475193030
3831+474951629+475596857+476571325+477522379+476408317+471416172+470297768
3817+472652367+473749236+475841258+478449748+479127883+477170037+475905011
3804+475945572+473640445+472872188+474903860+476043127+477396664+479186352
3790+479899318+479915793+479525173+479036507+479526203+479528800+478570180
3777+479143821+480491851+480408758+478365312+476552074+476393767+476616051
3763+477216419+476946097+474848747+474378034+476071556+475967375+471178174
3750+467712334+470658615+472833014+470958307+471342525+473765533+473905663
3736+470118150+466636103+468399914+472894484+476001535+475848287+474142721
3723+473697706+474683993+476667357+479031000+480380239+477952128+472180489
3709+470729576+473435800+476208597+477233208+476589681+476736124+478163040
3696+479724132+480430158+478578910+473629342+471413620+474582186+478561495
3682+480253584+479555348+477605830+472773783+468522003+469258786+468548910
3669+467109727+469421078+471820312+472264119+472074294+471729518+469838023
3655+468289466+468887507+466219875+456677869+452746956+456905481+460300986
3642+460080001+457657709+454955067+451998712+449065324+447007328+442148732
3628+433942132+432329017+434669021+435100292+431101956+425145102+422838005
3615+421754879+419243137+416738379+413616867+410482774+409681074+409310780
3601+407275214+404751607+402621128+400182720+398542205+398768429+397798483
3588+392657566+388584508+388959548+389873621+388779572+386343805+384442191
3574+383444040+382605494+381560244+378503917+373125607+370907221+371758817
3561+372037758+371493890+371308250+370928778+369492125+368243977+367598301
3547+365816604+363402864+362679736+363372017+363780948+363283036+362347899
3534+361451622+360497883+359067385+357495213+356673366+356266293+355576989
3520+354675877+353607974+352861968+352864251+352597600+351117900+349527036
3507+349110539+348666016+347285930+346491886+346580553+346510868+346190694
3493+345734553+345089034+344159403+342743098+341640789+341375369+340914057
3480+340218686+339995216+339905720+339608379+339141224+338737173+338438131
3466+337865542+336907662+336008027+335451198+334865469+334256416+334037355
3453+334089221+334042145+333415139+332293019+331525165+331138843+331200201
3439+332081950+332689906+332165670+331273154+330652079+330343724+330032639
3426+329436859+329064125+329127296+328796377+327922955+327475970+327877514
3412+328417599+328255284+327714819+327906525+328835305+329414586+329357236
3399+329218000+329236065+329323367+329507059+329876727+330217652+330449897
3385+330939750+331736503+332720059+333872780+334650035+334904039+335471613
3372+336527607+337715696+339116332+340440679+341473886+342826192+344594234
3358+346135895+347578212+349389301+351150582+352481824+353500839+354478060
3345+356005977+357759379+358404294+357977298+357732607+358253217+359297661
3331+360120627+360109389+359633124+359349863+359236751+358984023+358637636
3318+358517249+358821866+359491247+360236044+360833278+361381243+361744397
3304+361639120+361460375+361757313+362543075+363314196+363511834+363415937
3291+363427152+363620156+364487108+365729011+366552447+367498866+368817170
3277+369577435+369602998+369555408+369859017+370684109+371885428+372800821
3264+372980059+372910150+373401033+374602083+375764742+376323385+376936199
3250+378031368+378725933+378763987+379010313+379383607+379240790+379069499
3237+379459627+379999107+380524978+381526487+382577692+382696870+382097889
3223+381755935+382215904+383049256+383339277+383072447+382845462+382840985
3210+383079789+383598407+384146260+384507869+384800397+385019861+385144949
3196+385414689+385784043+386077691+386621291+387543422+388164698+388269774
3183+388348972+388410576+388345525+388203604+388006077+388196664+389219842
3169+390443725+390697303+390310892+390564739+391424461+392009518+392222893
3156+392675833+393376934+393632034+393397976+393476592+394047367+394348313
3142+394231462+394170978+394199273+394207824+394356550+394809490+395340062
3129+395679913+395744605+395315976+394731411+394758273+395073769+394976841
3115+394929475+395451226+395938147+395713043+395254506+395335093+395668362
3102+395769722+395917956+396395788+396817926+396863860+396750681+396439260
3088+396064891+396257941+396894841+397245661+397238632+397368913+397465214
3075+397050552+396683750+397092367+397902842+398286433+398175985+398350499
3061+399009114+399414508+399418403+399371842+399232114+399191597+399400495
3047+399530373+399610870+399763850+399662311+399313461+399084954+398893517
3034+398636044+398689992+399082492+399172794+398883041+398866879+399114503
3020+399281316+399577337+400030949+400340982+400364979+400188271+400032650
3007+399916292+399865075+400142247+400619587+401031607+401586534+402448584
2993+403513935+404496104+405122170+405525953+405990220+406716705+407649761
2980+408373427+408561864+408491888+408736110+409062395+409018834+408929069
2966+408907804+408794490+408824083+408951052+408781462+408463728+408395140
2953+408518661+408713814+409085944+409549987+409665718+409340821+409014983
2939+409002448+409357699+409655600+409619426+409748409+409945980+409654884
2926+409152025+408961573+409135639+409237670+408885195+408342356+407941439
2912+407800010+408079510+408530301+408809264+409048471+409372384+409810326
2899+410345912+410689389+410698074+410587268+410449107+410341927+410572628
2885+411111482+411443945+411437454+411422277+411430828+411488044+411781781
2872+412006170+412044985+412257465+412628296+412955880+413073983+412918273
2858+412747027+412715419+412607657+412281238+411940178+411803584+411913451
2845+412312398+412960849+413506016+413859074+414453622+415269111+415958393
2831+416446836+416536913+416270620+416279305+416862034+417516306+417816087
2818+417964724+418222735+418688658+419387610+420107112+420635669+420936122
2804+421120620+421488944+422035499+422397108+422555460+422633091+422640165
2791+422929783+423599008+424162889+424686834+425454554+426092663+426337914
2777+426323230+426277385+426380446+426540231+426767350+427216261+427688049
2764+427889157+427955596+428192475+428642639+429122755+429402479+429595259
2750+429957406+430388632+430884417+431548270+432176037+432535945+432683552
2737+432987363+433606893+434151209+434481657+434992709+435577498+435714494
2723+435645683+435953119+436558815+437102773+437625555+438330551+439024892
2710+439461446+439744349+440003479+440314676+440745590+441236316+441680928
2696+441999155+442253450+442600598+442926301+443147242+443491166+443930675
2683+444298194+444564666+444564129+444335801+444222756+444432818+444938587
2669+445335922+445292674+445177078+445329072+445629167+446067199+446607978
2656+447032355+447289246+447465685+447615979+447738560+447892032+448126896
2642+448272713+448322631+448563764+449042178+449622579+450273537+450910617
2629+451362393+451512911+451437607+451525670+452141081+452993148+453616886
2615+454098389+454528944+454908506+455365117+455863454+456452585+457148045
2602+457754995+458278045+458750147+459141080+459552966+460085910+460758269
2588+461432061+461917772+462249609+462617441+463130776+463652841+464028015
2575+464431619+464868173+465013989+465047657+465419921+466002515+466408133
2561+466622806+466918021+467404539+467947825+468510094+469115476+469548539
2548+469723903+469861437+469980660+470090303+470356014+470746678+471305948
2534+472004452+472433261+472617804+473040300+473639281+474014544+474251200
2521+474632731+475008085+475170287+475398884+475940290+476547552+476938889
2507+477084705+477175589+477530303+478139849+478572329+478629277+478595834
2494+478747381+479176951+479769305+480179982+480274761+480204203+480210694
2480+480438978+480639548+480511864+480166238+479953534+479995216+480190369
2467+480490911+480685572+480491807+479966876+479639785+479923718+480241675
2453+479939969+479314485+478866962+478846099+479128106+479183129+478794345
2440+478284367+477927415+477669538+477295662+476738587+476293123+476167991
2426+476060363+475747733+475386214+475071211+474769594+474336039+473670709
2413+473000902+472522040+472171938+471857158+471425126+470709295+469876883
2399+469321195+469087585+468864271+468444058+467887967+467299911+466626701
2386+465739311+464468196+462712846+460545924+457997067+454956365+451306923
2372+447212375+443253526+439840068+436773757+433951981+431605173+429909009
2359+429283166+430022860+432019431+435364660+439518394+442396401+442060311
2345+438854944+435704913+434330513+433922567+433843593+433985738+434151567
2332+434354868+434982546+436014723+437034812+437923232+438932755+440322959
2318+441928642+443332232+444386347+445184330+445906518+446801027+447820579
2305+448665303+449304934+449785229+450029092+450217037+450549859+450918542
2291+451287135+451759953+452312193+452767551+453014906+453199180+453471651
2278+453796414+454087465+454286603+454441598+454656898+454999524+455542139
2264+456167399+456562854+456740995+457049596+457582451+458160120+458703989
2251+459174389+459639910+460307747+461041082+461574475+461992270+462545898
2237+463350598+464176921+464876769+465628908+466391926+467033841+467701902
2224+468472353+469178558+469844649+470636409+471338988+471858457+472569497
2210+473478466+474312087+475163482+476176005+477285276+478329988+479249299
2197+480205143+481219188+482171718+483135755+484197167+485297708+486259192
2183+487003855+487890753+489215637+490671608+491991613+493339778+494590343
2170+495452662+496295372+497550459+499078287+500487070+501516785+502386133
2156+503333201+504267287+505184225+506164334+507121163+507785821+508142460
2143+508373116+508456792+508435615+508298708+507978109+507627200+507204704
2129+506466488+505401271+504115739+502682690+501205766+499759331+498403197
2116+497091699+495536651+493553824+491404765+489439667+487621639+485740619
2102+483752017+481791978+479938850+478017447+475910517+473691572+471531679
2089+469565327+467627987+465640727+463869842+462367802+460832588+459068642
2075+457197964+455421707+453702352+451933258+450145898+448335167+446649256
2062+445237607+443831868+442273059+440748903+439338597+437861180+436255766
2048+434737161+433302813+431821457+430291839+428735179+427280103+425971426
2035+424727352+423437164+422057481+420803020+419731087+418584075+417286993
2021+416005939+414707648+413244021+411840833+410708103+409710981+408741482
2008+407743868+406715944+405732880+404741668+403648246+402531498+401474519
1994+400298540+398944734+397837702+397088249+396353480+395553571+394724024
1981+393910057+393156620+392310150+391344859+390490196+389717642+388660215
1967+387401680+386578804+386217553+385792505+385172617+384478365+383706706
1954+382842507+382026212+381407175+380742248+379696103+378346281+377264499
1940+376943766+376830810+376408762+375907515+375432413+374862466+374245981
1927+373621750+372704565+371604159+370931778+370364830+369705589+369496803
1913+369315238+368639790+367938487+367668120+367571416+367410132+367260196
1900+367074176+366561535+365706917+365110309+364816214+364239686+363859318
1886+364097317+364258198+364070499+363767718+363533055+363358586+363151278
1873+362720432+361365977+359337887+358937932+360211219+361183292+361343121
1859+361142752+360977774+360927565+360751730+360364982+359835821+359030786
1846+357585111+356190587+356600861+357714520+357958562+357810574+357817558
1832+356983691+354904518+353746649+354055631+354289286+354685144+355344318
1819+355566670+355270179+354700792+353724018+352406700+351709068+351860212
1805+351997881+351414010+349982998+348758824+348491658+348184602+346763059
1792+345223098+345857156+347387581+347853974+347232429+346216616+345395486
1778+345205951+344820681+342921731+340049119+339743786+341824929+343463160
1765+343940029+343122235+342075172+342162026+342550049+342951436+342814372
1751+340696339+337916491+337663741+338943788+339671438+339309157+338639955
1738+338651394+337829144+334940728+334434355+336876681+339201216+340354429
1724+340201226+339582681+338454517+335080277+331463405+332878859+336270604
1711+338296590+338261870+336395804+334591968+334203452+332583891+329212359
1697+328491380+330757311+334063255+336032471+335855316+334511941+331575912
1684+327904398+329452260+332873867+334402456+333490756+331892393+331039006
1670+329791036+329975557+332205000+332992083+331891542+331928634+332933859
1657+332610775+329172581+323279368+323300634+324578129+323853860+325598285
1643+329481137+331776729+331875693+329954492+328718163+332889649+338214593
1630+341670382+344011595+346411389+349207646+353321131+357603355+360251758
1616+363506059+369632860+375478571+379545988+382859341+386591698+390472244
1603+394311153+398410805+402475267+405960761+409276038+413117813+417112389
1589+420921795+424840396+428990280+433163981+437000205+439740454+441009644
1576+443750028+449697524+454588623+458007768+462832159+468663521+473671829
1562+476938351+476888925+477099435+485620949+495204591+503063192+509284861
1549+515156159+520090192+522355475+521820739+522359146+532845623+545285425
1535+553241760+560199988+568261891+575047306+580077193+584421737+587991533
1522+592468911+600122465+608781692+617897217+626764491+633278465+636161934
1508+635702681+640541175+653349748+663065283+669450229+674245610+680175735
1495+688156694+694519568+698105795+702443400+710973107+720367460+728035833
1481+734509111+740377051+744860517+747236247+749489083+756207075+765681433
1468+773436436+779580698+786814576+794569490+800141051+803483415+809706203
1454+820596105+831568832+841152071+849525798+858256434+867382748+876271064
1441+884667804+891864164+898656877+906485125+914370768+921119516+928354917
1427+937202850+944591992+949440066+952676504+954274531+958450068+967180435
1414+974739613+978390712+980173103+981889234+983143695+984682536+987654471
1400+989824661+990454041+992043383+993486416+994347346+995845894+996151496
1387+993519814+992288723+996275599+1001572450+1004778533+1006266963+1005583770
1373+1004815692+1006544627+1008191544+1008416111+1008297291+1007469132
1362+1007578729+1010156866+1011298595+1009300770+1006954812+1006092449
1350+1006554566+1007904567+1008462403+1007321390+1005183434+1002193950
1339+999725321+999410676+1000445405+1001701836+1002695734+1003494792+1004850882
1325+1007671314+1011004634+1012902890+1013437626+1014416033+1016752769
1314+1019917216+1023690806+1027968866+1032264925+1036060184+1039120316
1302+1041934212+1044906237+1047810927+1050544237+1053889824+1057767460
1290+1060153801+1060271636+1060677791+1063806153+1067703667+1069113570
1279+1068218882+1067082973+1066868792+1067121834+1066212014+1063709897
1267+1062340019+1062790407+1061774213+1059494515+1058760015+1059680221
1256+1060674120+1060284977+1059202882+1059834052+1062873232+1065883490
1244+1066690338+1066327252+1066507049+1066709231+1065675935+1063833731
1233+1062542201+1062853175+1063796841+1063522579+1063110245+1064049613
1221+1065349202+1065967568+1066702695+1068236164+1069613205+1070161640
1209+1070037895+1069588850+1069145536+1069185560+1070187070+1071305519
1198+1071611030+1071390672+1071233618+1071790201+1072987445+1073741823
1186+1073082895+1070789856+1068811461+1069707581+1072000889+1072506792
1175+1071444843+1070623310+1070352451+1069916299+1068635782+1066281945
1163+1063874472+1062848071+1063420503+1064523819+1064877325+1064013170
1151+1061792837+1058476351+1055041313+1052730007+1051728050+1050283226
1140+1047670527+1044937755+1042865880+1041742685+1040247898+1036783312
1128+1032374612+1028792101+1025622371+1020991163+1014717605+1009194933
1117+1005643941+1002367927+998218356+993367595+987377881+981849299+979877082
1103+979597806+976734931+972256748+969418676+967529821+964180294+960242845
1090+957367972+954316078+949643681+944004696+938613380+934062848+930743675
1076+927891008+924060739+919507610+915358667+912172999+909482310+906342218
1063+902516784+898414760+894924118+892223042+889509789+886676821+884332922
1049+882546771+880290084+876723064+872790002+870259770+869458921+869280646
1036+868754328+867207070+865315171+864797717+864894331+863867392+862202926
1022+860600870+859176282+858243003+857660363+857324229+857651767+858396206
1009+858615222+858301741+858235302+858715865+859621119+860695424+861548386
995+861914696+862184302+862584995+862331417+861510689+861092715+860600243
982+859320711+857783213+855918534+852950181+849541647+846877014+844491479
968+841589207+838961555+837477870+836392551+835155730+834341808+834090826
955+834237404+834849681+835989261+837530610+839344877+841879586+845306028
941+849009777+852765459+856993377+861392048+865036611+868419805+872576449
928+877273290+881496641+884431506+886521290+888692286+891102713+893714785
914+895993051+896784051+896298652+895439243+894043488+892343832+890720196
901+889100232+887430751+885326731+883313595+881996277+880597656+878599025
887+876493393+875210100+874876652+874470496+873678243+873468629+874457244
874+876114816+877454878+878139593+879022282+881042224+884251351+888064787
860+891931320+895891781+899792160+903490447+907810412+912314920+915318553
847+917727368+921673413+926506087+930232489+932845994+935501314+938950052
833+943618240+947946891+949862518+950498971+951759700+953691533+955968904
820+959133709+963468090+967257708+968646121+968748466+970291963+974532238
806+979754681+982299508+982073777+982771476+986203290+992150831+1000111867
793+1008611041+1013740093+1014458117+1015932221+1019628269+1022909655
781+1025661321+1028482739+1031537946+1034476930+1037430957+1041376823
770+1045802625+1049252617+1050373841+1049189312+1048324351+1049324070
758+1049942794+1049100040+1048985249+1050010845+1050825931+1050360589
746+1048281820+1046898510+1047469957+1048144286+1047968339+1047450885
735+1047754337+1046885975+1042027065+1037162694+1034018842+1030791448
723+1030742111+1033984996+1035669877+1034636581+1033519475+1034198818
712+1034579633+1032394848+1030253758+1031779437+1035191731+1035198089
700+1030940354+1026577140+1025319366+1025736087+1025167775+1024521024
689+1025511789+1027235710+1027953286+1027590379+1026684589+1026137855
677+1028063690+1031814357+1034370646+1034206877+1031917508+1034908963
665+1041525550+1039103661+1031277742+1026254884+1023352612+1023638783
654+1027271078+1029237385+1027810828+1026522431+1030059545+1038131074
642+1047967622+1053622725+1051207820+1041521252+1017172266+989239336+985306364
629+1003552009+1018524325+1014461609+1003761802+998469249+992981318+989350455
615+998117623+1011930034+1014737752+1011968357+1016976978+1023516471+1020232219
602+1013100416+1015228075
##END=
