##TITLE=Sample description
##JCAMP-DX=4.24
##DATA TYPE=INFRARED SPECTRUM
##DATE=24/8/2023
##SAMPLING PROCEDURE=Instrument type and / or accessory
##ORIGIN=Default
##XUNITS=1/CM
##YUNITS=ABSORBANCE
##RESOLUTION=4
##FIRSTX=4397.6552
##LASTX=599.8556
##DELTAX=-1.9287962
##MAXY=1.4307542
##MINY=0.29840812
##XFACTOR=1
##YFACTOR=1.3324937e-009
##NPOINTS=1970
##FIRSTY=0.35581565
##XYDATA=(X++(Y..Y))
4398+267029898+267291153+267385805+267223563+267225263+267505082+267610000
4384+266845156+265584014+265114757+265401912+265387553+265174563+265480706
4371+265996708+266035960+265900177+266301331+266922765+266929945+266611948
4357+266836881+267426600+267487570+266926456+266165235+265077920+263867750
4344+263184474+263010692+262815997+262338755+261924093+261880233+262023307
4330+262178571+262427615+262662187+262349110+261212099+259996718+259821884
4317+260402210+260652305+260462352+260190562+260114295+260346474+260490555
4303+259968045+259104657+258919132+259361170+259665614+259582972+259417644
4290+259583442+259791332+259521310+259132010+259490870+260450967+260894929
4276+260618689+260389081+260430279+260237307+259712202+259310959+258940201
4263+258343726+258086609+258354842+258381323+258235632+258523727+258664273
4249+258083053+257473785+257387185+257535269+257724864+257916852+258004414
4236+257986768+257953487+257902046+257695856+257489777+257478952+257662329
4222+257891847+257785028+257498947+257355403+257393917+257770736+257938569
4209+257362627+256809050+257023628+257759061+258674763+259635017+260044849
4195+259584046+258888916+258389979+258172874+258376895+258617462+258468103
4182+257969591+257483514+257502525+257754320+257686887+257320915+256832333
4168+256564033+256469314+256279226+256354465+256561237+256237939+255590113
4155+255256460+255365784+255686197+255863334+255686666+255455493+255228950
4141+254730796+254381218+254302781+253834194+253195382+253053851+253205715
4128+253206632+253145304+253486696+254131615+254183280+253460864+252908808
4114+253052084+253456614+253616575+253462049+253146266+252929519+253094735
4101+253365541+253228505+252958035+252920528+252893778+252824288+252750234
4087+252449929+252005229+251818161+251834913+251731203+251844083+252509779
4074+253158702+253282004+253019027+252644310+252429844+252600294+253040342
4060+253363908+253492422+253436955+252824690+251688909+250798145+250729818
4047+251099189+251057991+250684750+250619800+250702733+250599716+250503431
4033+250504952+250423093+250183331+249909797+249533671+248904632+248445998
4020+248472837+248509875+248261927+248216704+248650936+248863613+248258192
4006+247426452+247163609+247260229+247071238+246667110+246602920+246933778
3993+247214469+247021340+246309234+245481140+244800212+244371056+244282711
3979+244472396+244956035+245402457+245319658+244629024+243435628+242289447
3966+241913365+242360659+243011505+243444798+243539987+243249567+243169050
3952+243623635+243715156+242828128+242301077+242373520+241362696+240200478
3939+240372785+241152413+241826810+241360214+239693960+239001581+239555627
3925+239495373+238653143+238505887+238541314+237350602+235749835+235442775
3912+236112721+237271830+239435120+241235032+240002541+236911584+234534790
3898+233602940+234648520+236455433+236151257+234449688+235203304+236142848
3885+234810873+233890900+232551791+231378904+233102281+235120976+235800807
3871+234851288+231872362+231124650+231900006+230917922+230313665+231731479
3858+234503925+236388738+231293377+224735091+225842826+229191773+231527324
3844+232029258+231694755+231332674+229194099+226643231+226091802+226246104
3831+227002359+228418519+229029889+229645598+230219281+227602524+225771769
3817+225914687+224471890+224635787+227046487+228875363+227943379+226863915
3804+228052323+227003321+224863493+224929696+224359837+223947120+225048391
3790+226325323+226990930+226978160+226641509+226997439+226796594+225023207
3777+224493339+225878432+227396870+227272472+226078852+225956489+226109873
3763+226717173+227927902+227697646+226885968+228123200+230255245+229340595
3750+226243845+227079074+228370790+226377145+226739024+230436856+233885443
3736+234010423+230400802+228201481+229860958+233218315+235428237+236015206
3723+236350492+236569968+237437874+239820684+243622741+247594263+250952268
3709+256665462+266275521+279254880+295267760+312060671+324801745+332612920
3696+337596943+341027526+342548760+340645137+338232714+339457512+342462025
3682+345744501+349378746+353363420+355827888+357724376+362586572+367187111
3669+370404413+375805559+382977832+389704936+395678803+401806771+407604799
3655+413607697+421438286+429691410+434721753+437696050+442961726+449982180
3642+457158032+463121075+468627183+474834416+481504755+488690403+495948382
3628+501005967+505505658+511830177+519358290+526591309+531889371+537355937
3615+543888592+549059795+553172021+557435126+562249683+568480042+575496605
3601+581500353+586193195+590520267+593936915+597262893+601944418+606619681
3588+608762998+610082135+614009216+618259707+620451513+622057872+624749420
3574+628308315+633203300+639539628+643944801+642819845+640873929+642281410
3561+645604077+649339886+652645331+655143997+656964754+658136052+659379906
3547+660104558+659885463+661637959+665798764+669474319+671367810+673043815
3534+676019812+679356614+680487699+679012002+677925559+678115087+678839382
3520+680058723+681052794+682026244+684001684+686489479+687707835+687284763
3507+687392522+688202925+688315023+689400213+691630712+692516220+692062909
3493+691899281+692813596+693966957+694664457+696235209+698046304+697341065
3480+695512525+695758683+697259385+698264595+698675992+698993631+699407310
3466+700254706+701703520+701254548+698044560+695665999+695980328+697584629
3453+698914635+699836555+700786565+701428152+701094722+700411759+700637654
3439+702081860+703512512+703406454+702664087+702086915+701563017+702623426
3426+704989865+706763609+707859311+708838397+710442832+713105439+715117111
3412+715046793+714397781+714584402+715701306+717879291+720437852+721841441
3399+722166238+723081045+724482085+725582260+727366561+730366087+733272481
3385+734702865+735331390+736422126+737027614+736369388+736579313+739526101
3372+743683281+746330993+746577330+745392075+744190717+743185284+742575457
3358+743801776+745250187+743919375+741734905+740838885+740327647+740492394
3345+741193070+740354441+738884112+738472044+737491481+735687543+734121354
3331+733037327+733384668+734097154+732673167+729772095+728166452+728527169
3318+729354794+729724680+729445733+728921746+728705424+728458729+728088127
3304+728456850+730177767+732849857+735800133+737931730+738675931+738873555
3291+738643545+738800687+740631867+742538509+743031899+743173117+744472437
3277+747013866+748546417+748209767+748532327+749560037+748602242+745597975
3264+743017540+743138405+745999621+749752562+751616574+750436419+749102745
3250+748805324+748351566+748284111+748777948+749076398+748170000+745884571
3237+743246879+741043711+740548264+741940805+742858474+742035099+741162966
3223+741247732+740849621+738963913+737000328+736355700+735710580+734136563
3210+733192009+733109658+732589071+732455726+733413475+732982128+730895441
3196+730381564+731345039+731323926+730577310+730008815+728953685+727699543
3183+727754742+729017696+729281031+728058560+726937361+725632046+723802745
3169+722277888+721248568+720920685+720971008+720600049+719960252+719364829
3156+718482050+717283957+715849592+714188661+712892964+711917187+711002917
3142+710367370+709869283+709611494+708971474+707124325+705420630+704778552
3129+703962915+702705553+701948649+701160835+699190137+696740185+694977221
3115+693712970+692641155+691940210+691276884+689482071+686633783+684725084
3102+683747831+681900190+679153712+676481845+674881078+674643419+674547693
3088+673260316+671041447+669608558+669552018+669820900+669595318+668799586
3075+668457434+669090476+669032102+667086633+664144319+661620693+660004091
3061+658094049+654751163+650810886+647487906+645282457+644209568+643256068
3047+641930043+641209013+640900007+639743873+638526993+638878181+639943779
3034+639724146+638082271+636643522+636335321+636326822+635976305+635244674
3020+633969643+632947659+633138842+634031149+634658600+635077825+636046175
3007+637740789+639973257+643114716+647075257+651532989+657806693+666837835
2993+677766136+690182480+703010578+713166095+718862134+721415909+722549275
2980+722336755+720797539+718264162+714598939+710143622+704763791+698070370
2966+691450130+685804906+680233489+675073201+671554743+669394786+667832309
2953+666312999+664639140+663480859+663243423+663826948+664618877+665046377
2939+665560836+665656830+664604339+663476609+662225420+659587460+655955832
2926+652057289+647445724+641972985+636403805+631209297+626141156+621026315
2912+616402136+612679165+609532785+606943270+604883869+602955353+601128468
2899+599450360+598196621+597503549+596670780+595253413+593479803+591902028
2885+591203811+591119626+590273125+588053808+585169064+582440344+580180366
2872+577936940+575131952+571912973+569015077+566943376+565227112+563236777
2858+561167401+559285093+557029723+554005237+550442137+546371959+542492607
2845+539773280+537738124+535346859+532392826+529433469+527092259+525353763
2831+523351485+520762909+518371063+516496136+514931243+513620203+512435262
2818+511292502+510230752+509107451+507787017+506487428+505438337+504626457
2804+503699707+502436932+501230206+500094738+498589786+496814969+495187721
2791+493826402+492576018+491274506+489836249+488251228+486542255+485020126
2777+484134976+483567511+482615621+481152046+479391811+477810457+476919895
2764+476511629+476081087+475542876+475123114+474968163+474669982+473782372
2750+472450934+471051639+469988099+469318600+468660285+467843798+466959945
2737+466127713+465447747+464833939+464110181+463282735+462519657+461894577
2723+461282827+460544800+459649675+458658779+457716194+456887406+456209676
2710+455798771+455490481+455001877+454459729+454072174+453696920+453174365
2696+452597998+451911859+450915953+449811305+448857313+447906989+446910726
2683+446000526+445103612+444211618+443366145+442370463+441174607+440014179
2669+438981101+437963724+437000831+436136973+435199219+434200853+433226419
2656+432224519+431335567+430698767+430291441+430045059+429730685+429188358
2642+428641066+428389496+428376792+428296006+428019386+427695976+427484306
2629+427445031+427525146+427503361+427208490+426804564+426609713+426644201
2615+426771283+427026075+427315086+427388938+427209743+426959380+426863520
2602+426937506+426970473+426891611+426767973+426557600+426267292+425944821
2588+425447137+424817762+424367762+424003646+423371543+422546200+421798018
2575+421118902+420360880+419433637+418356544+417265136+416339146+415695502
2561+415088136+414174537+413162886+412330206+411627740+411115160+410787903
2548+410432063+409997137+409628414+409451858+409411152+409371341+409299010
2534+409229676+409274900+409455660+409597952+409698687+409864910+409980810
2521+410045805+410235780+410463330+410614836+410779002+410970677+411185165
2507+411382789+411432486+411416607+411495916+411581711+411534877+411366597
2494+411141909+410857327+410499473+410179911+409904811+409554786+409238220
2480+408940799+408426609+407834585+407454635+407229634+406918123+406420573
2467+405836646+405327242+404943489+404480024+403820456+403278532+403029645
2453+402776643+402348561+401912964+401556095+401136110+400516174+399832898
2440+399325328+398983846+398703110+398404437+397952379+397384242+396962736
2426+396773924+396631766+396453466+396297263+396138645+395970364+395829012
2413+395711815+395634519+395616581+395610677+395507615+395329941+395188902
2399+395115319+395219767+395467804+395618326+395654246+395610677+395504529
2386+395576189+395940886+396334659+396552502+396581398+396268545+395712576
2372+395308336+394866879+394184721+393629378+393253453+393000898+392807791
2359+392370182+391995107+391778382+391402457+391563849+392549779+393493975
2345+393663776+393102707+392357836+391822577+391618153+391832194+392270609
2332+392383333+392102329+391935390+392084570+392406370+392877975+393437166
2318+393841764+393939815+393724343+393338175+393010023+392767265+392526027
2305+392340614+392196757+391917050+391572974+391377094+391238829+391094346
2291+391037313+390960777+390719136+390356094+390025930+389880507+389958206
2278+390073211+390009021+389824772+389571233+389324403+389298728+389257082
2264+388978807+388811152+388827435+388698876+388399621+388134452+387889323
2251+387598477+387382737+387320425+387299312+387135773+386830659+386562940
2237+386425882+386402532+386463725+386551130+386601006+386669535+386745534
2224+386748039+386792637+386859734+386833924+386839113+386921464+387016519
2210+387163730+387401971+387701897+388044765+388435899+388882276+389346411
2197+389625224+389617843+389548285+389563002+389632157+389840070+390184101
2183+390348445+390262784+390260995+390310736+390122863+389859036+389710751
2170+389420890+388905939+388517444+388379581+388203160+387899253+387676981
2156+387446882+387096857+386871633+386771971+386564237+386191175+385714783
2143+385316045+385126338+384951884+384582848+384237475+384089503+383872689
2129+383521142+383277444+383073289+382715123+382369123+382146539+381788059
2116+381287423+381037373+381082775+381114803+381007358+380726398+380397442
2102+380321845+380437208+380479927+380550961+380872894+381325937+381678646
2089+381895863+382016057+382142245+382474377+383095789+383849070+384538161
2075+385077893+385500965+385902074+386282696+386743655+387402150+388103811
2062+388771386+389402818+389876392+390224807+390653918+391205101+391642040
2048+391890972+392213353+392711126+393162111+393445396+393674423+393813985
2035+393779184+393770685+393941157+394176938+394382346+394510099+394531839
2021+394573618+394626491+394413613+393976227+393648970+393401157+393016688
2008+392516186+392091414+391816985+391466960+390943331+390496194+390309797
1994+390268241+389903544+389085626+388285645+387616594+387044655+386678795
1981+386411299+386056711+385619057+385223495+384868684+384619260+384560080
1967+384438499+384154677+383896665+383607206+383207574+382733015+382092011
1954+381288988+380511731+379805508+379128941+378575611+378022325+377070838
1940+375934878+375049236+374317426+373655554+373011798+372304971+371670587
1927+371348474+371314702+371168116+370797470+370345523+369788324+369464824
1913+369527471+369669986+369719437+369648582+369511681+369397637+369349685
1900+369407053+369576407+369749541+369897782+370134614+370198245+370037076
1886+370134502+370356483+370505260+370786354+371111598+371239642+371389583
1873+372021194+372733143+372484770+371771524+371881922+372391057+372599775
1859+372512683+372412014+372431114+372545493+372862618+373411051+373956441
1846+374225256+373967714+373730904+374007793+374419794+374748192+375204365
1832+375696547+375696682+375554972+375984261+376531956+376945634+377503438
1819+378152047+378648076+379172107+379869966+380347924+380548992+380858133
1805+381560107+382586206+383027037+382621499+382730063+383555228+384056804
1792+383774905+383619552+384322913+385484102+386556454+387398214+388042171
1778+388802832+389983122+391169584+391711866+392305231+393635372+394923643
1765+396041711+397299073+398853274+400643704+402206091+403658170+405571208
1751+407655167+409236028+410802262+412863810+415040899+417133804+419500645
1738+422261035+425022991+427823909+430889905+434016603+437129837+440354094
1724+443850320+447400224+450848409+454597458+459179634+464217179+469240275
1711+474341383+479515717+485091071+491339456+497442822+503667097+510643849
1697+517283413+524430413+531749092+538515515+545258723+551382889+557359977
1684+565462400+574170177+581941854+589549903+597806472+606907485+615705172
1670+625232656+636015982+645319316+653441823+661960877+670351999+677729456
1657+684337484+689680859+693252010+698644277+705455387+712138341+719266285
1643+727372600+735611276+742505229+747938201+755738775+767086927+777393011
1630+787156320+798013319+809107753+820213549+832592765+844031007+853652964
1616+864192457+876154954+886500401+894099772+899742223+904899962+909324369
1603+912174760+914405080+916437507+916537259+914374573+912243915+911020952
1589+909125940+905397556+899739986+893387108+888032281+883529504+876354815
1576+865084138+859539471+858940335+855714736+851272346+850406251+851679762
1562+853622815+852452277+845041674+847523923+856234428+863278769+868023097
1549+873135925+880353109+888090880+893305070+897016992+910666230+928379427
1535+940585264+948439248+957069326+967414236+975688697+979559417+979796942
1522+979602806+984345793+989712071+990246256+990519745+993030712+995264432
1508+991760870+980269487+980333095+988564704+995393080+995923240+992257749
1495+993544947+997878281+998197307+993628774+992506815+996482206+1000551982
1481+1001530710+1000686087+1000694407+999814625+992363584+982665314+982307640
1468+985689353+986115735+984866827+983749699+979704974+970406157+964081102
1454+966949564+970304885+971418166+970152618+967626801+966360358+967050568
1441+969370262+971399290+968915878+964692405+964923757+966376909+966410011
1427+965607614+964295545+964554363+966555925+965599562+963988418+967289256
1414+970032738+969047031+968262527+970103235+970603603+966415199+960931993
1400+956307546+952879759+952313009+953931669+955937704+956102585+952176756
1387+945195577+940809996+941090195+943243756+945012266+945570965+944150466
1373+943192851+944770537+945265984+943982812+943473766+943009720+942353149
1360+943013298+943615476+942461846+940449548+939183106+938234347+936975509
1346+936173023+935911075+934129324+929523663+925487884+925834554+928571237
1333+930319887+930421070+930175045+930789122+932106469+933324422+934607147
1319+936645032+939513136+942066150+943438786+944901690+948045072+952751916
1306+957599396+961136238+963193984+964722643+966130527+967736394+971327451
1292+976927138+981660641+984484103+986623797+988694783+990576912+991957331
1279+992920225+993947442+995092394+996272862+997302316+997452704+996552972
1265+995470734+994935833+994368636+993275752+993325762+995101609+996235735
1252+996085168+996763658+998805568+1000608701+1001319040+1001330402+1001015938
1238+1000467260+1000053403+1000319824+1001106565+1001782549+1002526705
1227+1003937452+1005203447+1004623188+1003048366+1002953445+1003385195
1215+1002333733+1001795969+1003570742+1005171598+1004703974+1004352472
1204+1005155405+1004756041+1002893952+1002043514+1002889300+1003550613
1192+1002619300+1001400720+1001111843+1000517359+999445768+999940321+1002146933
1178+1004196448+1005088308+1004981668+1005008059+1006085019+1007668609
1167+1008641791+1008870995+1009337278+1009803203+1008789405+1006553896
1155+1004876906+1003928595+1003858814+1006349025+1009224823+1009030598
1144+1007732843+1007731322+1008263092+1008080945+1007437883+1007009711
1132+1005601470+1003094529+1001691655+1001032310+999218620+997428012+996719731
1119+995690814+993954689+992049478+990146862+989564188+992181258+996361878
1105+996237614+990812290+987641800+990578970+994690793+996246113+996939990
1092+998525548+1001957540+1007302614+1011203125+1011485561+1010879715
1080+1011112230+1011281763+1011730243+1014180195+1018499931+1020962856
1069+1019048252+1016358448+1018217853+1024250275+1028718430+1028783828
1057+1027683876+1028779533+1030224813+1027643081+1022070412+1018722247
1045+1019186115+1021976386+1024615285+1023809847+1020717905+1021578721
1034+1026672225+1029059554+1028527963+1031865302+1038965736+1042397638
1022+1039528371+1035973010+1035513079+1035688337+1033078514+1028610448
1011+1025370713+1023032142+1021395501+1022692540+1025027442+1025298964
999+1026105386+1029344226+1031674119+1031950381+1033013832+1034866527
988+1034148137+1030071741+1025919660+1023684867+1020700371+1015845286
976+1013104668+1013635632+1014411011+1014744083+1015806907+1017301302
964+1017777604+1017558509+1017974782+1017599125+1014926051+1012371963
953+1013033186+1015040922+1013870205+1010278343+1008075577+1007491561
941+1007964643+1010293015+1012781884+1013673654+1014571687+1015665644
930+1014767522+1012659140+1012393434+1013957611+1015287751+1015847702
918+1015797155+1014958795+1013562720+1013143316+1014162840+1014698098
907+1014265275+1013527918+1011507926+1007316034+1003308704+1002779886
895+1004414649+1005906629+1007917585+1009470221+1009630897+1011464268
883+1016285714+1019360658+1016740725+1012265233+1011099884+1011777300
872+1010632260+1008476194+1006909602+1005041161+1004064758+1006505586
860+1010577061+1013429956+1016525297+1020080569+1020657518+1019029822
849+1017783598+1015810127+1012631228+1010245510+1010207488+1011115988
837+1010734516+1009684485+1009631434+1011061326+1012503474+1013339956
826+1014761349+1016846112+1018856532+1019134763+1017585706+1016776868
814+1016812743+1016323915+1014917194+1013212024+1013189031+1015002005
802+1015879819+1016065992+1018738082+1022214090+1023012729+1022381207
791+1020333034+1015117055+1009804277+1007958380+1009311871+1011743662
779+1012341546+1011675939+1013425841+1015350107+1011353871+1004994819
768+1004720614+1007794126+1006622067+1002109269+998991742+997744623+995695824
754+994878219+999858462+1007103022+1009439982+1007780885+1006100227+1002917123
741+997594146+994427860+994308248+991980144+987196899+987051521+991038275
727+991142768+987902944+988937497+993150414+992394359+989250261+990879388
714+993416925+991655661+989374078+990604646+992285483+991541327+993571160
700+1001867987+1009547606+1013116208+1014762959+1008344683+993148356+982521278
687+979948224+973212621+961265155+958431941+964756102+968583164+971482133
673+980987430+992529449+1001127678+1009942766+1016699929+1019376850+1021789586
660+1021022260+1005767961+977002019+960492013+973446657+1005907166+1021566733
646+991342182+946543073+927017438+930361755+947202239+988389445+1036407264
633+1024704659+981859608+970826456+960818464+939074766+948331981+970892480
619+968304664+973041120+1022005193+1073741823+1061457259+1010852250+991720701
606+1006094681+998351095+951438416+913891292
##END=
