##TITLE=Sample description
##JCAMP-DX=4.24
##DATA TYPE=INFRARED SPECTRUM
##DATE=24/8/2023
##SAMPLING PROCEDURE=Instrument type and / or accessory
##ORIGIN=Default
##XUNITS=1/CM
##YUNITS=ABSORBANCE
##RESOLUTION=4
##FIRSTX=4397.6552
##LASTX=599.8556
##DELTAX=-1.9287962
##MAXY=1.2847153
##MINY=0.34358758
##XFACTOR=1
##YFACTOR=1.1964844e-009
##NPOINTS=1970
##FIRSTY=0.48626122
##XYDATA=(X++(Y..Y))
4398+406408338+405951820+405900907+406031576+405085635+404369474+405653593
4384+407038990+406326290+404996713+404830301+405169327+404740681+403687461
4371+403077209+402903947+402532192+402111317+402250430+403208226+404177033
4357+404400883+404182014+403320089+401833914+400861372+400667586+400747716
4344+400753519+400432078+400005848+400206709+401053389+401347157+400919084
4330+400530167+400386571+400806972+401423750+401356025+400898336+400920977
4317+401204059+400944939+400307786+399562756+398862137+398815234+399296860
4303+399639797+399820407+399982584+399800978+399135654+398529761+398629544
4290+399195284+399238849+398473194+397568801+397479206+398688053+400211690
4276+400502469+399587639+398471003+397347068+396275665+395907222+396408799
4263+396726927+396175235+395428610+395008807+395404599+396639524+397335834
4249+397045031+396557377+396351934+396341173+395790203+394988307+395230764
4236+395832722+395487070+394973811+394870441+394907829+395534146+396263485
4222+395721855+394395391+393838269+393943157+393704437+393283014+393074532
4209+392725219+392461540+392952283+393889405+394877640+395881865+396254617
4195+395523162+394125934+393092964+393087609+393372534+393271631+393315121
4182+393703166+393916705+393700676+393158473+392757973+392954773+393422226
4168+393640273+393284035+392406842+392037752+392537535+393142308+393573245
4155+393458966+392722330+392228275+392305939+392642947+392758496+392409133
4141+392033268+391951669+391987586+391787324+391064362+390314350+390351190
4128+390695745+390708772+390817571+391039728+390989986+390642815+390165698
4114+389908944+390130951+390422676+389908221+388967860+388871391+389548297
4101+390054308+389973481+389381462+388559440+387866817+387166098+386604018
4087+386719717+386734911+386442140+386903092+387724939+388064439+387899421
4074+387144976+386222823+385963852+386184514+386056386+385273221+384185677
4060+383738051+384335102+385001372+385038510+384845247+384820339+384829107
4047+384542986+384169661+384132473+384242169+384306407+384189488+383572461
4033+382779233+382592147+383043933+383482791+383612588+383157540+381848487
4020+380527603+380371353+381307679+382210553+382375695+381700632+380626563
4006+380380345+380860377+381003624+380834348+380563172+380453376+380743059
3993+380912635+380550568+380171216+380214307+380049514+379582335+379345707
3979+378887470+378153075+378170436+379093361+379716665+379434704+378899625
3966+378347210+377419702+376588041+376632552+377271896+377886507+378322675
3952+378455113+377825333+377001119+377352798+377705250+376866166+376728448
3939+377802243+378340460+377291947+375146476+374256156+375587078+376606946
3925+375917112+375447592+375829709+375285663+373994719+374043564+375688280
3912+377509322+378392344+377577047+374458535+370566473+369097858+369865181
3898+371745206+374083666+374917893+373221717+372412298+374003761+373867363
3885+371735865+371229381+371260516+372195746+374219665+374261387+372592036
3871+371087205+370436776+371621561+372292664+371735018+372673187+374842247
3858+376240122+374455247+367888937+366454446+371773252+376284035+377752451
3844+376424344+373834982+371057813+368712154+368903524+370960621+372847669
3831+374512935+375625038+375499625+375311892+374357184+371587213+371987339
3817+373838071+374237051+376248616+378667754+378593652+376214093+375500945
3804+375986183+373640225+372480671+374554158+376688994+378863932+380987384
3790+382155979+382316139+381808958+381221198+380981755+380475594+380651397
3777+382765409+384716821+384629144+382603904+381052121+381453716+382619746
3763+383984917+384212578+382895057+382827157+384149461+384109159+381625483
3750+381334107+384801185+386064655+384412093+386428540+390268644+391360745
3736+389166130+388700570+393089676+398780238+403108444+405752529+408144517
3723+412326810+419128354+428482595+439288239+450179019+460830132+473777985
3709+491120498+508923066+524139960+537192875+549740602+562201050+573469887
3696+582725641+589082971+590957865+587073922+582914246+583719480+584974706
3682+583566095+580273125+575811661+567108771+558308888+555907683+551743324
3669+547551616+549609834+552057766+551432918+549412809+547488349+544233937
3655+541275685+541109746+538693398+530076889+526679405+531528741+536728835
3642+539284670+539452900+538741969+538218298+538585147+539664271+537780959
3628+533642604+535928683+540902859+542877684+540328574+536323080+535917573
3615+537926523+540402850+542148271+540665832+538665550+540106094+541941333
3601+541832185+541657528+542267232+542504907+542838976+544313793+545012370
3588+542553079+541063367+543265903+545529913+546549308+547775341+549394178
3574+550412776+550693591+550380993+548124505+545458676+547444161+551174918
3561+552470744+552605349+553709481+555008247+555637778+556896740+559178684
3547+560075679+559746990+561512885+564449865+565752965+565900073+567006398
3534+569032733+570197691+570297125+571024944+572349016+572605820+572810118
3520+574572774+576896116+578473704+579124955+579317645+579469585+580085018
3507+581528301+582592730+582596965+583402497+585597212+587506529+587873776
3493+586959892+586262063+586618998+587573183+588678462+589399605+589516624
3480+590127324+592079831+594235042+594606673+592914756+591106168+591223536
3466+592737509+593874122+594782426+595785431+596287930+596412471+596379542
3453+596403006+596792820+596748832+595728391+595106980+595560858+595994660
3439+595853430+595545963+595793003+596850009+598018056+598944493+599515938
3426+599692438+599951633+599915965+599129811+598719373+599611984+600575535
3412+600310411+600108157+601288459+602768905+602599080+600799161+599726961
3399+600099787+600393306+599927323+599105251+599036753+600611303+602819618
3385+603952246+603651354+603123648+603621763+604304448+603676412+602637140
3372+602429953+602674054+603081952+603497321+603892117+605119396+606846882
3358+607568125+607415239+607296327+607562795+608038343+607695456+606647268
3345+605857627+605262070+605495610+607341759+609714718+610921074+610765596
3331+610140848+609135003+607873002+607156243+607255427+607742931+608074759
3318+608433338+608734778+608384119+608070823+608502184+609067054+609232843
3304+609116820+608984508+609118265+609414025+609200612+608168215+606870396
3291+606248487+606681143+607676277+608494861+608946697+609830142+611299081
3277+612209129+612165988+612235033+613596568+615387221+615666642+614887412
3264+614659602+614958799+615373023+616315900+617575062+617917699+617445339
3250+618194878+620297582+621284945+621346319+622587995+624232786+624677149
3237+624043433+623618150+623855974+623598373+622954046+622987224+623680919
3223+624868643+625833290+625647723+625008677+624740665+624218189+622968344
3210+621762585+621118857+620353128+619415681+618969375+618289430+616862935
3196+615988556+616148118+616288302+616084054+615764033+614994867+614027032
3183+613649174+613454242+612230002+610047791+608389599+608015926+607975923
3169+607142892+606014698+605316022+604568226+603526564+602485598+601632043
3156+601041020+600507585+599705839+598661137+597749047+596661155+594636563
3142+592236704+590487448+589218721+588194743+587647011+587151337+586060306
3129+584620510+583416147+582462560+581780771+581667140+581788244+581358228
3115+580005760+578172364+576661729+575681988+575045085+574819914+574574817
3102+573287758+571714952+571535812+571793313+570933232+569754026+569255562
3088+568896983+567805105+566238775+564892485+564060450+563902283+563628541
3075+562718693+562271341+562294057+561443889+559701059+558173437+557400086
3061+557014606+556565809+555744883+554482484+553028390+551335825+549751910
3047+549087209+548844353+547831485+546034006+544241310+542967702+541978147
3034+540875509+539944638+538946615+537235170+535353900+533592788+531724869
3020+530393274+529854060+529216061+527820551+525970716+524079035+522510911
3007+521708467+521025932+519801193+518801277+518223954+517310469+516076365
2993+514769031+513445905+512630061+512450721+512323042+511991114+511471927
2980+510480031+509057870+507915080+507242408+506721776+506305061+505630197
2966+504303683+502688533+501272350+500066293+498803944+497319362+495812763
2953+494522316+493364681+492478097+492139992+491953978+491350301+490507157
2939+489774656+488890214+487631102+486306631+485175498+484113859+482886879
2926+481534312+480284366+479023162+477438450+475849753+474799920+473997078
2912+473004036+472289070+472276715+472154914+471142792+469897978+469330867
2899+469265857+468991816+468356008+467449747+466200897+465022787+464257307
2885+463592008+462987286+462534454+461951701+461303190+460766467+460078850
2872+459111962+457946704+456816817+456086607+455575938+454935497+454300935
2858+453498491+452121215+450573665+449281426+447896777+446458475+445663753
2845+445455470+445194731+444819064+444372609+443816009+443353962+443043954
2831+442657876+441922585+441069129+440400442+439715565+439234088+439151493
2818+438943359+438468907+437953506+437351922+436746253+436196628+435594695
2804+435031919+434310825+433228562+432427313+432287827+432200250+431842219
2791+431545263+431269230+430796621+430346429+430028500+429682176+429264415
2777+428791706+428149024+427352658+426667233+426242497+426149540+426234825
2764+426117259+425787573+425351131+424800459+424309568+423960753+423652987
2750+423304022+422897420+422533162+422321442+422325228+422327968+421887291
2737+421137802+420501496+419946192+419536102+419465463+419382269+419038735
2723+418851076+418880567+418765690+418544754+418349623+418245955+418318986
2710+418300255+417844982+417174676+416695342+416404912+416222409+416116599
2696+415984959+415927845+416110945+416355718+416334297+416059410+415686060
2683+415235769+414926359+414956598+415018395+414770782+414273066+413774004
2669+413600244+413713975+413696888+413590131+413578150+413484097+413392833
2656+413528633+413678157+413603856+413397815+413196481+413043844+412964660
2642+413019957+413125568+413147039+413338683+413730066+413894834+413926642
2629+414026474+414008714+414032801+414303902+414709931+415202666+415708154
2615+416142579+416506089+416904870+417427445+417783459+417857536+417991542
2602+418216713+418421558+418785119+419377138+420062812+420674857+421097202
2588+421389824+421641148+421854761+422013775+422214037+422648437+423083285
2575+423171211+423290671+423751175+424034182+423773094+423397577+423370726
2561+423584439+423755459+423830931+423878904+423939780+423917662+423710226
2548+423544237+423578909+423593157+423575671+423617318+423545134+423278018
2534+422986791+423041091+423545532+424035826+424131424+423935446+423717499
2521+423554300+423390802+423272737+423341833+423584788+423742407+423759992
2507+423829437+424000257+424118771+424114636+424249539+424559198+424752187
2494+424854809+424938601+424853215+424661471+424547840+424455281+424381702
2480+424486964+424754678+424936209+424751888+424377019+424232452+424213621
2467+424024817+423751723+423553154+423378199+423199059+423010603+422634538
2453+422034648+421496730+421227870+421100340+420917563+420716155+420513701
2440+420205586+419898318+419642361+419209954+418540221+417866652+417456862
2426+417288109+417059476+416671356+416333973+416137124+415825621+415135439
2413+414174553+413372309+413008026+412928768+412846969+412564285+412020065
2399+411382589+410898397+410490226+409855414+409169093+408838286+408644525
2386+408041372+406932532+405482523+403653810+401399788+398792717+396021850
2372+393349420+390799388+388233989+385612820+383351077+381939153+381316895
2359+381495786+382448825+383892183+386035886+388894556+390998879+390687152
2345+388200537+385959393+385219843+385125689+385282811+385537149+385331481
2332+384811273+384907319+385743165+386342258+386356331+386705196+387819366
2318+388906362+389557463+390154066+390770271+391223252+391644874+392189194
2305+392799695+393294920+393533018+393630883+393814581+394134004+394458957
2291+394726347+395028434+395319437+395393440+395222719+395055435+395110906
2278+395209193+395176987+395305265+395642149+395789107+395706387+395679561
2264+395831078+396150152+396487011+396688469+396863126+397096890+397307265
2251+397470140+397696331+398152775+398739314+399173963+399474307+399863249
2237+400316903+400675482+401154118+401974222+402867706+403622874+404321027
2224+405036242+405793528+406499876+407084024+407756671+408768967+410095505
2210+411441795+412623667+413794254+415038247+416312054+417745922+419496648
2197+421498972+423547475+425534057+427519642+429687158+432036603+434312021
2183+436585994+439175554+442042941+445020622+448064708+451000393+453752256
2170+456542178+459399104+462162325+464911647+467663460+470105215+472189237
2156+474187327+476081350+477607677+478507014+478754253+478679578+478441057
2143+477761809+476490991+474748260+472383572+469190833+465426351+461482629
2129+457406096+452971034+448152734+443164360+438049253+432775830+427624606
2116+422926015+418594122+414343506+410100885+405998821+402060455+398202542
2102+394523619+391093654+387824946+384738366+381888141+379175210+376449949
2089+373714352+371078362+368636283+366522196+364665088+362777940+360799279
2075+358856236+357103418+355534199+353862806+351947587+350027062+348450445
2062+347187298+345893713+344418149+342829327+341338195+340008966+338626335
2048+337190923+335848817+334554609+333277290+332126155+331153638+330227873
2035+329241607+328246746+327287256+326359275+325504473+324737449+324000638
2021+323241958+322353033+321302328+320380599+319701775+318948948+318002933
2008+317040553+316157631+315298745+314367251+313417774+312610622+311892144
1994+310934970+309696383+308696342+308110076+307655626+307223069+306717955
1981+306050837+305288072+304610369+304077880+303501254+302707852+301634681
1967+300614240+300216455+300153562+299827339+299302896+298709780+298065031
1954+297555757+297146315+296619929+295894402+294910302+293711792+292959414
1940+293137010+293422807+293251214+292937968+292694041+292456915+292176149
1927+291731512+290873971+290050330+289924843+289842048+289638722+290044577
1913+290496163+290317073+290061863+290358595+290867047+291188537+291382124
1900+291354800+290957040+290455812+290213305+289963425+289452159+289437463
1886+290043431+290393690+290410528+290463384+290601425+290674755+290583342
1873+290143487+288840263+287164287+287268204+289001494+290428462+291097722
1859+291480063+291857448+292278746+292687615+292976750+292893482+292387521
1846+291678931+291619649+293218584+295097986+296065746+296720957+297485889
1832+297512192+296762080+297079661+298433573+299637911+301081493+302484351
1819+303125688+303212269+302981145+302118872+300918843+300520286+300918444
1805+301047942+300217925+298767119+298031404+298279466+298294186+297231501
1792+296363424+297800405+299905650+300830717+300834553+300678453+300757213
1778+301409435+301867797+300889027+298865731+298846427+301058453+303273917
1765+304475441+304469089+304403531+305060436+305679132+306240862+306003462
1751+303794400+301438727+301764677+303150173+303782170+303731880+303599767
1738+303826855+303069445+300635586+300774699+303690457+306543572+308271855
1724+308823199+308938176+308401204+305861335+303906063+307226182+312165238
1711+315677748+317220739+317264030+317598597+318916642+319587072+320140185
1697+323325202+329334340+335698421+340163198+343249205+345586196+346953061
1684+350049878+357427848+364961371+371176924+376512070+381880270+386733741
1670+391655186+399434329+407884699+414570545+421264984+429289971+436626843
1657+441614121+444256088+449923760+460202843+467270906+474604440+486130979
1643+496784632+504506486+509675495+512562509+517207498+526710042+535182282
1630+540914117+544975705+548143535+550708038+554027559+557542959+559100721
1616+560200868+563633274+566762845+567816962+567911115+568680232+569881855
1603+570836488+571780760+572801998+573670100+574919946+577203633+580037543
1589+583117398+586947139+591566971+596491530+601489767+606091913+610253782
1576+617032759+626487679+634564476+642881886+653715028+664781212+674898990
1562+682642066+686427421+693472718+709619137+724847837+738065695+749576043
1549+760337051+769402356+776248287+781308147+786478351+800221125+815670363
1535+826291387+835454482+844788049+852032960+857886994+864052183+869333228
1522+874254400+881598545+890216498+899320859+907900752+913552134+915443965
1508+913505007+914275569+924668184+934012362+938709957+938668808+937520339
1495+939919302+942551804+941039575+937283412+938198541+941587058+942922339
1481+942005417+940390466+937579421+931970185+924407744+920469053+922624114
1468+924594157+922521692+919679661+919859499+919190264+913732071+911388205
1454+918444113+926623979+933300385+938478808+944000766+951000381+958935848
1441+966580885+971545795+973960699+979181068+987309624+993867267+999281024
1427+1005194938+1009509842+1011996084+1013669419+1013048606+1013624086
1416+1018768435+1023188054+1025070320+1026523766+1026962350+1025027279
1404+1023541153+1024240278+1023531389+1020689558+1018318592+1017090317
1393+1018105378+1019787481+1018134969+1012338123+1008768673+1011086235
1381+1015612960+1018588697+1018815462+1016462928+1014354396+1015003106
1369+1016783348+1018463857+1019272977+1017652945+1015594428+1015978513
1358+1016972750+1017079557+1016626625+1015549394+1013646105+1011553613
1346+1009832354+1008850671+1007819868+1005015997+1001748036+1000615707
1335+1001174449+1002399436+1003355514+1002905671+1002036373+1002803647
1323+1004861566+1007027985+1009368065+1012236697+1015310075+1018238388
1312+1021394661+1024602444+1027926598+1031990826+1035936392+1039476052
1300+1043412252+1047054335+1049718421+1051911841+1054036713+1055976966
1288+1057403510+1058599704+1060048965+1061686034+1062978673+1063135395
1277+1062422123+1061429081+1059913863+1058134816+1056505917+1055178507
1265+1053948837+1051976602+1050214892+1050663938+1052486225+1053647646
1254+1054003635+1054278024+1054863567+1055861591+1057241009+1059022546
1242+1060227607+1060159956+1060436737+1061809081+1062950975+1063291122
1231+1063281656+1063302878+1063353591+1063436386+1063807918+1064415878
1219+1065044662+1065745082+1066573928+1067764841+1069187799+1070098046
1207+1070665157+1071129048+1071374643+1072251015+1073422400+1073598451
1196+1073518147+1073741823+1072994078+1071428545+1070835031+1070840212
1184+1069941423+1069395335+1070420757+1070893715+1069106001+1066419696
1173+1064528065+1063372821+1062360649+1061012715+1059064691+1057469069
1161+1056308843+1054457164+1052193603+1049823434+1046847796+1043185487
1150+1039123152+1035579706+1033116978+1030261796+1025998700+1021442684
1138+1016512147+1010877703+1005810769+1000788171+994253145+987209593+981352569
1124+976108188+970415260+964478729+958653688+953163213+947890437+942587672
1111+937743417+933958859+930986210+927595799+923161534+919021685+916748658
1097+916125853+916138905+916666561+917837049+919134469+919810977+919948969
1084+920537601+921637947+922283170+922722452+924655929+928292732+931403771
1070+933249771+935450663+938318100+940909853+943284106+946087380+948987496
1057+951308048+953581473+955870441+957203330+957836498+958206734+958559634
1043+960131244+962639206+964335258+964750428+964841293+966189427+968577331
1030+969853430+969476917+968667200+968686329+969880629+971088679+971376818
1016+971388076+972199686+973964585+975446924+975478807+974751785+974442823
1003+974300946+973833966+973272335+972581480+971696739+970948496+970051500
989+968133067+965467088+963342116+961716505+959777448+957560116+955344478
976+953511331+951951178+950063433+948072268+946345329+944936220+944092030
962+943762245+943578821+943148805+942525501+942428458+942616566+942508364
949+943134657+944979262+947013368+948377942+948945052+949807774+951829726
935+954117598+955863367+957530824+959286556+960615959+961998665+963866783
922+964808813+963698802+961790731+961158062+961482666+961198114+961157165
908+961641581+960730935+958757804+956900347+954743293+952439679+950245861
895+948381827+947919231+948470999+947967753+946168481+945013037+945131202
881+945500541+946180636+948088807+951050795+953751546+955565763+957695418
868+961600930+967263770+973173599+978014267+981616297+984088291+985430347
854+985747578+985814930+985416000+983435695+981405673+981431578+983130718
841+984475465+983829743+981799024+980858589+982710965+983913634+980862076
827+977526563+977555756+979450775+981463261+983172664+985180966+987319089
814+988935136+990922316+993260701+994448227+994582432+994931746+995955674
800+997608684+999836178+1001673709+1002077123+1002932173+1006212788+1009917740
787+1012894673+1016407433+1019707875+1022219124+1024549838+1027377421
775+1031771933+1035098976+1034380324+1032477832+1032455415+1034060303
764+1035964887+1037454898+1038294305+1038005868+1038490682+1041765120
752+1045108603+1045505740+1043752399+1041663693+1040181653+1039587143
741+1039626996+1039520389+1039284956+1039538123+1039247295+1036952249
729+1033985578+1033479144+1034097466+1032051802+1029967081+1030294575
718+1029681832+1028154658+1027860940+1026945512+1024670792+1023116916
706+1022499590+1020920607+1017212069+1013362550+1011193540+1009147776
694+1007705888+1009319444+1012506702+1013750720+1012924563+1011868553
683+1011360824+1013105895+1016677637+1018573852+1017407748+1013411171
671+1007659160+1003468498+1008621714+1018954649+1022586470+1021394960
660+1020947508+1021081415+1019550554+1017172315+1016275818+1018137061
648+1022353230+1023416413+1017633915+1013379487+1017700470+1024975968
637+1028849797+1032258640+1036665107+1035142416+1023053450+1010224012
625+1010753760+1017652546+1014025209+1003870417+998006419+995441866+991316862
611+986565964+985365187+990229368+999646677+1007845175+1009160430+1005678357
##END=
