##TITLE=Sample description
##JCAMP-DX=4.24
##DATA TYPE=INFRARED SPECTRUM
##DATE=24/8/2023
##SAMPLING PROCEDURE=Instrument type and / or accessory
##ORIGIN=Default
##XUNITS=1/CM
##YUNITS=ABSORBANCE
##RESOLUTION=4
##FIRSTX=4397.6552
##LASTX=599.8556
##DELTAX=-1.9287962
##MAXY=1.3758004
##MINY=0.33852524
##XFACTOR=1
##YFACTOR=1.2813139e-009
##NPOINTS=1970
##FIRSTY=0.41098025
##XYDATA=(X++(Y..Y))
4398+320749069+320468842+320523199+320477587+320438884+320708970+321236488
4384+321653014+321447635+320878599+320726251+320696921+320183707+319757832
4371+319843402+320064807+320254508+320374479+320297143+319791488+319126647
4357+319299998+320044129+320032872+319348307+318981603+319052334+319053032
4344+319055148+319422178+319569921+318539446+317036251+317000036+318411985
4330+319212287+318715169+318148482+317877164+317237350+316726090+317012526
4317+317490991+317596797+317366903+316903348+316533434+317034530+318284758
4303+318993046+318974741+318848142+318417916+317655736+317273843+317540603
4290+317834506+317798361+317770427+317830529+317935381+318358024+318885170
4276+319228174+319472302+319059707+317988924+317529439+317868255+317918588
4263+317308802+316726299+316707878+316993942+317203670+317292986+317150291
4249+316751279+316546529+316604607+316366177+315759949+315436577+315954396
4236+316816800+316821150+315772300+314816859+314950274+315988308+317084490
4222+317575445+317348389+316772841+316221737+315952373+316002101+316000007
4209+315767230+315750343+316414207+317351622+317515855+316723182+315933184
4195+315691847+315584715+315496679+315965188+316864877+317110564+316142586
4182+314931015+314559194+314771550+315238874+315979912+316419673+316255603
4168+315870756+315466511+315102296+315253853+316141912+316842874+316644892
4155+316234669+316298074+316466540+316370108+316154193+315903668+315743598
4141+315577528+315242084+314927736+314448922+313951222+314106268+314531143
4128+314631065+314693143+314818231+314876752+314752199+314117432+313506250
4114+313644549+313961177+314004462+313975853+313648062+313050952+313046207
4101+313724282+314187675+314259988+314002136+313377278+313038345+313107960
4087+312852621+312223762+312218087+313078421+313598543+313479526+313316688
4074+312954682+312464425+312235927+312219529+312249114+312264791+312422535
4060+312676921+312609492+312316566+312337267+312544809+312450516+312176499
4047+311965980+311853871+312003707+312228414+312050574+311699314+311564759
4033+311309025+310970441+310810464+310556194+310464577+310751013+311049336
4020+311305978+311246574+310712217+310450505+310809045+311133790+311123742
4006+311107902+310977232+310572150+310242428+310122387+310150205+310388240
3993+310664861+310734639+310601503+310310368+310050656+310039515+309862024
3979+309358625+309398468+310175069+310682980+310435526+309847185+309461036
3966+309503879+309638526+309421472+308943588+308772889+309075119+309059140
3952+308425211+307663659+307071456+307119859+307255064+306775134+306985235
3939+308123772+308754561+308312101+307115579+306422595+307178914+307947979
3925+307688895+307892180+308615099+307819123+306191910+306309485+307715271
3912+308672828+309144129+309216000+307571250+304317941+302404454+302656862
3898+304432422+306998260+308186851+306569709+305530186+307029101+306988258
3885+305248983+305058513+304796638+305122825+306566778+306431294+305052419
3871+303391039+302331838+303264206+303328937+302523052+304040668+306446366
3858+307704944+306359679+300096282+297709331+302492466+306865682+308259210
3844+307035125+305134920+303542363+301566681+301350138+303367082+305105171
3831+306331023+307349683+307683080+308005220+306574849+302270481+301868562
3817+303632353+304220833+306823374+310083265+310860215+308341757+306416152
3804+306262362+304461171+303932466+305722237+307430113+309592566+311561061
3790+312285817+312114839+311338913+310668234+310834095+310530702+310122411
3777+311475072+313146338+313309617+311507612+309800294+310001556+310967673
3763+312133679+311957561+309726190+309210767+311068129+311206498+307039731
3750+304256071+306746898+308357782+307346822+308980059+311996683+312324335
3736+308538879+305497786+308151473+313063326+316364781+317093724+317120240
3723+318376166+320502963+323340561+326915731+330286150+332034520+335821534
3709+348262572+366779258+388125425+412739693+441074409+467491637+487360985
3696+501340827+510152291+512940603+508812841+502392142+498668299+494453502
3682+487223848+477979530+467452236+451149405+435924732+431344160+425391017
3669+417225181+414727470+413739280+411343630+408412880+405032250+399609230
3655+395043731+393688185+389595894+379705366+375513897+378850893+382088386
3642+382628883+381190093+379224599+377213423+375706739+374869804+371272468
3628+365744899+366062247+368512765+368797342+365976956+362430674+361911040
3615+362370014+362202059+361913645+360648694+359822226+360960902+361751412
3601+360542609+358390785+356552705+355105844+354845085+355694231+354736092
3588+350517038+347813460+348891314+350632334+350637777+348912922+346925750
3574+345472609+344392080+342712185+338885490+334756031+334633804+336167585
3561+336252411+335536098+334979831+333758607+331584734+329790566+328784583
3547+327093291+324592091+323255409+323196656+323094688+322349557+320907510
3534+319274366+317930706+316597443+315009492+313388233+312040014+311327865
3520+310925783+310048725+308970220+307926208+306317300+304282005+302813071
3507+302118715+301051002+299202478+297758943+297045420+296398699+295410346
3493+294158699+293040211+292040950+290749274+289239637+287794636+286536919
3480+285917946+285745688+285102641+284022857+283102537+282254879+281201331
3466+279981480+278692153+277426458+276186952+274926909+273966514+273404874
3453+272764386+271944337+271081398+270172033+269492888+269179587+268957857
3439+268406149+267540396+266858134+266273258+265548037+264861728+264295390
3426+264201632+264689563+265064502+264970674+264798044+265112020+266075439
3412+267121219+267897587+268621297+269149931+269349565+269687126+270358828
3399+270890114+271205276+271743471+272494277+273476582+274672523+275375160
3385+275540114+276126851+277338352+278375456+279039366+280107614+281885035
3372+283606750+284550584+285090011+285885011+286886923+287884161+288671973
3358+289240335+289853912+290408830+290962375+291804846+292631664+293120107
3345+293401636+293662883+294271646+295106558+295255579+294905784+294820772
3331+294564014+293870053+293081845+292249980+291432211+290618395+289767318
3318+289102384+288681765+288359416+287959102+287521178+287651779+288471642
3304+289071589+289198259+289871124+291442701+293043328+294395943+295851736
3291+297471622+299131328+300524530+301493298+302061450+302301253+302507841
3277+302837121+303143352+303145352+302758714+302430690+302418270+302174932
3264+301344393+300442890+300273959+300799988+300810246+300058230+299690479
3250+299864783+299696735+298898154+298167979+297817370+297446827+297348627
3237+297777806+298067778+297927688+297646345+297180510+296653480+296563816
3223+296518646+295751837+294771742+294409364+294594111+294924531+294948395
3210+294557501+294128090+293853771+293890753+294251969+294529846+294720781
3196+295179801+295748186+296105447+296388372+296762891+296892701+296598542
3183+296405328+296299382+295856015+295691247+296097143+296383557+296473082
3169+296519739+296308383+296022946+295998943+296035274+295912628+295814847
3156+295882694+296120984+296288241+295977893+295438420+295212736+295269930
3142+295417905+295474192+295183569+294833541+294954582+295345406+295430837
3129+295182825+295115280+295414137+295701109+295912744+296139917+296170456
3115+296000920+295959240+296257562+296606380+296799385+297001856+297080007
3102+296996343+297153041+297628854+297915291+297787714+297679303+297892264
3088+298433064+299123489+299575206+299585789+299426789+299616096+300161291
3075+300477825+300378276+300300707+300304684+300150010+300052694+300033435
3061+299702504+299046687+298538125+298434994+298355401+297989139+297567496
3047+297425382+297509557+297514581+297310715+296920263+296702045+296998251
3034+297223749+296893468+296662760+296928659+297204211+297122967+296865138
3020+296974433+297704656+298366496+298094921+297217817+296679437+296711116
3007+297101359+297566054+298015561+298866801+300222021+301798110+303540153
2993+305287639+307096158+309420123+311976889+314076589+315880083+317724351
2980+319262923+320094671+320155099+319474465+318365583+317402955+316792936
2966+316199292+315327538+314382447+313762799+313390373+312999875+313040299
2953+313800502+314756943+315754135+316844293+317762379+318393866+318846141
2939+319158582+318997954+318293573+317496434+316791541+316037129+314926108
2926+313490434+312321334+311632537+311113368+310558590+309961131+309315526
2912+308667362+308153427+307732738+307299722+306930087+306639417+306443388
2899+306509003+306646139+306374588+305866747+305702537+305765616+305712027
2885+305693442+305763174+305722516+305427264+304945729+304614402+304414396
2872+303938862+303170797+302561779+302470882+302631556+302550707+302218799
2858+301762151+301176299+300554953+299973520+299410391+298982446+299047641
2845+299609978+300071045+300121076+300065440+300174409+300353017+300489920
2831+300642198+300802617+301075889+301640599+302257595+302596668+302729803
2818+302886686+303185334+303554923+303818287+303968820+304073719+304115586
2804+304181874+304364552+304688157+305191486+305696071+305986252+306179560
2791+306437690+306676283+306781554+306905967+307302374+307850779+308250185
2777+308534203+308832712+309133174+309426612+309678369+309882027+309957875
2764+309836718+309890354+310440201+311282974+312009870+312327544+312439002
2750+312705809+313103634+313594821+314197490+314695516+314884357+314932550
2737+315159141+315549896+315952419+316419347+316958635+317401746+317779173
2723+318322600+318904033+319201402+319357960+319664330+320034825+320311331
2710+320468353+320511569+320489636+320423579+320353174+320378364+320577881
2696+320934444+321267586+321381230+321251397+321163152+321474988+322051955
2683+322393005+322295525+322013368+321819945+321798639+321844646+321826481
2669+321872045+321988574+322048606+322182904+322379166+322455572+322527606
2656+322769943+322988021+322973205+322833185+322712819+322680465+322742125
2642+322925431+323174420+323296601+323359564+323471324+323562779+323705288
2629+323938508+324101555+324139816+324243762+324578927+325027178+325336618
2615+325452007+325479011+325540973+325673341+325724581+325800267+326095681
2602+326228840+325921819+325511853+325333408+325384160+325401976+325219229
2588+325018293+324936071+324789957+324453280+324060433+323796092+323742735
2575+323806233+323798371+323559174+323119715+322790760+322669440+322519116
2561+322316924+322200628+322165856+322141712+322077052+322021579+322085542
2548+322197511+322124663+321827295+321590563+321630964+321800756+321985992
2534+322258520+322495089+322566542+322636482+322836511+323030004+323060660
2521+322976927+322973345+323207123+323525122+323655118+323628998+323590551
2507+323627044+323774601+323901410+323901479+323860148+323860683+323853682
2494+323755737+323574199+323388614+323270341+323260572+323280366+323201262
2480+323094525+323078081+323166233+323336700+323434900+323407478+323467905
2467+323590388+323510004+323350213+323412432+323598017+323718383+323860869
2453+324023776+324076109+324154679+324357104+324510172+324596976+324678057
2440+324702340+324816007+325155871+325446959+325560534+325689553+325724767
2426+325606704+325618775+325880650+326279034+326598475+326738356+326810878
2413+326936548+327184723+327469043+327695658+328032776+328540385+328907415
2399+328952654+328904298+328957399+329064810+329167941+329232811+329245813
2386+329128005+328645330+327742502+326494879+324738415+322376444+319650491
2372+316851503+314146762+311693476+309520300+307647354+306525028+306300414
2359+306639184+307816309+310062611+313289010+317307453+320442164+320752534
2345+318574195+316455981+315598182+315412457+315778068+316663522+317488340
2332+317859068+318217841+318997535+320047013+321162128+322410682+323830539
2318+325254024+326564703+327685656+328600998+329497221+330533069+331645045
2305+332621814+333260209+333618075+333988943+334435124+334796479+335109198
2291+335476647+335886916+336345168+336797722+337033896+336921461+336617789
2278+336405340+336453812+336683357+336895667+337074716+337225575+337268093
2264+337259208+337347291+337576789+337803543+337912210+337978150+338136265
2251+338417027+338615637+338612381+338622452+338752750+338857859+338960594
2237+339215631+339505720+339636623+339651485+339696771+339848049+340002699
2224+340070034+340162908+340343981+340548104+340723013+340815538+340845426
2210+340921693+341103952+341341684+341497730+341555948+341669290+341914976
2197+342276750+342647478+342860858+342923239+342967990+343090473+343327647
2183+343655671+344007582+344309208+344586736+344906038+345254763+345673708
2170+346148009+346447099+346513434+346722465+347284290+347886750+348303508
2156+348526471+348558754+348651605+348996702+349343822+349447232+349416483
2143+349374501+349276184+349118859+348916713+348655559+348315533+347821159
2129+347151341+346441122+345796679+345133048+344330071+343328670+342203646
2116+341233087+340525589+339789436+338859045+337964124+337143912+336233455
2102+335296179+334384000+333516223+332783442+332134162+331455413+330657762
2089+329741536+328888994+328231480+327703868+327140880+326462339+325789125
2075+325221159+324724831+324260299+323745387+323091083+322425870+322031697
2062+321852740+321554092+321095677+320598582+320091415+319646978+319275599
2048+318918594+318618550+318376585+318059725+317611869+317117379+316650288
2035+316248346+315963281+315791512+315606718+315281996+314849422+314471949
2021+314192303+313860278+313452615+313110193+312820802+312488056+312143448
2008+311802887+311422716+311050452+310698145+310313252+309934546+309582704
1994+309096099+308412069+307883179+307710735+307669520+307580623+307348403
1981+306948276+306539891+306309043+306263804+306266944+306091058+305504275
1967+304727279+304411466+304574513+304645802+304476173+304216158+303886506
1954+303536316+303256717+302985817+302596877+302063916+301304248+300739584
1940+301059956+301661858+301829021+301743428+301682814+301694932+301689001
1927+301451525+300756773+300072674+300058206+300128077+300077023+300558395
1913+301133665+301152923+300986876+301240168+301774199+302193912+302476255
1900+302699845+302700659+302446623+302428225+302671492+302659723+302827957
1886+303542409+304234487+304732675+305143967+305525907+305916521+306229753
1873+306224310+305305502+303754533+303754394+305453477+306880824+307481120
1859+307807400+308158916+308542135+308906978+309110915+308953404+308370552
1846+307283487+306569128+307821263+309621059+310392938+310705309+311150676
1832+310819744+309384117+308876974+309781989+310782506+311974935+313195856
1819+313921752+314303203+314512955+314292853+313866931+314188024+315223174
1805+316057411+316066506+315399153+315286299+316197664+316870529+316271117
1792+315675426+317354739+319774392+321054438+321384161+321545649+321951708
1778+322752941+323147951+322125687+320323263+320912650+323858985+326661694
1765+328254413+328493611+328752090+330110101+331647091+333059855+333666059
1751+332319770+330584030+331400684+333626355+335299063+335977208+336488608
1738+337754164+338240629+337030500+338270843+342133683+345706224+348012605
1724+349228828+349996963+349735855+347107404+345359034+349282766+354523294
1711+357860057+359039252+358786866+358981918+360272989+360321717+359142173
1697+360582778+365306137+370894041+374614674+376373813+377105035+376481526
1684+376465617+381664115+387966867+392415536+394873939+396803754+398943878
1670+401081537+405484083+411226218+415212238+418240864+422727235+427498532
1657+430323268+430184596+430486408+436368656+441197124+445868779+455212088
1643+465307320+472857485+477753172+480801056+486881147+498301874+508477816
1630+516326024+523111473+529242595+535102515+542203592+549285410+554426110
1616+559745765+567367429+574435059+579678378+584557458+590152130+595537051
1603+600432970+605629585+611197695+616385750+621152162+626112510+631475334
1589+637155228+643113674+649316946+655472257+661298452+666103893+669498478
1576+674765243+683352116+690487151+695711398+701870710+709198098+716364301
1562+721895568+723443281+725096126+736423583+749354110+760259088+769193547
1549+777879504+785479816+790613678+793812839+799291960+817346579+836562669
1535+848990519+860052124+873486166+885766738+895433164+903380549+909932197
1522+917995135+930678463+943976299+955582076+965924321+974136024+979142331
1508+980386698+985354209+1000364480+1013393533+1021702831+1025784912+1028973561
1495+1034780636+1039253471+1038537274+1036402545+1041496587+1049535055
1483+1053984445+1054572809+1053783765+1052035418+1047747075+1041314142
1472+1038387764+1042022058+1045477816+1044256150+1041098296+1039481411
1460+1036052820+1026675553+1020618023+1025772724+1030470801+1030713069
1449+1028194471+1026959222+1027711331+1028159303+1028194657+1027258800
1437+1023957019+1022785314+1025243903+1026347784+1026978108+1029490659
1425+1030442332+1029222620+1027922524+1024363124+1021159590+1023581802
1414+1026782545+1027445618+1026951407+1025925211+1022699255+1018677834
1402+1017370854+1016319446+1013565186+1011322535+1009719232+1009885489
1391+1011153487+1008464818+1001637688+998901570+1002054120+1006562588
1379+1009345504+1009044530+1006688932+1005620870+1006185976+1005715303
1368+1004829593+1004701481+1003777719+1003082456+1004604258+1006809880
1356+1007701172+1005899329+1002242334+999228222+998356561+998588780+998132249
1342+996232252+992626985+990279947+992206552+995711619+998232077+1000132818
1329+1001759566+1002441060+1002099057+1001811387+1002926805+1006048374
1317+1010065422+1013259374+1015747735+1018482178+1021189269+1023561892
1306+1026007828+1029016730+1033088576+1037473491+1040540448+1042397648
1294+1044736127+1048136806+1051939683+1055403814+1057012140+1056482575
1283+1055859322+1056159923+1056903845+1057726290+1058457931+1058370570
1271+1056815646+1055129355+1054822427+1055231975+1055227416+1054645099
1260+1054477912+1055745910+1057419083+1057891523+1057268084+1057006186
1248+1057915527+1059324848+1060548653+1061157858+1061256570+1061286621
1236+1061142693+1061486557+1062738831+1063988501+1064673624+1064284823
1225+1062678823+1061688074+1062806283+1064978877+1066691684+1067182918
1213+1066529242+1065671071+1065539796+1066083782+1065605759+1063959194
1202+1063473450+1064142756+1063405626+1061004998+1059197294+1058720016
1190+1059290889+1060061606+1059015873+1056394841+1054390550+1053889454
1178+1054105765+1053752690+1052699607+1051853066+1050978986+1048823789
1167+1046031012+1044362956+1043523206+1042004288+1039875328+1038103164
1155+1036928017+1036556149+1036568058+1035966947+1035245633+1035070910
1144+1033960982+1031250914+1028724687+1027095335+1026311872+1025921118
1132+1024420342+1022101401+1019908618+1017748769+1016155236+1015423409
1121+1014382607+1012021334+1009491664+1008221992+1007154674+1006306923
1109+1007675680+1009038389+1007212171+1004834524+1005243048+1007318140
1097+1008663265+1009820735+1012067573+1014851233+1017324522+1019477392
1086+1022409725+1025943074+1028633977+1030972641+1033730995+1036233405
1074+1037711852+1038110049+1038740187+1041680986+1046541412+1050597070
1063+1052686024+1053087850+1053068684+1053923320+1053940439+1052882890
1051+1054258624+1058183287+1060973831+1060637782+1058552084+1057812163
1040+1059804173+1062691197+1063415302+1061629461+1060006807+1059783333
1028+1060252889+1061554380+1063457912+1064052882+1063009568+1061594665
1016+1060605033+1061059611+1062690452+1064178389+1065310367+1066278601
1005+1066745738+1065796112+1063284864+1060996346+1061205400+1063452423
993+1064649620+1063228019+1060855488+1060457198+1061747525+1061223356
982+1058543432+1056643249+1056583148+1057260734+1057626369+1056610314
970+1055011013+1055795871+1057752806+1056793225+1053299322+1050186220
959+1048495649+1047913983+1048304272+1049297905+1049917529+1049151558
947+1046884810+1045032076+1045184005+1045963095+1045248108+1043810132
935+1043914519+1044770829+1044728404+1045057010+1046476286+1047567607
924+1047808014+1047428610+1046496289+1046152146+1047260400+1048256730
912+1047074977+1043970341+1040599619+1038630124+1038901047+1039775872
901+1039875328+1040071450+1040522957+1040467600+1039435544+1038045574
889+1038075067+1039666275+1040551240+1039861838+1039448383+1039646365
878+1038423583+1036163162+1036008814+1037468654+1037131581+1036153114
866+1037648215+1041310420+1045367102+1049462673+1053883965+1056491320
854+1056148294+1055837086+1056870352+1057610366+1057695495+1058195195
843+1058872224+1058525848+1058457094+1060511811+1063053575+1063459308
831+1061160463+1058360057+1057710939+1057350980+1054613839+1052506556
820+1054371757+1058071270+1060244423+1060841998+1061452784+1063160195
808+1065356141+1066538825+1068209299+1071943330+1073741823+1071058085
797+1067647357+1065316787+1063231182+1061992211+1061545542+1061367749
785+1061298250+1060000015+1056954829+1054485634+1055017804+1058169145
773+1059909677+1056401447+1050463190+1047121403+1046608398+1047724467
762+1050244368+1052742683+1053552382+1053258107+1052627504+1050257486
750+1047348226+1047699161+1051167943+1054431580+1054905974+1053139299
739+1051885071+1052102405+1052459945+1049951302+1045124369+1043260750
727+1044753152+1046652125+1048170857+1048007392+1046904069+1046921188
716+1046204805+1044368910+1045056359+1047619149+1048093358+1047251561
704+1046188988+1043912565+1043785291+1047703162+1049895015+1046634821
692+1042175662+1041147978+1041992752+1040189420+1036750131+1036144555
681+1038039341+1039147595+1038895930+1039761265+1043093284+1043294987
669+1036543589+1035925267+1045779906+1052118407+1054768466+1054946073
658+1050263626+1045369149+1044499813+1045818981+1045419388+1043164364
646+1045097946+1051080210+1054600534+1055267887+1054623980+1048440199
635+1037119580+1031826068+1035396818+1038432049+1035882005+1028620486
623+1020506100+1015962371+1014246215+1010424544+1006528816+1010039651
611+1019062821+1026278658+1025869855+1015573012+1003689427+1005537137
600+1021880532
##END=
