##TITLE=Sample description
##JCAMP-DX=4.24
##DATA TYPE=INFRARED SPECTRUM
##DATE=24/8/2023
##SAMPLING PROCEDURE=Instrument type and / or accessory
##ORIGIN=Default
##XUNITS=1/CM
##YUNITS=ABSORBANCE
##RESOLUTION=4
##FIRSTX=4397.6552
##LASTX=599.8556
##DELTAX=-1.9287962
##MAXY=1.3334807
##MINY=0.13831621
##XFACTOR=1
##YFACTOR=1.2419007e-009
##NPOINTS=1970
##FIRSTY=0.17628287
##XYDATA=(X++(Y..Y))
4398+141946026+141876817+142077771+142345725+142137536+141690190+141640659
4384+141860427+141795730+141593433+141575099+141617970+141799426+142215696
4371+142563561+142801879+143078928+143399545+143913340+144418292+144512362
4357+144305373+144066971+143869401+143517660+142891221+142142804+141471310
4344+141198964+141379760+141414184+140811263+140007796+139676284+139715424
4330+139725491+139663890+139730962+139843306+139487545+138673627+138022267
4317+137783014+137879219+138128408+138199548+138070682+138056452+138198216
4303+138213226+138102262+138059451+137970037+137774699+137669746+137731959
4290+137960042+138271852+138589973+139041747+139472667+139627654+139632969
4276+139558470+139513798+139594790+139576983+139316696+138846888+138456031
4263+138433270+138468666+138229964+138037890+138170739+138369365+138407977
4249+138307224+138213010+138226653+138277323+138254610+138057663+137894925
4236+137980800+138112605+138110626+138091032+138281811+138396794+138287078
4222+138559016+139037187+138993596+138641615+138682734+139383601+140134262
4209+140227408+140103113+140334904+140538341+140519899+140594927+140700887
4195+140584056+140317842+140105393+140008288+140136662+140460314+140479464
4182+139997093+139722911+140024462+140334412+140512580+140584368+140232423
4168+139835315+139733914+139552998+139206752+139049558+139243720+139506467
4155+139565801+139434871+139073039+138605211+138495483+138668948+138592972
4141+138449276+138578970+138616586+138388863+138294313+138424907+138449192
4128+138290726+138176090+138242407+138409705+138513361+138542854+138619741
4114+138721502+138711867+138595168+138372857+138114825+138211798+138650410
4101+138882392+138904530+138978190+138944473+138934299+139307757+139827420
4087+140052647+139982875+139896016+139898308+139696214+139128605+138739920
4074+139012674+139574932+139944647+140194291+140308939+140105729+139994477
4060+140288085+140420262+140069073+139728287+139734166+139873783+139873279
4047+139563653+139182791+139335906+139850733+140042100+139886285+139650811
4033+139356436+139108135+138978466+138800045+138682554+138670220+138443061
4020+138145554+138015896+137939356+137968609+138015464+137782306+137439312
4006+137275050+137133934+136943503+136756839+136445954+136176079+136184179
3993+136172180+135948321+135790166+135663196+135370284+135177382+135199471
3979+135095959+134781522+134623895+134775090+134916507+134922518+134990094
3966+134943456+134259723+133336377+133279528+133996412+134419174+133908270
3952+132627712+131160298+130610399+131288588+131411274+130651038+130922772
3939+131998273+132155552+130670788+128297090+127372617+128612104+129482619
3925+128949518+128986762+129485151+128582803+127530915+128693287+130992520
3912+132356998+132259796+130183870+125474822+120631906+119435530+121149276
3898+124361669+127408325+127750683+125518689+125107255+126504548+125395811
3885+123111468+122563920+122608375+124671211+126876219+125477750+122119717
3871+119343128+118724488+120291851+120206781+119800350+122491484+125181767
3858+124981185+120228090+111374617+111849140+119988441+125693882+126885746
3844+124578365+120753524+116433174+113534474+115182240+118802144+121371612
3831+123207421+124284926+124408248+124030218+120799191+115566402+116007437
3817+118845483+121566050+125853848+128765363+127909749+124128655+121833177
3804+120621959+118099190+118863745+122169368+125272201+128692495+131238157
3790+132081652+131536648+129901097+128790752+128706809+127728845+127490575
3777+130022608+132266648+131795340+128993001+126980068+127131035+128218187
3763+129534382+128747557+125938787+125332506+126041532+123400900+116565711
3750+114362287+118366556+120591794+120760267+123415286+125956449+124377724
3736+118995862+117494216+123363584+130245003+133747884+133619066+132635451
3723+133423308+136094872+139752908+142607680+142860900+139988226+139878354
3709+149398630+163306508+177079270+190683858+205238369+218084557+225894926
3696+229005966+228116289+223195488+217251082+217378004+222106297+225756125
3682+226680071+225292041+222087483+217729397+218393835+223004518+225760661
3669+231082361+239798149+246758388+251014677+254031984+256291622+257837699
3655+260638694+263476188+261757858+257548123+263441272+275332341+284969268
3642+291723850+296704571+300416817+302921060+305046961+307046564+307217329
3628+309339750+318095590+327159173+332086860+332768049+333828515+338501351
3615+343904810+349221254+354505926+358464384+362956784+368980934+374013633
3601+377371270+380376746+383163702+385777565+389732808+393834242+394547732
3588+392920567+395837253+402196238+406829574+409249466+411106909+413007691
3574+414701136+415956005+415185402+410831036+407993733+411539005+416403556
3561+419490478+421914547+424014170+424710094+424590395+425072837+425437165
3547+424491574+423837022+425524755+428319774+430009572+430274070+430647853
3534+431369405+431191105+430116216+429641644+430242538+430898481+431728406
3520+432845818+433404380+433070625+432267962+431744148+431306436+430463602
3507+429618415+428698549+427895645+428223401+428754126+428305856+427957990
3493+428208043+428013136+426902587+425788630+425701664+425788102+425320490
3480+425223973+425513813+425312043+424239170+422536270+421492145+421727511
3466+422131339+421877111+421026117+420141287+419545816+419005636+418545991
3453+418164097+417309696+415352136+413449722+413378162+414393154+415185210
3439+415401618+415199033+414968322+414683282+414630152+415285135+415959365
3426+415950918+415707969+415635737+415752604+416483179+418204557+420409433
3412+422438025+424146444+425562863+427269171+429507787+431219278+432101133
3399+433435385+435972529+439036942+441862725+444340788+446584300+448702881
3385+450917453+453392251+456011514+458487800+460701459+463157684+466051764
3372+468655524+470640440+471931642+472308160+472538871+473535672+474781807
3358+475750196+477314487+479851294+481777177+482171550+482217145+482408884
3345+482062074+481315708+480852224+480664468+480271872+479545424+478520209
3331+477393342+476441319+475577895+474751330+473894721+472943994+472110806
3318+471530166+470947750+470302318+470292527+470870095+471388966+472397094
3304+474153460+476163190+478565708+481432192+484676921+488236735+491402465
3291+494153905+497785376+502397282+506106984+508067039+509530206+511241073
3277+512890890+514212376+515288945+516824151+519090029+521109838+521993612
3264+522066660+522003691+521822655+521840653+522801267+523724157+522960081
3250+522036135+523108577+524601068+524817380+524938758+525434496+525042571
3237+523556895+522084802+521044517+520672942+521240431+521786083+521816272
3223+521728729+521398574+520923234+520525310+519937855+519157941+518480352
3210+517709654+516849781+516740737+517625135+518463410+518260729+517414294
3196+517332079+518488367+519834379+520453942+520182244+519348576+518873765
3183+518820155+518588292+518470417+518488415+518057855+517025777+515890463
3169+515398853+515469597+515549076+515455103+515060442+514509319+514318060
3156+514658583+514725391+513647863+512239026+511593834+511234113+510502674
3142+509536685+508602468+507847608+507517884+507426934+506802091+505555957
3129+504215945+503087158+502507526+502527396+502210631+500671777+498692764
3115+497632417+497528460+497553082+497289735+496872517+496057615+494376697
3102+492362983+491064583+490657636+490504821+490283421+490053863+489703021
3088+489564029+489734890+489234305+487948383+487138089+487367935+487992250
3075+488714859+489710796+490359589+489807218+487895973+485142469+482344283
3061+479714893+477018167+474234955+471596015+469272976+467191110+465320133
3047+463812283+462919342+462810154+463157204+463401545+463381099+463242298
3034+463211246+463296436+462947227+461814840+460504201+459678308+459258691
3020+459104100+459400467+460253909+461700805+463625440+465778098+468350710
3007+471656536+475493520+479679905+484511003+490424910+497860536+507605666
2993+520402732+535667349+551722198+566531441+577654931+584236252+588204021
2980+591435504+593564405+593241064+589648998+582415093+572399320+561529338
2966+550953083+541704457+534562607+528914639+524552017+522006907+521150681
2953+521345156+521881832+522504180+523484759+524742268+525657479+526068938
2939+526344955+526296096+525287920+523109345+519961181+516027200+511604008
2926+507187201+503074343+499002425+494205692+488586425+483061036+478227682
2912+473988262+470274481+467035655+463752002+460098406+456498900+453561192
2899+451604161+450401798+449541349+448910266+448480522+448092389+447642151
2885+447137582+446389777+445016889+442727110+439590225+436086180+432675389
2872+429296994+425602603+421746709+418132037+414992752+412546222+410594854
2858+408740771+406886352+404762107+401869154+398133703+394187795+390745472
2845+387710527+384652137+381575342+378564730+375768367+373341852+370952868
2831+368354291+366060504+364597050+363574547+362432298+361189811+359879340
2818+358593874+357541326+356608189+355552930+354220285+352775765+351607982
2804+350703978+349794550+348788510+347592674+346141194+344647767+343330985
2791+342188807+341107943+339958974+338773577+337570110+336224483+334856154
2777+333583382+332293765+331039712+329841404+328693155+327806237+327165028
2764+326676130+326384826+326014187+325451257+325089617+324796082+324054780
2750+323101581+322417513+321912249+321358438+320820201+320324704+319678935
2737+318936625+318326229+317889765+317664238+317498656+317149087+316820827
2723+316667892+316331401+315655924+315025994+314718444+314623942+314512475
2710+314175840+313662536+313157944+312557411+311879318+311427448+311203432
2696+311029068+310711031+310041001+309200902+308387488+307436473+306419177
2683+305517885+304561638+303483798+302391486+301333179+300465963+299740331
2669+298877219+297847253+296730896+295618427+294714231+294074198+293426653
2656+292557349+291661576+290946887+290370495+289897627+289543978+289334986
2642+289304965+289313268+289127121+288877188+288830057+288871933+288956859
2629+289228221+289489624+289569944+289648559+289894316+290340666+290819293
2615+291197948+291660736+292237153+292677816+292911190+293119031+293455402
2602+293762160+293763840+293505581+293288429+293208325+292999141+292530232
2588+292067636+291770980+291395014+290705882+289876870+289184594+288579837
2575+287868676+287011538+286064027+285081048+284059073+282964770+281908191
2561+281031327+280356426+279819557+279270426+278701545+278235109+277771096
2548+277203103+276696327+276386953+276248608+276221971+276249088+276398112
2534+276684064+276919910+277142773+277547417+278090117+278572655+278887044
2521+279245901+279854162+280479412+280923459+281343485+281784388+282050231
2507+282159803+282343934+282632814+282864845+282951547+282991119+283056200
2494+282984448+282668930+282274294+281938115+281558597+281071763+280641754
2480+280332189+280020367+279725296+279515679+279248469+278810949+278334554
2467+277963938+277679714+277390594+277029194+276594098+276240089+276044343
2453+275694893+275059708+274526366+274252773+273974595+273531892+273001023
2440+272549105+272263393+272069518+271843919+271500205+271000412+270472303
2426+270179919+270150114+270155106+270088345+269999987+269950048+269933322
2413+269872849+269760397+269723633+269865338+270056381+270116158+270114694
2399+270219443+270471151+270720123+270774285+270706949+270657082+270487277
2386+270027752+269266460+268085982+266345767+264191693+261757570+258983813
2372+255989112+253074058+250467754+248203724+246249332+244803636+244051367
2359+243838007+244332232+246172205+249505556+253474262+256198920+256082821
2345+253510402+251073375+250366557+250703576+251320740+251932552+252275114
2332+252353993+252731592+253691582+254798267+255746690+256828779+258230464
2318+259697062+261040529+262090053+262581951+262698698+263023454+263685277
2305+264307384+264747159+265114247+265439411+265731003+265932364+266030490
2291+266196335+266433573+266550944+266517804+266407032+266235955+265999869
2278+265691767+265349709+265052190+264809265+264569267+264323942+264137843
2264+264020568+263899213+263779922+263689764+263573041+263370000+263067681
2251+262776665+262625194+262555650+262496352+262453589+262347449+262170828
2237+262064016+262004575+261913121+261918232+262032460+262039755+261953124
2224+261976402+262071215+262094877+262112419+262216279+262389156+262621786
2210+262862720+263106413+263431793+263735383+263908356+264098127+264443257
2197+264889944+265287868+265465880+265393072+265301858+265336582+265341910
2183+265228930+265101936+265004267+264834438+264543014+264183390+263766412
2170+263371991+263128538+262968764+262753556+262419705+261951876+261439965
2156+261019723+260729932+260503565+260318065+260224355+260076052+259634933
2143+259031279+258581881+258254749+257816246+257320460+256950565+256606443
2129+256201992+255919831+255680554+255206654+254655267+254256479+253936018
2116+253698325+253585345+253444673+253203979+252998970+252939337+253005809
2102+253116629+253207675+253315471+253568739+253945761+254285084+254625630
2089+255057774+255523971+256050521+256713327+257388709+257920058+258396813
2075+258971958+259682375+260477431+261183625+261623233+261993680+262772346
2062+263839868+264641595+265204165+265905103+266755353+267547626+268257683
2048+268873479+269300848+269579193+269876113+270409646+271090954+271568789
2035+271834056+272138174+272529787+272846312+273066800+273257411+273364583
2021+273297126+272916912+272507374+272705160+273238669+273354576+273091493
2008+272851040+272705808+272537202+272271960+271990399+271820474+271564854
1994+270736009+269608398+269203299+269483636+269745447+269875993+269917508
1981+269813695+269633403+269527983+269509577+269539502+269399021+268693115
1967+268000072+268380310+269273635+269616269+269459663+269081656+268539268
1954+268041611+267637352+267070535+266130151+264687646+262725047+261351463
1940+261646318+262327603+262246276+261738708+261255617+260951331+260732067
1927+260146172+258729417+257291304+256922656+256962108+257438455+258776379
1913+259599584+259195133+258697236+259157241+260079123+260715005+261124976
1900+261385515+261144246+260550551+260448539+260518083+260170049+260600778
1886+261958500+263055298+263822686+264401094+264832974+265263822+265548191
1873+265058741+262833851+260136765+260923182+264299657+266545665+267138543
1859+267318691+267732261+268230422+268494297+268421777+267836218+266513868
1846+264509010+263713234+266128183+268960878+270107639+270658306+271189751
1832+270115534+267662333+267318859+269024783+270948266+273487977+275804129
1819+277038361+277805388+278279384+277779687+276955954+277604242+279367855
1805+280405117+279724000+278179819+277971762+278997168+279067361+277440244
1792+277038121+280664864+284608852+286237912+286488612+286497803+286998868
1778+288418623+288955012+286799690+283794958+285347298+290570369+295290095
1765+297721267+297918501+298370515+300243796+302382247+304622592+305182954
1751+302613486+300571288+303066652+307232783+310394962+312586447+314862692
1738+317242053+317401827+316203592+320062077+327314771+334268507+339298999
1724+342247577+344229734+344276600+340864226+340163095+348668763+358773422
1711+365970418+369833391+371443589+373897558+377752564+380286924+382580398
1697+388626842+399645704+410952990+417846612+421874087+424428749+424930677
1684+428598192+440650523+452959867+462110199+468823793+475867687+483090744
1670+490903849+503438767+516010161+524041114+530583798+538949418+546134847
1657+548753054+546326010+546757387+556888395+563765411+570676839+586314182
1643+602722464+614654473+622598795+628148374+640289544+661390987+678919322
1630+692576884+705855240+719457225+734413668+752895705+769928542+783175366
1616+798243348+815608500+829595882+839557949+847467187+855199324+862172665
1603+867322208+871277355+874324826+875232214+874182474+872714412+870968749
1589+868516124+865340411+860867402+854666487+847162133+838476917+826409803
1576+813534746+809498488+808055671+803256154+800554676+801816121+803139383
1562+802880739+796236114+785461785+791999910+804140264+814714839+824335184
1549+833961672+841730189+846011988+848259771+854266307+877922316+903871320
1535+920435345+934929551+951856320+965761535+974557235+980282426+982507748
1522+981401182+983930311+989967659+996135553+1001908067+1003564076+998689255
1508+987073963+980990636+993104304+1003958689+1007541301+1005650406+1005444124
1495+1011773185+1016907561+1014557741+1010175058+1014970591+1023481491
1483+1028725487+1030792714+1030846565+1027413888+1019437746+1010699352
1472+1008916349+1013722441+1016994336+1015811363+1014718523+1016026475
1460+1013176166+1001354689+994396130+1001765043+1008425555+1009275829
1449+1005976002+1004812130+1008140178+1011339985+1011805821+1008758830
1437+1002068082+1000004694+1004304058+1006965076+1007841747+1009651243
1425+1009274485+1006867167+1004668530+1000131304+998908879+1006085622
1414+1011899507+1011437414+1008848772+1007407491+1005263664+1002949072
1402+1001789136+998276885+993106704+990407195+990557802+993790821+995831747
1389+991297784+983270384+981046981+985096390+989708488+990842986+987808954
1375+983155484+981739161+983845936+985203706+985450591+984559617+980607254
1362+977287461+978670092+981403870+982425197+981892168+981168024+980382255
1348+979123642+977902849+976841206+974186428+969576921+967654446+970399550
1335+973506631+975169071+976909359+979106460+980379375+980761125+981819504
1321+983199639+983743227+984798247+987707685+991510401+995344793+999173138
1308+1002051475+1003479222+1005146557+1008116469+1011422152+1014382368
1296+1017427152+1020420293+1022537147+1023852586+1025254703+1027258097
1285+1029242102+1030847236+1032538186+1033733253+1033830107+1033420904
1273+1032551720+1030732145+1028947414+1028422544+1028215015+1027398434
1261+1026708942+1026475496+1026182536+1026379986+1028037147+1029981124
1250+1030539782+1029766780+1028864480+1029315246+1030572803+1030792619
1238+1030112630+1029472572+1028864480+1028666933+1029636330+1031182527
1227+1032283718+1032697720+1032506701+1032100282+1031631470+1030977302
1215+1029929290+1028364759+1027249938+1027684674+1028925529+1029142945
1204+1028204265+1027427614+1026982608+1025928068+1024302584+1023470836
1192+1023260139+1022234205+1021030594+1021070525+1022307348+1023962877
1180+1025235889+1025578667+1025386112+1025428251+1025550254+1025396287
1169+1025303177+1025706429+1026504580+1027190905+1027536178+1027620361
1157+1027575054+1027633128+1027829714+1028018717+1027825682+1027380292
1146+1028139184+1030050045+1031004275+1029954343+1027358118+1024849915
1134+1023439735+1022460548+1021166995+1019685782+1019238376+1019492172
1123+1018514136+1016231412+1013982477+1012677885+1011879061+1010593667
1111+1009224379+1009197790+1010104025+1010313858+1010626304+1012004711
1099+1014197685+1017518438+1020379977+1021465713+1023350945+1027087332
1088+1030491788+1032926847+1035115213+1037386610+1040248821+1043412056
1076+1044809469+1044572759+1046198340+1049684482+1052067323+1053660651
1065+1055788256+1057027479+1056181812+1055244188+1056149272+1058703933
1053+1061658967+1063145554+1062867857+1062412099+1062434177+1062977861
1042+1064269302+1065231788+1066039154+1067862569+1068540830+1067422937
1030+1067371487+1068669936+1069138748+1067968061+1066237373+1064847446
1018+1064349261+1065033858+1066021972+1066582550+1066859960+1067290184
1007+1068115981+1068814592+1068441001+1067177109+1066135816+1065424534
995+1064721316+1064095657+1063356923+1062393285+1061727311+1061293631
984+1059912440+1058361827+1058383809+1058754232+1058119070+1057099759
972+1055461412+1053024145+1051339531+1050599165+1049152221+1047092769
961+1045697563+1044733733+1043779119+1043795725+1045017094+1045975740
949+1045528718+1043787854+1041544966+1040004912+1040446367+1042408583
937+1044121225+1045038980+1045070176+1044401802+1044357935+1045373503
926+1045681245+1044020532+1042237337+1042410886+1043787182+1044051057
914+1042889105+1042713157+1043545961+1042413190+1039137648+1036745209
903+1036648835+1036872682+1036044006+1035492547+1035026327+1033088973
891+1030680023+1029202362+1028677108+1029331468+1030639995+1031372202
880+1031536536+1031291283+1030367002+1029398661+1028630458+1028380789
868+1029865265+1031792444+1032814443+1034631426+1037009179+1038065927
856+1038034154+1037512740+1036881129+1037441996+1039640249+1041386391
845+1040692196+1039069688+1039334330+1041201804+1042308082+1041788683
833+1039827716+1037045463+1035378416+1035522976+1035708331+1035469030
822+1035759877+1036125597+1036783796+1039196970+1042130597+1042988166
810+1042501500+1043236107+1045357281+1046817663+1046055315+1043032322
799+1039776169+1039416593+1041980950+1044410441+1044844121+1043046432
787+1040835700+1040646313+1041932955+1043848231+1045494545+1044194177
775+1040650729+1038536850+1038022059+1037108432+1036567916+1037043448
764+1036240784+1033448837+1030817864+1029851347+1029754109+1029754013
752+1030354619+1030722546+1029392133+1027412256+1027315691+1028525445
741+1029268595+1031173408+1034536781+1036050341+1033355247+1029414115
729+1028733262+1028853825+1027280367+1027118817+1028412370+1028662134
718+1029053963+1031269302+1032487983+1031706342+1033176515+1035580089
706+1034999162+1035395214+1038376932+1038259345+1034612516+1031643468
694+1028890973+1026200870+1026283613+1027525044+1027688994+1029540053
683+1033610675+1036139132+1035180198+1032460722+1032839016+1038929831
671+1044282007+1042049486+1040570194+1048342167+1052870658+1046739432
660+1038258577+1039133521+1045833964+1046561947+1041506858+1043391994
648+1058463000+1073741823+1072340762+1053044975+1030209387+1021883171
637+1024019223+1018574225+1008125588+1005507381+1008579426+1008240295
625+1003885641+1001296615+1002462598+1005581197+1006357080+1006110963
613+1008995732+1015728044+1026479143+1033338065+1030015680+1025774005
602+1027395170+1025414717
##END=
