##TITLE=Sample description
##JCAMP-DX=4.24
##DATA TYPE=INFRARED SPECTRUM
##DATE=24/8/2023
##SAMPLING PROCEDURE=Instrument type and / or accessory
##ORIGIN=Default
##XUNITS=1/CM
##YUNITS=ABSORBANCE
##RESOLUTION=4
##FIRSTX=4397.6552
##LASTX=599.8556
##DELTAX=-1.9287962
##MAXY=1.4685544
##MINY=0.45771551
##XFACTOR=1
##YFACTOR=1.3676978e-009
##NPOINTS=1970
##FIRSTY=0.70165747
##XYDATA=(X++(Y..Y))
4398+513020823+512723954+512715282+513838868+514858821+515516316+516233256
4384+516100641+514553105+512953535+512414926+512282181+511735074+511259831
4371+511550904+511539660+509918692+508123446+508275585+510278883+512437893
4357+513564138+513674658+512588332+511144997+510984796+511487800+511296918
4344+510349396+509646707+509949503+510394719+509955604+508779852+508148548
4330+509012092+510460526+511282362+511093093+509850184+508290228+507823352
4317+508512226+508689903+507989786+507838780+508635297+509229775+508554499
4303+507103363+506169525+505723350+505187269+504792780+504445184+503807038
4290+503703579+504734644+506057306+506981033+507005220+505903947+504857148
4276+504830739+505173672+504601942+502923535+501549929+502088973+503918604
4263+504302502+503154206+502930029+503866133+504725754+505232375+505780309
4249+505828945+504503974+503262067+503513569+504015395+503962533+503856284
4236+503704145+503305821+502168769+500638883+500528364+501744689+502615336
4222+502924233+502430119+500699547+499174150+499087861+499918240+500931917
4209+501615125+501947773+501950519+501029144+499403905+498429233+498748981
4195+499211411+498963919+498592702+498215471+498022106+498753906+500078310
4182+500653395+499645819+498188190+498201090+499385471+499852346+499612698
4168+500030720+500715149+500262044+498519008+496777104+496130896+496381090
4155+497098465+497675076+497278975+496258891+495727996+496199012+496877731
4141+496694128+496456571+497157865+497596370+496804604+495837906+495761902
4128+496149897+496049140+495689951+495642536+495398486+494857132+494620055
4114+494723253+495211396+496327748+497352974+496893246+495159797+493876532
4101+493537913+493662379+494235895+494958935+494991882+494063274+493153928
4087+493404209+494216633+494142285+493342543+492953241+492912667+492364427
4074+491615413+491734823+492570954+493177897+493153361+492630398+492221179
4060+492586338+493478819+493933404+493468403+492224622+490855112+490480104
4047+490883613+490924448+490981843+491636419+492281930+492405001+491887616
4033+490895598+490113506+489867016+489596644+489185116+489405763+490167328
4020+490246731+489489001+489238240+490144753+491101428+490836590+489958448
4006+489773057+490036151+489759983+488999638+488954097+489903798+490795451
3993+491286862+491170154+489998760+488630208+488240252+488624891+488872994
3979+488948344+488720332+487751674+487005274+487197638+487589642+487436370
3966+486951104+486933628+487535820+488266226+488302572+487635096+487434845
3952+487598184+486785281+485358986+485267990+485872449+485540803+485632408
3939+486817225+487562492+487078576+485828084+485075801+485619160+486354272
3925+485776964+485304293+486399508+486849954+485441265+484533270+485482231
3912+486664520+486931449+486870960+486407135+485053619+483410032+482237418
3898+482677710+484874242+486887041+486627085+485789472+486744490+486263407
3885+483663757+482738330+482154049+482619007+485222362+486165962+484874591
3871+482753757+480426091+480762313+481818655+481520174+481884461+483222245
3858+484648279+483918832+476680498+472393463+476731007+481699332+484385533
3844+484785862+483729955+481553077+478690376+478328921+480580322+482201595
3831+482365283+482197368+482171568+482904501+482191746+477923625+477203504
3817+479323903+480246802+482732534+485385613+485087132+481757861+480193373
3804+480852045+478619689+477381399+479621251+481051817+482088112+483803083
3790+485109140+485577541+485144266+484348926+484254705+483505604+481882282
3777+482281565+484189378+485083994+483504515+481412356+481399239+482186386
3763+483406720+484370977+483532667+482905068+483946680+483999456+479699129
3750+476234148+479106960+480786849+478081429+478518190+481512112+481686825
3736+476856780+472304297+473655983+478151288+481770150+482660277+482122018
3723+481728052+481036651+481443560+483775671+485688409+483640529+478478750
3709+477677745+480346121+482304096+482280083+481294951+482139232+484306740
3696+485813746+486209891+484501152+479518445+476580655+479215911+482872470
3682+484259063+483675523+482481032+478851580+475298349+475977766+474778698
3669+472223369+473887438+476285747+476516854+475733760+474805936+472587613
3655+471252749+472972470+472954166+466350360+461464097+463081361+465428943
3642+465376603+463059091+460319897+458002472+456004273+454183271+449082157
3628+440616427+438667823+440975398+441882086+438234199+431419639+428028091
3615+427186949+425688005+423792176+420905506+417605651+416330928+415957271
3601+414594211+412428315+409407069+405709065+403874510+404535579+404093283
3588+399761229+395947040+395730882+396218284+395790195+394576615+392935600
3574+391417133+390667116+390369245+387821194+382113921+379165934+379708508
3561+379950989+379138522+378719323+378407201+376834171+374785201+373663706
3547+372963023+372046268+371438367+371429258+371285051+370518431+369581804
3534+368805116+367796363+366318818+365261887+365368811+365018731+363050799
3520+361401895+361142506+361035102+360269135+359070460+357652205+356423285
3507+355958262+355654115+354915364+354605661+354967050+355029457+354419159
3493+353510990+352310201+351156326+350673304+350484994+349986435+349257294
3480+348828507+348725789+348457857+347800776+347006634+346708392+346754304
3466+346302377+345186090+343500383+341638198+340621144+340814335+341454333
3453+341807965+341845466+341391839+340313053+339530547+339337639+338968689
3439+338268136+337559608+337233605+337355325+337611708+338007787+338530097
3426+338806701+338618369+338006414+336972995+336100017+336286889+337214539
3412+337739877+337496939+337128686+337027710+336953624+336899083+336869056
3399+336798173+337129318+337952941+338418706+338227345+338126260+338405632
3385+338823675+339460143+340243346+340667840+340691722+341038773+342149438
3372+343628771+345065264+346337263+347377916+348557046+350305138+352142003
3358+353288883+354195156+355798802+357646169+358976544+360036046+361073932
3345+362030519+362865452+363629109+364515989+365425836+366088801+366491309
3331+366613682+366435003+366173696+366100742+366392207+367098469+367781764
3318+367904050+367753132+367793705+367867486+367643615+367421224+368064513
3304+369297922+369932189+369910225+369799574+369747234+369643339+369516869
3291+369707707+370053473+370175541+370396929+371158494+372444635+373983411
3277+375537571+376788281+377654962+378401971+378974180+379406366+379864177
3264+380371407+381028075+381553217+381874622+382474025+383173663+383459026
3250+383749445+384407812+384731875+384667725+385086880+385931771+386387228
3237+386366615+386760624+387731854+388263185+388107342+388067248+388262967
3223+388164083+388088994+388535343+389059004+389254549+389347288+389609641
3210+389964602+390108984+389805970+389238991+388866510+389020871+390000817
3196+391358212+391975047+391712868+391344964+391588098+392658996+393891577
3183+394360152+394203176+394310514+394779176+395243480+395919498+396751619
3169+396978498+396637962+397018854+398301465+398951464+398659041+398627445
3156+399042852+399276007+399471769+399953201+400223703+400033650+400011685
3142+400417984+400898326+401102064+400799006+400282449+400273733+400945218
3129+401687739+401946562+401640062+401084849+400858363+401126817+401563448
3115+401838091+401801135+401702120+401930481+402333468+402172177+401524313
3102+401504571+402430085+403602961+404092411+403503424+402575513+402246133
3088+402779163+403595204+403934869+403818422+403824872+404183102+404480058
3075+404387406+404135948+404175214+404421617+404470078+404394292+404386360
3061+404608140+405191462+405893017+406241442+405943048+405323423+404883001
3047+404724369+404832404+405066212+405160694+405152545+405121472+405090748
3034+405430543+405972769+405943091+405536051+405542065+406000530+406337231
3020+406273996+406127000+406163651+406202307+406167399+406388002+406783667
3007+406871525+406832826+407169266+407799175+408360227+408779077+409310321
2993+410090626+410942881+411650102+412082070+412325030+412639374+413299833
2980+414280433+415021516+415281777+415343356+415198539+414878703+414802438
2966+414954533+414818693+414537426+414718458+415121140+415080436+414626286
2953+414106417+413726789+413983521+415202156+416561032+416874069+416330928
2939+416117472+416328226+416293188+416230737+416341649+416231827+416045434
2926+416024646+415903057+415557291+415036943+414520996+414312508+414249840
2912+414190178+414466041+414978676+415491006+415953175+415946594+415698971
2899+416087315+416932859+417235786+416842038+416686108+417134679+417538625
2885+417497354+417226416+417172681+417457391+417765940+417990945+418151930
2872+418064290+417845517+417816275+417919778+418035527+418239875+418666962
2858+419243529+419624943+419521745+418697773+417472339+416999842+417676426
2845+418552999+419201822+419834129+420136837+420264092+420756723+421328453
2831+421620745+421739458+421909813+422201278+422580601+423144791+423716303
2818+423995522+424125304+424453115+425156195+426105635+426820569+426906771
2804+426824230+427198367+427649335+427787005+428064307+428662054+429136991
2791+429341601+429475436+429642305+429932114+430245369+430374279+430553220
2777+430941215+431317618+431801838+432404858+432714496+432831509+433031107
2764+433240466+433586973+434148461+434704023+435094545+435214304+435288434
2750+435808216+436580371+436960871+436944441+436969892+437286808+437921990
2737+438693797+439298647+439627199+439853424+440077819+440213092+440310886
2723+440584527+441059334+441501674+441825519+442212076+442756393+443392055
2710+444106205+444904901+445558692+445828149+445931913+446170864+446506388
2696+446879131+447181796+447332060+447667803+448306123+448820501+449057883
2683+449201828+449248154+449256696+449504624+449877628+450083762+450191057
2669+450283709+450426390+450611432+450688395+450819659+451167473+451512280
2656+451716846+451854777+452043088+452477060+453129457+453591843+453695739
2642+453737925+453956523+454310657+454611622+454783808+454983710+455344032
2629+455861678+456424038+456842888+457022003+457146730+457559261+458219981
2615+458849411+459372854+459810269+460312662+460906051+461464925+462041448
2602+462418156+462396671+462498997+463185387+464110204+464731789+465125406
2588+465690991+466303642+466696780+467159515+467769247+468214202+468521442
2575+468752331+468894925+469113480+469478291+469884154+470175096+470411606
2561+470796681+471208994+471494314+471804344+472227552+472765725+473331964
2548+473713770+474046375+474444830+474728188+475101933+475665208+475989968
2534+476048104+476247920+476643847+477081305+477620132+478174081+478502197
2521+478684754+478927758+479305817+479786987+480263711+480690231+481070513
2507+481434059+481821880+482228789+482660975+483047183+483260683+483312936
2494+483311672+483360743+483491528+483740937+484146190+484533358+484728466
2480+484765379+484743589+484749385+484693297+484467769+484315587+484488688
2467+484807565+484918869+484804470+484647756+484405275+484160398+484214917
2453+484460361+484446720+484029918+483557595+483252010+482976322+482757113
2440+482598873+482287840+481810811+481349601+481022400+480800794+480599366
2426+480317925+479949454+479688844+479508334+479169803+478706327+478199270
2413+477697574+477378697+477250135+477125670+476838432+476301175+475611779
2399+474988755+474479607+473940475+473334448+472659825+471892420+471199363
2386+470618743+469844278+468521660+466573361+464266570+461634583+458395784
2372+454765635+451350336+448345302+445503258+442796138+440708033+439563441
2359+439167558+439609549+441164014+443848863+447323649+449863551+449567554
2345+446687072+443794214+442415901+442037014+442153765+442433507+442689192
2332+443125431+443816048+444442775+444934099+445462597+446177270+447234353
2318+448525201+449783276+450805452+451475978+452075599+452993791+454067348
2305+454861075+455260183+455404478+455538531+455885909+456390046+456919590
2291+457362757+457642412+457880578+458077953+458192090+458353424+458564745
2278+458699234+458841480+459254664+459835546+460267034+460538757+460746286
2264+460908056+461065555+461396329+461974988+462501307+462778086+463045799
2251+463519996+464213402+465142490+466121869+466832184+467224319+467531691
2237+468023712+468699294+469408127+470109246+470735190+471206815+471732655
2224+472563295+473441481+474147307+474915627+475715151+476304661+476764302
2210+477273712+477985901+478917996+479788948+480568947+481513724+482565055
2197+483515453+484308178+485177823+486387350+487662770+488582924+489140925
2183+489681669+490628102+492063419+493592912+494790323+495705596+496671335
2170+497799759+498937291+499929004+500861665+501923194+503122131+504319760
2156+505342720+506115790+506765877+507467781+508234576+508975658+509547650
2143+509767381+509741451+509735481+509681092+509424666+509026996+508556068
2129+507962199+507124194+505934278+504509552+503190552+502064568+500845149
2116+499312997+497489903+495527614+493663817+491995041+490270308+488383587
2102+486576924+484844216+482977280+481008585+479141432+477478670+475811289
2089+473897418+471899742+470123758+468596313+467046337+465264819+463467438
2075+461903386+460495046+459124403+457612254+455865906+454217264+452765692
2062+451148995+449479173+448130887+446863747+445414093+444014730+442762843
2048+441452689+439932958+438360887+436973160+435677693+434406151+433261036
2035+432177369+430978084+429605828+428217448+426905594+425554955+424200087
2021+423005378+421912951+420826800+419754333+418578058+417338417+416308746
2008+415458756+414540869+413510805+412427574+411392325+410516536+409658440
1994+408481380+406955635+405653762+404861254+404194433+403499894+402809582
1981+402079177+401357095+400642597+399856147+398967546+398062209+397126323
1967+396130165+395374483+394871218+394209233+393387266+392662308+392036277
1954+391497843+391013448+390375172+389523613+388601891+387599370+386674379
1940+386315408+386232780+385864396+385291010+384635563+383900538+383217809
1927+382581755+381716469+380762366+380304337+379934210+379301948+379132987
1913+379246513+378857429+378052806+377436102+377164989+377013286+376821446
1900+376484309+375968231+375381205+374921476+374526247+373964192+373654380
1886+373753002+373662050+373442144+373391722+373322386+373128889+372923234
1873+372643231+371725125+370004227+369186792+369984965+370884069+371105806
1859+370965346+370823449+370701206+370420070+370010372+369558096+368908314
1846+367762284+366597470+366856075+367769256+367957218+367703930+367607966
1832+367015754+365415573+364347225+364392592+364429591+364641675+365001626
1819+364993803+364765813+364481953+363889436+362984796+362427688+362379750
1805+362349853+361927103+360820447+359611073+359154221+358933225+357892463
1792+356559430+356910534+358057131+358267733+357542034+356675244+356055184
1778+355887139+355620406+354120155+351589209+351070930+352694470+354044543
1765+354470344+353858433+353040868+353114867+353378070+353733511+353848802
1751+352330640+349974255+349484761+350189563+350444704+350007354+349499317
1738+349607875+349113370+346815295+346369861+348385514+350168928+351031163
1724+351014036+350670123+349864694+347072179+343936491+345011682+347678359
1711+349239208+349278648+347792953+346233455+346083778+345003293+342018349
1697+341166355+342819202+345262029+346874259+346974254+346111473+343742254
1684+340524047+341665915+344414741+345623309+344846796+343415336+342720471
1670+341810297+341749720+343348157+343968893+342952623+342800963+343632344
1657+343564272+340800847+335101855+334661280+336159047+335813629+337112147
1643+340446234+342699618+343161372+341787788+340816165+344565790+349369164
1630+352554991+354819596+357204963+359966318+363962716+368344342+371301655
1616+374280062+379494616+384736713+388710536+392193123+396007268+399840458
1603+403523035+407379846+411294923+414752233+417895199+421295593+425036785
1589+429033140+433065404+436947579+440712871+444296215+447215527+449020622
1576+451811415+457216066+461996212+465539462+469999598+475442513+480366125
1562+483770616+484589402+485740095+493324414+501986821+509566476+515783769
1549+521222020+525730443+528852316+530468316+532484252+541345342+551591020
1535+558625835+565288082+572981220+579530943+584775393+589545123+593659493
1522+598630041+605887115+613435000+620962621+628296396+634391577+638557676
1508+640648048+645871536+656389199+664824465+670775613+675458226+681081302
1495+688530913+694990687+699008613+702510898+709233373+717516240+724780766
1481+731028216+736708382+741642976+745180212+747900057+753427343+761771135
1468+769169671+774941791+781620206+789047505+793950111+796036211+802210752
1454+813429360+823552360+832313302+839983255+847152036+854753917+862917548
1441+871358524+878767868+884779940+891762720+899654149+906204002+912975069
1427+922072800+930506977+936074183+939629723+941596413+945124934+952814673
1414+960449501+965661614+969517858+972384568+974379238+975998942+976866887
1400+976482596+976523038+978410151+980179859+982236499+983875902+981557344
1387+976453397+975574209+980141857+986017611+990499232+991889965+990124877
1373+988754888+989778152+991648182+993338574+994244782+993808456+993724782
1360+994714316+994482992+993467135+992885775+991966667+990874545+990672158
1346+990997354+991142215+990184146+987405817+985531168+986131181+987088901
1333+988152695+989595638+990731253+991211420+991720438+993371084+995859605
1319+998353268+1001104317+1003729156+1005547500+1007567184+1010337669
1308+1013646283+1018119362+1022964530+1026072588+1027695256+1029547592
1296+1031839217+1034787771+1038350894+1040891362+1042339709+1043838522
1285+1045077945+1045858467+1047068953+1048873438+1049912740+1049304621
1273+1047702610+1046658340+1047147833+1047998695+1047753338+1046445058
1261+1044786393+1043928036+1044357214+1045020332+1045311535+1045896644
1250+1046842771+1047090917+1046485413+1046144354+1045943013+1044819601
1238+1043439414+1043249404+1044532755+1046509295+1048094310+1048794209
1227+1048829160+1048919633+1049417145+1049095436+1047556006+1047104340
1215+1049088289+1052269038+1054276520+1053197472+1050834724+1050428469
1204+1051688985+1052773524+1053080590+1053037010+1053885779+1055976848
1192+1057543646+1057458839+1056461286+1054897713+1052993517+1051823212
1180+1051891372+1051883004+1050551714+1049290152+1049535422+1050761510
1169+1052572967+1053645390+1052205934+1050238982+1049696582+1048416978
1157+1045758494+1044112642+1043823966+1042987225+1040635895+1037545705
1146+1035114274+1034031653+1033504593+1033162401+1033314583+1032250440
1134+1028812218+1024696497+1021134682+1017639805+1013352727+1008726768
1123+1005217336+1002904182+1000716888+997782628+993717373+988803959+983769305
1109+979532605+976182502+972825339+969197979+964984813+959495877+954134371
1096+951042612+949507976+947934205+946596029+944954273+941665009+937411748
1082+933139923+929166535+925953100+923307778+920215845+915676959+910577457
1069+906436198+902795502+899305158+896504690+894061667+891573495+888589205
1055+884882616+882064018+880250207+876949611+872474528+869448662+868261361
1042+867681744+867064037+866250655+865423850+865007658+864323361+862464313
1028+860199272+858714580+857776645+856383732+854678349+853637303+853278986
1015+852876828+852243781+851922158+852277773+852752014+853057337+853459322
1001+853536023+853811450+855245851+856676853+857193541+857371261+857428613
988+857217423+856737255+856264584+855771517+854241762+851203868+847740282
974+844622027+841945937+839833601+837933850+835791182+833676493+832356969
961+831620986+830926926+830661087+830816407+830910191+830640865+830997178
947+833516117+837195774+840289625+842828263+845405339+848501804+852671129
934+857548110+861758487+865299994+869070647+873298020+877490878+880233385
920+881529201+882819438+884091111+884938311+886194818+887698250+887672450
907+886238834+885191164+884677614+883383454+881068906+878831146+877271757
893+876429699+875675586+874604034+873789519+872661225+870753281+869192584
880+868460697+868244801+868914368+870697324+872640394+874008640+874702700
866+875464221+878198099+882788671+886687275+889031283+891412509+895555860
853+901580397+907096265+909531008+909883921+911489331+915722544+920675006
839+924366691+927636780+931697590+935140780+935781062+934574847+935216697
826+938933659+943245317+946548440+950286145+956642938+963958323+967281842
812+966045818+964308970+965557980+970256631+976106585+980989406+982896043
799+982078739+982578866+987298435+995918351+1004148835+1007310670+1006824053
785+1007132078+1010259225+1015388274+1020728601+1025301653+1028342510
773+1028787203+1028167927+1030116837+1033881214+1034965142+1033187590
762+1032363226+1032995140+1032512532+1031131473+1030532070+1030712492
750+1031658969+1031817339+1029187096+1026787653+1028411541+1032617909
739+1035589125+1036081756+1034445927+1029715899+1025001385+1025711220
727+1029285151+1029710756+1026558682+1023884684+1023717074+1022420910
716+1019210351+1018291069+1019620093+1019387113+1016932236+1015975039
704+1018787884+1021724846+1021110538+1018866415+1017368649+1015281589
692+1012952398+1013902187+1016569997+1015386444+1011884594+1010674109
681+1010181564+1009082296+1009334800+1010021538+1012149301+1018806972
669+1026684542+1028106654+1023542666+1020146194+1020762506+1021066086
658+1018705430+1021007689+1028694987+1034018753+1035305417+1037032591
646+1041607560+1048442690+1051961972+1043141935+1023206662+1013737976
635+1039147890+1073741823+1059216867+1020457008+999611779+998208146+1012982294
621+1033350668+1042717201+1034101904+1019563787+1015429501+1021085784
609+1023842847+1012049676+999264270+1003460353+1014133249+1021265422
##END=
