##TITLE=Sample description
##JCAMP-DX=4.24
##DATA TYPE=INFRARED SPECTRUM
##DATE=24/8/2023
##SAMPLING PROCEDURE=Instrument type and / or accessory
##ORIGIN=Default
##XUNITS=1/CM
##YUNITS=ABSORBANCE
##RESOLUTION=4
##FIRSTX=4397.6552
##LASTX=599.8556
##DELTAX=-1.9287962
##MAXY=1.3745329
##MINY=0.47473037
##XFACTOR=1
##YFACTOR=1.2801336e-009
##NPOINTS=1970
##FIRSTY=0.60023594
##XYDATA=(X++(Y..Y))
4398+468885404+469585918+469172873+468211941+468499178+469803964+470398366
4384+469983644+469084732+468517523+468675505+468210125+466227267+464346890
4371+464331059+465875962+466960840+466291661+465145928+465313083+467289144
4357+469311765+469042455+467545789+466770637+466322904+465202593+463646469
4344+463304337+464807800+466012108+465255347+463926302+463462925+463396854
4330+463206465+463249115+463788202+464389401+464357879+463703739+463431309
4317+463766225+464236307+464843839+464748668+463641115+463076280+463646423
4303+464029342+463409007+462805619+463045782+463435593+463424372+463311694
4290+463368126+463704764+463811482+463215824+462751375+462280781+460856704
4276+459502004+459588748+460704914+461286325+460842270+460345880+460058178
4263+459732622+459560904+459338853+459086398+459557505+460189760+459899591
4249+459437144+459273900+458971950+459142178+459953415+460461585+460647365
4236+460558200+459363624+457504805+456342310+456201369+456667400+457143769
4222+457606774+458371310+458561233+457331737+455733754+455325737+456359723
4209+457792134+458207973+457232840+456236522+456430077+457226461+457572412
4195+457309527+457183951+457461689+456905422+455371460+454610789+455103919
4182+455914924+456378488+456025227+455301851+455199929+455163006+454386783
4168+453423244+452835175+452736558+453056760+453529823+453949293+454383291
4155+454593841+453752385+452137408+451100535+451186720+451870379+452089729
4141+451539235+451246504+451804402+452244731+451790061+451473304+452025381
4128+452147744+451155337+450429308+450734610+451261031+451429537+451256794
4114+450754631+450069389+449607361+449708818+450201763+450646935+451280028
4101+451976492+451368029+449480575+447804462+446982284+446996392+447309144
4087+447576173+447977158+448232314+448071305+447563089+447211924+447540460
4074+448162984+448339964+447718790+446827840+446371400+446093196+445776812
4060+445755394+445967993+445896475+445589869+445674564+446065259+446229481
4047+446090682+445862625+445590707+445078998+444699664+444849917+444851593
4033+444196523+443540521+443296680+442801081+442093862+442071932+442517523
4020+442940020+443399068+443638998+443742830+443880046+443378860+442466352
4006+442354000+442753636+442605943+441982441+441676161+442009819+442519106
3993+442907800+443023039+442423237+441472176+440941285+440935418+441334727
3979+441962094+442388455+441974293+440761977+439861808+439593476+439642644
3966+440289287+440806490+440214184+439788009+440416073+440551474+439616849
3952+439335992+440060718+440262375+440365089+440756064+440161244+439414028
3939+439448670+439687390+440161942+439787729+438216985+438297862+439675470
3925+439469436+438465808+438604374+438661598+437555489+436533981+436612157
3912+437438341+438716308+440137451+440441030+438657361+436394251+435047466
3898+434992850+436594743+438280867+437696383+436426844+437590596+438571316
3885+437674453+437312998+436308252+435561735+436990281+437544035+436429451
3871+434685499+433362507+434894838+436022133+434321762+433876636+435800501
3858+437757565+436727862+429190663+425057978+428859101+433074572+435668360
3844+436686190+436337167+434518157+431487158+430238664+431150055+432382299
3831+433895354+435153113+435525697+436396392+436066692+431622884+429963022
3817+431242153+431242619+433221705+436611180+437889473+435765720+434509311
3804+435500600+434002352+432890701+434335591+435029307+435800501+437123540
3790+438071900+438709603+438708672+438303821+438290226+437012864+434742443
3777+434890275+436616208+437928305+438061284+437411382+437296142+437445604
3763+437948000+438232024+437249721+437137974+438947624+440021327+437981292
3750+437682834+443406750+449332603+451238961+454258320+460335171+465888068
3736+467395396+465139829+465159757+469641140+474656347+475213825+471051201
3723+466508777+463207117+461431084+461974454+465169395+469984389+475536588
3709+483438687+494236665+506293054+517880897+529230207+541230210+552651550
3696+561902856+567324217+566684698+559021924+551556942+549292108+547349199
3682+543352753+538734713+534557142+526402401+516450814+513253173+509449908
3669+504278022+504155659+505690039+506320479+507430174+510176078+513661841
3655+518294967+524997136+530762678+530652794+528771392+530241564+531290543
3642+529899432+527249677+525272499+523975023+522791621+522145723+519028307
3628+511488500+508225766+508374855+506889923+501756822+494645892+490144907
3615+487387921+485387277+485561695+486153815+485850375+486507680+487739459
3601+487840124+487289258+487091279+486254853+484593640+483751393+482442695
3588+477697497+472826163+471316274+470923158+470280705+469580796+468837445
3574+468461044+469510116+471340905+470240197+464949347+462056681+462745788
3561+463207955+462352159+461724839+461811862+461430805+461170667+462595116
3547+464043451+462818284+460315848+459413770+460358498+461771819+462328320
3534+461964816+461252335+460510288+460452832+461079081+460694671+459414189
3520+459283212+459699517+459224825+458824351+459363577+459758277+459351145
3507+459592286+460425128+459623249+457718754+456913151+457215287+457634897
3493+457439526+456501223+455540198+455470124+456402094+457456474+457589965
3480+457132454+456991234+456608780+455499783+454707217+454923820+455438788
3466+455514823+455380167+455398885+455090417+453885551+452595431+452483917
3453+453311404+453989569+453657074+452467481+451874988+452022960+452151004
3439+452383950+452440242+452067985+451371428+450282593+449381260+449071255
3426+449084758+449041968+448530911+447875142+447634979+447553218+447214112
3412+446555363+446029733+446388581+447464705+448265885+448328323+447612444
3399+446347467+445610076+445919010+446027684+445351754+444950163+444801261
3385+444008369+443137673+443166774+443808015+444537351+445292622+445852614
3372+446193070+446574034+446790172+446578318+446237024+446049708+445970228
3358+446207504+446823323+447378380+447588837+447595495+447922542+448639213
3345+449133926+448934179+448280365+448117587+448540689+448891994+448987305
3331+448714596+448248471+447908480+447904849+448461628+449139747+449276683
3318+448744721+447868251+447094124+446409487+445821325+445828821+446481983
3304+447191623+447393745+447045793+446589353+446218306+445771923+445111265
3291+444499311+444623955+445596620+446367535+446086026+445341278+445035836
3277+445281354+445510435+445276185+445088357+445571198+446351658+446519884
3264+445852707+444844050+444169424+444459687+445441850+446040116+445928649
3250+445876966+446027033+445619621+444754513+444377832+444858903+445643088
3237+445769176+444991324+444441482+444715588+444678013+443739710+442953011
3223+443240760+444536979+446138221+446605044+445763496+445232651+445414100
3210+445533856+444933308+443849548+443507835+444293370+445165370+445254115
3196+445079743+444884140+444402277+444170122+444691190+445740122+446592426
3183+446644109+445761866+445253464+446425876+447704635+447450783+447068282
3169+448150785+449415855+448721300+446301697+445272786+446825279+447539156
3156+446056599+445367352+447596799+450290648+449244556+445597319+444983548
3142+448884358+450909680+447468569+444280286+446481377+450890590+450318212
3129+445498748+444459827+450236311+455144474+451659503+445268549+445445529
3115+452141179+454895325+449072931+444038913+447857589+456091577+456456478
3102+448674367+445067870+450529973+456778728+453494948+445377689+444325265
3088+452527638+459066563+454192343+445836085+444570410+449765204+452272389
3075+447222400+442376163+444839906+451946041+453871070+447941911+442946446
3061+444418713+450073719+451481778+445789477+440812543+440972900+443451170
3047+443720667+441470640+439692232+439784749+441033942+441267633+439985195
3034+439247060+440024959+441276852+441447964+440540625+440567817+446191906
3020+468253102+508051161+534966975+523133288+494002602+472006545+459962262
3007+452922198+447873140+444733002+443734635+443661441+442962416+442008981
2993+442311117+444965436+447759112+446723682+443591738+443136323+446913326
2980+451653171+451221641+446423688+443806665+445475328+449653550+451765057
2966+448874394+444957194+444970511+450852875+456614600+453305118+445661946
2953+442929311+446546889+452377804+452801558+447369487+443424956+444713446
2939+449905586+452271132+447702959+442471288+441968100+446084536+450580958
2926+448907220+442939042+439976582+442416625+447039042+447057061+441661122
2912+437647028+438378832+442194854+444796418+442995056+439685760+438833782
2899+440831307+443545410+443665445+440980489+438664671+438631706+440432929
2885+441586112+440245380+438316486+438236634+439904831+441665359+441846296
2872+440832564+440553243+441665545+443684907+445853359+447154188+447590560
2858+448259739+449431453+450026599+449181000+447384247+445702733+444642393
2845+444000453+443211985+441983093+440742701+439925364+439237747+438363513
2831+437505435+436841751+436408917+436223417+436069765+435760598+435349462
2818+434977065+434770194+434625109+434431879+434277156+434024980+433570170
2804+433256859+433245545+433227898+432987828+432578461+432322374+432560489
2791+432983125+433120202+433086259+433001051+432803864+432612963+432555926
2777+432661061+432863556+433044773+433148930+433168393+433081602+432927298
2764+432918312+433139106+433389885+433506614+433523795+433583533+433661756
2750+433696817+433823929+434131233+434594704+435038619+435217927+435164148
2737+435134768+435321060+435690896+436141283+436768138+437462040+437652569
2723+437386285+437453892+438000475+438513673+438779491+438930443+438904741
2710+438676451+438616806+438715563+438683389+438678779+438805473+438964712
2696+439088519+439092569+439021424+438912796+438801468+438832525+439009458
2683+439173027+439158128+439029060+438962012+438896127+438849985+439048150
2669+439444014+439620760+439374963+439041771+438930350+438964898+439053691
2656+439235047+439413377+439601717+439980120+440369373+440606835+440834892
2642+441002047+441022581+441117519+441416675+441754617+442218833+443026764
2629+443899508+444453308+444644070+444625678+444812901+445524217+446392958
2615+446931392+447273664+447800412+448379541+448715434+449074514+449592788
2602+450058913+450414920+450596602+450768506+451174334+451788757+452473673
2588+452985847+453354426+453807002+454271823+454632719+455012566+455538802
2575+456091298+456494099+456742364+456965486+457292858+457684717+458002405
2561+458205971+458343606+458473372+458773786+459388860+460047935+460427037
2548+460618403+460826858+461095610+461387735+461645359+461812979+461918068
2534+462106921+462455944+462886263+463360490+463837836+464157293+464264430
2521+464328778+464478938+464648514+464836948+465041119+465021842+464878015
2507+465093966+465682268+466282023+466662801+466736554+466669506+466692042
2494+466793732+466885690+466879544+466749126+466558318+466336872+466278159
2480+466550077+466849559+466839501+466620384+466511151+466632956+466785444
2467+466764491+466612655+466543092+466495181+466157332+465736092+465599388
2453+465560417+465399780+465227085+465211254+465211999+464888119+464298932
2440+463762826+463446302+463364122+463375715+463292045+462887334+462114743
2426+461446589+461170108+460922961+460528866+460167364+459806561+459367907
2413+458939171+458514300+458081978+457729463+457422810+457119696+456688027
2399+456041803+455728539+456410010+458764986+464493745+476030650+495254494
2386+522393755+555721149+592566572+630711800+668937672+706882500+744995228
2372+784218442+823926173+860576411+891601955+915302759+928226119+930771624
2359+924997188+907673229+878365424+841604183+804689477+783341879+789311034
2345+815153098+831137117+824750959+811920070+801002756+794163836+794758330
2332+800368125+801729391+795812757+789362252+785051516+777408158+763570102
2318+745519414+727592999+717965153+717903413+715695850+701664844+677542427
2305+651341283+630913457+616946286+604732427+591532912+576660218+559957107
2291+543073059+527862702+514329110+502334275+492817012+486111584+481321127
2278+477435403+473940095+470750648+468043669+465969551+464370497+462887008
2264+461374791+460020976+458886743+457705391+456435339+455385801+454614141
2251+453935045+453386879+453094149+452907764+452628955+452354616+452179313
2237+452078787+452138572+452334967+452572942+452917914+453362621+453764398
2224+454138984+454723048+455567344+456400325+457165280+458047337+458965246
2210+459813592+460634374+461349648+462067809+463050718+464195985+465187927
2197+466100388+467324251+468755032+469967255+471011857+472192790+473540227
2183+474834491+475994052+477149005+478386277+479779577+481330719+482757915
2170+483862674+484950625+486358126+487902749+489153432+490065055+491002892
2156+492101877+493182239+494124313+494906309+495534281+495975123+496224878
2143+496365679+496416338+496280565+495865611+495268649+494671175+494002508
2129+492958605+491465525+489992140+488829319+487464934+485580413+483626190
2116+481855465+480000184+477880669+475636974+473448036+471291411+469145867
2102+467174975+465462778+463797002+461929755+459952764+458152751+456640534
2089+455280713+453866228+452434189+451233421+450395597+449893201+449611040
2075+449437972+449428194+449846640+450815254+452022075+453194069+454335565
2062+455411131+456371503+457405769+458807962+460526957+462330741+464178199
2048+466019231+467754570+469394272+470996678+472554804+473946381+474998619
2035+475680509+476035585+476065757+475890826+475595441+475099750+474299269
2021+473336521+472405110+471090871+469232192+467414533+465669789+463715007
2008+461617329+459445525+457339000+455361962+453261723+450970256+448866059
1994+447035969+444993559+442848621+441101828+439517394+437911403+436499433
1981+435389226+434449386+433504705+432657429+432024708+431586986+431316651
1967+431047387+430781802+430756845+430965346+431349849+431925579+432565797
1954+433178916+433922778+435049887+436547763+438163532+439675051+441022907
1940+442440418+444055628+445768524+447558433+449314957+450833972+452099740
1927+453293245+454492477+455527441+456220505+456468910+456505879+456804896
1913+457124213+457058748+456733191+456381747+456007161+455465188+454729287
1900+454020439+453418169+452657125+451698987+450746902+449715849+448953595
1886+448798033+448686379+448587670+448865733+449129782+449134951+449321987
1873+449869967+450153804+449758918+449871783+451175359+452624997+453378545
1859+453413373+453221633+453195466+453299763+453365182+453314151+452983100
1846+451876013+449859910+448395278+447710409+446759674+445509178+444252303
1832+442231404+438580628+435284416+433797575+432283682+430464114+428916045
1819+427196584+424919458+422390064+419892238+417113089+414496392+412593293
1805+411211960+409902890+407605324+404616044+402731057+401553849+399564751
1792+397094909+396032241+396052821+395766469+394748081+393486596+392351991
1778+391543362+390867804+389428456+387128120+386675078+388186155+389199235
1765+389466589+389206498+388836429+389043976+389117450+389157469+389490312
1751+388844508+386930397+386058142+386471908+386517818+385542406+384384404
1738+384158395+383760413+381688948+380599461+381241308+381733438+381938889
1724+381724265+381114801+380237261+378217503+375986706+376408714+377657976
1711+378149943+377769816+376394233+375148673+375183408+374270597+371636812
1697+370844409+371899139+373896431+375851655+376906640+377069349+375664246
1684+373545266+375295155+378175202+379533557+379603376+379784732+380544239
1670+381212347+383104993+386267062+388553686+390057592+392580049+395703146
1657+397990375+398322590+397466374+400251763+403692641+406499168+410809764
1643+415885128+420169697+423347317+425165488+427746566+434091796+440639381
1630+445787754+450438946+455306694+460578268+467031520+473481979+478711275
1616+484565703+492155842+499666315+506590208+513398164+520480041+527848222
1603+536015395+545134140+554646701+564599685+575779604+588250715+601293085
1589+614432676+626874732+637875577+647067657+654069541+658178247+658464645
1576+656388431+657038147+659004570+659885974+662034917+666453023+671433914
1562+675885032+678757211+684060633+695402027+706651882+717696448+728755727
1549+739336031+748393642+756081420+761984038+766922606+778523579+791931409
1535+801782657+810819268+820836087+829577500+836230454+841694605+847140412
1522+853894496+861565652+868493224+875769726+883629176+890120841+894125855
1508+894434557+895126830+904146493+913261327+918515208+919859152+921105132
1495+926060182+931576203+934018993+933838429+936265761+941087087+944968900
1481+946851466+947832046+947913994+945237000+940742254+940244608+944901666
1468+948765134+948912733+948077796+949442414+950032997+945496253+941422701
1454+945816967+951818715+956183089+959080225+962432077+966322458+970052854
1441+973475386+974120260+971785492+973999852+980823779+985899237+988896945
1427+991903685+994314348+996157057+998006005+999242580+1001864165+1006388617
1414+1008969322+1009359878+1010795828+1013531954+1014408330+1013837862
1402+1014187164+1013088225+1010577362+1009901199+1010413653+1012041062
1391+1013982481+1012511145+1006816795+1003645693+1006020131+1010360759
1379+1014078397+1015709252+1014222551+1012315494+1013793256+1017269707
1368+1019632132+1019470844+1017646294+1017416002+1019227515+1019967001
1356+1018807998+1016803535+1014908119+1014125424+1014656316+1014228045
1344+1012477528+1010348001+1007257078+1005379728+1005979902+1007172243
1333+1008180667+1008704947+1009501331+1010430974+1010575034+1011386876
1321+1013193826+1014410193+1015406325+1016473602+1017604203+1020565220
1310+1026054142+1033352901+1040413172+1044620076+1046131269+1046713750
1298+1047982824+1050308746+1052703579+1054825748+1056549167+1057595399
1287+1058524296+1060076090+1061850354+1062811472+1062679238+1061821579
1275+1060898921+1060924902+1062236812+1063616702+1063479160+1061156125
1263+1057221698+1053462993+1052048741+1053701387+1056411997+1057748399
1252+1057965188+1058667146+1059778750+1060417291+1060609589+1060459289
1240+1059965088+1059603773+1060034278+1060837553+1061358574+1062029522
1229+1062413838+1062526796+1063205752+1063365551+1062955905+1063689897
1217+1065194384+1065934243+1066358975+1067128167+1067354734+1067868491
1205+1070252242+1072909587+1073741823+1073412355+1073021334+1072428609
1194+1071798914+1071720040+1071698994+1070867596+1070056964+1070478716
1182+1071341962+1070988934+1069963469+1070511402+1072233890+1072712912
1171+1070951779+1067963849+1065970281+1065242249+1064005954+1061860411
1159+1060028784+1059503759+1059982502+1059909959+1057693177+1054106656
1148+1051126176+1048661315+1046298331+1044348252+1041268037+1035831357
1136+1030194650+1026399999+1023817246+1020977008+1017535106+1013676015
1124+1008833456+1003293876+998490615+994422371+989212537+982704948+976766709
1111+971534713+966867504+962640485+957485035+951653795+946659074+943243991
1097+940566346+937916730+936531346+936002690+934745721+932767147+929650522
1084+926125927+924465086+924115877+923065454+921411598+920186478+919120597
1070+917386376+915928543+916026787+916800449+916531977+915089881+914258111
1057+915043413+916348619+917081307+916924395+916100726+915108878+913733365
1043+912166299+911613430+912360087+913452228+914170669+914832304+915598982
1030+916076421+916618022+917274908+917471769+917511533+917827032+918244407
1016+918479914+918354851+918093735+918372171+919253762+919760442+919840528
1003+920660937+922002740+922508209+922175948+921957855+922072582+921831487
989+920672205+919140153+917790249+916481877+915562944+914909223+913169322
976+910306269+908024581+906804582+905181270+902346434+899199823+896594720
962+894657771+893293992+892388468+892285288+893305353+894623595+895023277
949+894794661+895589742+897761918+900132073+902440301+904864002+907271499
935+910222738+913668924+916620816+919130375+921670665+923839768+925364091
922+926431927+927256620+928618072+931007131+933247566+933994781+933653953
908+933416677+932908507+930747878+927717950+925592241+924449348+923854854
895+922922884+921579591+921727935+922805829+922334256+920467615+918755464
881+918069989+918288734+918924109+919727756+920353260+921127015+923334578
868+927715435+933948127+942290882+952365158+960889037+966049515+969239428
854+970558695+969555579+967846129+966913320+966308676+966083319+966772705
841+967337307+967748536+968442113+968226907+967546833+967778801+968099236
827+967705234+968147939+970968155+975136879+978611281+980621144+981695965
814+982675521+984531639+987240947+989166255+989798836+990376848+991989265
800+994753328+997919122+1000891128+1004853958+1011506632+1018041320+1020601259
787+1021250975+1022910232+1025531166+1027820211+1029002309+1030862897
775+1033544547+1034825541+1036382643+1040067595+1043413208+1044887431
764+1045470937+1046388567+1047665742+1047770784+1046658249+1046692425
752+1049118919+1051692826+1052576653+1053044593+1053554719+1053503594
741+1052308646+1049122365+1045268209+1043661845+1044772704+1045379304
729+1042838922+1038647103+1035444154+1035426740+1039516868+1042989966
718+1040643278+1035936493+1034252651+1034951722+1035285845+1035027151
706+1034009322+1032639768+1032801150+1033112551+1032387872+1032703278
694+1034170330+1034329477+1031340988+1028050410+1029757998+1035632820
683+1040100839+1040474168+1036281139+1028654869+1023311404+1024979974
671+1030600292+1032588272+1030075732+1030733829+1032523365+1033134808
660+1034733163+1034956750+1030180961+1026165144+1028316554+1032661932
648+1035289012+1037367879+1044161541+1054124256+1054040911+1040858671
637+1032016872+1043343832+1056237393+1043920167+1021547384+1006326691
625+1001215381+1007558981+1013312651+1007973749+1002335831+1005943305
613+1013605800+1018961464+1015091664+1007360351+1014169192+1036128232
602+1051128597+1039801357
##END=
