##TITLE=Sample description
##JCAMP-DX=4.24
##DATA TYPE=INFRARED SPECTRUM
##DATE=24/8/2023
##SAMPLING PROCEDURE=Instrument type and / or accessory
##ORIGIN=Default
##XUNITS=1/CM
##YUNITS=ABSORBANCE
##RESOLUTION=4
##FIRSTX=4397.6552
##LASTX=599.8556
##DELTAX=-1.9287962
##MAXY=1.5787334
##MINY=0.44051611
##XFACTOR=1
##YFACTOR=1.4703101e-009
##NPOINTS=1970
##FIRSTY=0.63762248
##XYDATA=(X++(Y..Y))
4398+433665304+434552780+434396341+432788003+431043577+430979566+432436208
4384+433517986+433330981+432506178+431844381+431649835+431677888+431927202
4371+432471233+432709237+432363116+431831733+431604635+431965511+432343941
4357+432211379+431926837+431155951+429721403+429448942+430871612+431854759
4344+431765533+431654254+431387833+430754130+430400307+430289271+430112117
4330+430269853+430539923+430082523+428959801+428031461+428160659+429071120
4317+429641015+429762226+429604530+428970787+428263060+427943452+428193779
4303+428542413+428173915+428297883+430129629+431603418+431081076+430088280
4290+430263732+431309512+431866394+431253204+429878127+428846251+429085309
4276+429905774+429953286+429372202+429326799+429698864+429611462+429493089
4263+429666271+429187142+427831686+427098623+427655585+428147929+428145416
4249+428168685+428171847+428555385+429007758+428296545+427023828+426804676
4236+427847496+429344109+429950083+428724351+426765758+425894863+426478379
4222+427522983+428204116+428349894+427759405+426972020+426997357+427556833
4209+427553265+426763812+426311156+427010329+428006084+427917264+426892158
4195+426525971+426799365+426568618+426358302+426416151+426299400+426445583
4182+426809621+426853849+426637696+426716098+427285061+427474944+426730895
4168+425782003+425274538+425237526+425778476+426503472+426595009+426317439
4155+426172797+425947482+425881444+426056977+425288483+423643823+423261906
4141+424425938+425399316+425617334+425527905+425466327+425391452+425271173
4128+425337859+425318482+424998022+424776072+424660253+424319240+424100493
4114+424600417+425621793+426218160+425527013+424373603+424476612+425316657
4101+425322860+424768451+424350212+423696442+422900787+422709281+423008741
4087+423394549+423913446+424346158+424481274+424346442+423811816+423076522
4074+422631893+422880963+423960715+425010589+424967051+424182665+423640093
4060+423490910+423463790+423398684+423079441+422720470+422764495+423126426
4047+423223678+422783062+422526654+422764130+422993296+422948095+422492358
4033+422101888+422328986+422617947+422376498+422099456+422504965+423207341
4020+423394590+423010363+422516357+422294812+422291366+422250747+422298704
4006+422630190+422735591+422112712+421462104+421701891+422400294+422564517
3993+422183493+421888816+422055025+422455995+422474156+421948367+421229979
3979+420837604+420923465+420863873+420588290+420671719+420967612+421131753
3966+421102241+421153239+421752281+422341067+422286177+421941881+421251059
3952+420358273+419776946+419601575+420261263+420815550+420069798+419593832
3939+420230656+420948437+420865373+419405529+418018128+418658358+419587670
3925+418836486+418463366+419752987+420191496+419090907+418628359+419166472
3912+419690841+420420662+421346082+420468254+417180029+415014485+415312081
3898+416898851+419084907+420283032+419210335+418283455+419347842+419145554
3885+417264755+416943606+417036075+417986467+419955925+420070366+418903010
3871+416871488+414585219+415520126+416359320+415360808+416315741+418721477
3858+420411257+419304020+412636599+409705602+414247612+418809406+420366705
3844+418656899+416074656+414538478+413303787+413066838+413965583+414977757
3831+416828598+419047774+420193563+420909438+419423609+414512128+413726607
3817+415116886+414988135+417109856+420184199+421049419+418870862+417361075
3804+417406276+415144534+414378390+416583865+418486068+420699650+422482710
3790+422596259+422252652+422078051+422006095+422194154+421560695+420990192
3777+422236436+423503396+423320769+421731890+420460714+420729689+421461172
3763+422489804+422605056+420724541+419878496+420890912+420218616+415780385
3750+413583505+416680104+418005723+416012429+417662278+421350866+421904261
3736+418239389+414893598+415338107+418257794+421205737+422141900+421319975
3723+420749351+421589720+423767831+426246091+427754095+426154960+422757239
3709+424048765+429025919+434358518+439062846+444756646+453314514+462849043
3696+471372858+477801910+480722895+480159040+480464419+483135766+484998606
3682+484037146+480298778+474725175+465656600+458136647+456843459+452679878
3669+446806248+446122318+445948406+443230683+439813341+437048837+433361385
3655+430384619+430188289+427430352+418646196+415205545+419240698+423017133
3642+423755750+422183168+420320896+418518702+416424385+414385363+409283673
3628+401587985+400823829+403632358+404354152+400908920+395427705+393051441
3615+392020579+389903682+387837175+385216259+382505671+381707907+380878767
3601+378131856+375202723+373183890+370655280+368249788+367624638+366676760
3588+363066818+360204250+359982056+359929072+358851793+357199796+355748019
3574+354852962+354533395+353651351+349816865+344560682+343247386+344010732
3561+343661976+342745191+342139622+341004616+339050624+337935502+337968866
3547+337402032+336162152+335398116+334854673+334130751+333263038+332421857
3534+331868624+331160573+329939259+329132294+328978449+328327963+327394252
3520+327159168+327094772+326399794+325173799+323783763+322514006+321622578
3507+321132443+320556548+319821762+319587062+319555949+319001621+318180345
3493+317408648+316673111+316330335+316329565+315952635+314872518+313572905
3480+312786472+312527570+312459384+312149728+311184316+310133165+309735256
3466+309530109+308741163+307686302+307093239+306790698+306406937+306032237
3453+305774978+305474484+304580461+303395572+303052167+303229707+303442130
3439+303937859+304218834+303814642+302855169+301843137+301398669+301495578
3426+301747344+301726122+301186874+300450831+300169066+300515288+300707016
3412+300189052+299607624+299671513+300081725+300354937+300573177+300705719
3399+300767541+301002767+301180429+301123614+301079426+301226724+301608681
3385+302172698+302925767+303579293+303634122+303631751+304500092+305771694
3372+306431038+306761733+307639277+308935445+309891067+310214668+310517736
3358+311686957+313502306+315019005+316000146+316762540+317592998+318558896
3345+319488593+320223988+320873238+321718391+322571733+323112197+323508464
3331+323825234+324072096+324437533+324738371+324628248+324430074+324663212
3318+325213446+325871492+326324027+326127434+325701493+325691155+325856817
3304+325918213+326224829+327007411+327904535+328184050+327672308+327419954
3291+328369069+330102813+331460499+331845233+331679389+331609540+332013935
3277+333024933+334355275+335431135+336072277+336615051+337164677+337570430
3264+338001702+338777656+339729730+340330496+340517299+340729803+341144475
3250+341435098+341424071+341543012+342144365+342875645+343430783+343849793
3237+343999259+343912506+343830618+343907439+344174630+344441619+344676258
3223+344928977+345311380+346081333+346750711+346568002+345967622+345911638
3210+346413711+347035861+347719183+348119990+347794747+347363009+347638470
3196+348013211+347777478+347716913+348535919+349518093+349727476+349583888
3183+349894010+350218523+350282818+350674463+351303748+351944018+352914923
3169+353898800+354359240+354676254+355160652+355333956+355039846+355014226
3156+355657374+356444557+356978656+357251604+357396449+357659871+358020464
3142+358319235+358485322+358534577+358559833+358611033+358662112+358526388
3129+358355801+358616182+359000814+359132768+359486631+359931423+359778389
3115+359484199+359660340+359864615+359803645+359830725+360125483+360486359
3102+360776982+361077577+361415874+361657120+361646378+361427022+361387781
3088+361816843+362382157+362806639+363234081+363598809+363728614+363665536
3075+363632213+363735789+363813786+363699750+363362670+363264850+363580607
3061+363504475+362970214+362856056+363252931+363560337+363690710+363984981
3047+364289793+364149204+363781396+363841393+364310792+364539593+364301833
3034+363894377+363508448+363302389+363500340+363940470+364179162+364233282
3020+364542309+365015154+365192187+365178931+365213065+365288589+365620237
3007+366202577+366470984+366358084+366296830+366477552+367389392+368807521
2993+369487154+369588663+370156937+371372412+372726531+373682720+374530265
2980+375625503+376565193+377011241+376912813+376350377+375620395+375089579
2966+375026785+375343150+375579329+375475712+375251856+375125821+375088444
2953+375082769+375113335+375322637+375669974+375980015+376370444+376812560
2939+377005890+376981243+377022349+377274581+377693226+377864948+377385536
2926+376823790+376793750+376791034+376393592+375920585+375589828+375487184
2912+375958083+376776481+377149762+377109021+377114980+377261285+377546313
2899+377780587+377776655+377822220+378168787+378487057+378456977+378395561
2885+378829286+379512365+379711492+379244485+378613822+378606525+379021845
2872+378977334+378737911+378864960+379165677+379328197+379303833+379303225
2858+379396667+379417302+379368493+379198108+378785180+378559987+378794625
2845+379226161+379855283+380571158+381169187+381689949+381979801+382017300
2831+382285383+382964652+383559437+384002324+384713132+385503517+385869867
2818+385880569+386100330+386743965+387382046+387703275+388005209+388510160
2804+388852997+388919035+389013855+389067164+389009518+389220927+389885197
2791+390684866+391273408+391679851+392147304+392687484+393010173+393031415
2777+393170342+393635443+394165083+394677210+395119773+395356195+395524026
2764+395782745+396139202+396617439+397183320+397588547+397712798+397920762
2750+398439862+398899572+399132224+399425199+399799656+400222678+400861570
2737+401578418+402088599+402430504+402811245+403248983+403657938+404037463
2723+404415893+404831497+405258046+405719743+406264544+406747281+407174600
2710+407641608+408009538+408269230+408530016+408828585+409209731+409573526
2696+409883243+410264835+410612496+410914186+411290872+411387598+411116150
2683+411158189+411754312+412394704+412717393+412816835+412913844+413066432
2669+413152172+413030515+412924425+413276991+414018811+414672216+414928178
2656+414713201+414312596+414364121+414978203+415471804+415529531+415536990
2642+415848531+416453249+416954957+417132517+417234229+417263539+417119869
2629+417061736+417202811+417543054+418157014+418831905+419310628+419667126
2615+420004247+420221170+420276222+420291181+420378096+420650355+421168076
2602+421680771+421827481+421802509+421992352+422283624+422601610+422907273
2588+422844519+422474480+422325014+422507398+422646932+422617299+422696309
2575+422957987+423063307+422860207+422679080+422655202+422621961+422573679
2561+422544004+422543113+422546720+422546720+422633392+422858261+423225259
2548+423559583+423638877+423498572+423341525+423391428+423653228+423900515
2534+424042927+424148328+424121897+423872908+423664335+423821869+424338942
2521+424901864+425239107+425301739+425178825+425069046+425111369+425284794
2507+425433166+425577930+425967914+426177134+425632212+425028143+425148340
2494+425552674+425708871+425696993+425550850+425185109+424784788+424618336
2480+424672131+424767964+424781342+424619308+424321389+424107100+424064981
2467+424095385+424152261+424133005+423871124+423459979+423190882+423202112
2453+423335160+423269041+422918583+422650784+422628731+422472251+422180087
2440+422154710+422282894+422226423+421992839+421735944+421586153+421577924
2426+421579505+421546344+421540750+421397647+421088579+420884426+420745662
2413+420603046+420580547+420583141+420565548+420514104+420318707+420065542
2399+419844159+419701706+419679247+419608872+419370179+419126500+419029937
2386+418887159+418334047+417205730+415468479+413097080+410325116+407560854
2372+404818808+401879622+399056011+396889252+395197364+393593729+392534044
2359+392379064+393052292+394948131+398280909+402175231+404741014+404579426
2345+402268592+399940488+398783753+398815900+399605191+400509896+401313538
2332+401878446+402287118+402841486+403462622+404211050+405511657+407200180
2318+408738021+410082450+411380423+412574818+413611517+414670432+415756346
2305+416502503+416907162+417313685+417782881+418200067+418489595+418752205
2291+419188322+419687152+420009720+420225751+420527806+420873845+421084890
2278+421137996+421121456+421101106+421190859+421431538+421582991+421543668
2264+421623895+421943016+422322987+422683742+423050375+423499180+423943040
2251+424154207+424209704+424401331+424732088+424938795+424959186+424997333
2237+425222607+425633509+426130109+426591806+426936670+427205077+427407488
2224+427521645+427709259+428068960+428470051+428820185+429158238+429495400
2210+429769969+430044093+430438779+430830586+431065266+431238164+431552623
2197+432155355+432827448+433209161+433422031+433719424+434207673+434830674
2183+435186889+435255440+435529361+436129376+436870344+437562869+437959217
2170+438160452+438628675+439423642+440137855+440533433+440809421+441311129
2156+442017518+442630020+443013760+443251723+443516401+443775485+443826523
2143+443779133+443925803+444198386+444383648+444595504+444791793+444554357
2129+443967314+443507645+443119566+442540226+441900645+441351952+440755302
2116+440007360+439190138+438381429+437615205+436805280+435828051+434825728
2102+433981061+433188041+432291322+431401495+430645486+429773009+428601883
2089+427440851+426498364+425656657+424869068+424068953+423172478+422321892
2075+421636502+420966395+420172361+419324208+418459637+417542000+416657645
2062+415960945+415449669+414892058+414166575+413428444+412771472+412187956
2048+411653695+411065395+410433071+409890580+409416762+408867623+408205949
2035+407549139+407047471+406725674+406384174+405823847+405160632+404641208
2021+404318681+403898982+403122339+402385668+402103356+402040074+401875244
2008+401530988+401054859+400550800+400119507+399775778+399471210+399192100
1994+398741836+397952666+397293262+397093122+396978883+396700989+396312628
1981+395940278+395661250+395360857+394916714+394433734+394062317+393617444
1967+393014713+392715658+392739171+392543449+392119008+391706930+391218235
1954+390752038+390539574+390370446+389971342+389377083+388526538+387800366
1940+388024059+388621926+388639439+388224889+387756260+387329589+386984968
1927+386608727+385916405+385151032+384908813+384732469+384368065+384465602
1913+384692254+384415496+383937867+383824277+384005526+384056403+383900004
1900+383759821+383589193+383269382+383114605+383041351+382556223+382199076
1886+382435093+382707433+382876520+383062188+383166981+383149509+383104429
1873+382884425+381689462+379687979+379393100+381097271+382601221+383126118
1859+383107267+382986988+382901816+382811861+382738648+382579371+382162104
1846+381184227+380075004+380521052+381718407+382078716+382004895+382187117
1832+381704381+380038802+379208648+379738248+380260225+381134526+382267384
1819+382754823+382625950+382326895+381680422+380699626+380395017+380969006
1805+381503267+381301506+380267441+379448719+379670386+379938874+379038466
1792+377991875+379166326+381166430+381986855+381727934+381209320+380887199
1778+381100757+381123824+379642171+377184626+377283095+379769908+381949276
1765+383095430+383020555+382631463+383056999+383633096+384343823+384613609
1751+382891965+380531146+380661803+382127849+382963192+382898371+382670583
1738+383114159+382871980+380719084+380630385+383288314+385981875+387684141
1724+388161607+388093583+387301617+384135291+380889388+382764106+386447464
1711+388727570+389059664+387561592+385947985+385697374+384399767+381697894
1697+381788661+384545747+387842121+389755391+389855928+389061448+386598309
1684+383180075+384990701+388734786+390617693+390130619+388924994+388438407
1670+387759949+388653343+391407227+392710672+392326566+392975958+394343414
1657+394351967+391281475+386157044+387451692+389941951+390603342+393668118
1643+398519967+401858866+403045518+402038939+401904513+407401942+413861845
1630+418359141+421640759+424696738+427912075+432699102+437943610+441337358
1616+444948476+451405459+457776541+462499071+466564548+471115801+475747078
1603+480129568+484672268+489333666+493537826+497321071+501225163+505197805
1589+509200406+513472509+517882282+522164155+526095002+529015298+530726969
1576+534332208+541054802+546491950+550707745+556728896+563865918+570142423
1562+574589613+576597015+581527347+593637348+604904871+614329540+622958635
1549+632408924+641204106+647544581+651506968+656920198+673398298+690480387
1535+701890363+713625299+728163820+740775286+750890615+760111901+768423738
1522+777805639+789305774+800593648+812769565+825184986+834991571+841082530
1508+843971326+852868545+869946011+882793657+890912206+895145999+898887003
1495+906451386+913502466+915738669+917303630+925002763+933819553+939613605
1481+943089161+945600865+946819624+944777116+939156570+936712484+941714894
1468+946200029+945417143+943894181+945046780+943536871+935408026+931638321
1454+938517597+944163683+946657631+947921794+948348830+947213743+946026198
1441+946744790+947136152+944400754+943990582+947662751+949597831+950594032
1427+953191436+953955917+952565516+951650879+949773445+949333761+953545745
1414+957331747+957932046+956769636+955536445+953823679+951144063+948659438
1400+945924203+943405688+942117283+941155215+941623114+942330922+939708385
1387+933886928+930245488+930880893+933326114+935201602+935550642+935087445
1373+935972813+937926298+938358442+938121452+938088372+935852656+933084259
1360+933201498+934384421+935281221+935479131+934413284+933160716+932798217
1346+932319616+930765925+928713363+926642964+925186972+925601035+927176212
1333+928193088+928965272+930283108+931902715+933802688+935503454+936413551
1319+937236651+939257836+942116067+944472102+946923161+950286586+953799518
1306+956433001+957859482+959258477+961772938+965600614+970246769+974036095
1292+976597419+979184444+981711311+983132115+983767764+985228216+987473418
1279+988703609+988974733+989445875+989400472+988110607+986339628+984703319
1265+983380618+982409146+982220154+983459507+985117221+985670657+985456774
1252+985640982+986602158+988119202+989075269+988546805+987534713+987391692
1238+988444161+989150590+987856105+986475596+987059111+988538211+989827994
1225+991023727+991834747+991920446+991906906+992160923+992303457+992463261
1211+993110585+994135082+994849620+995297898+996117755+997122307+997750659
1198+997875438+998176074+998703159+998259178+997285192+997201601+997642826
1184+997471184+996589465+995768797+995601453+995757446+995530429+995334059
1171+995427055+995113122+994306237+993314739+992509313+991615432+990814385
1157+991126372+991518382+990689282+988666070+986318710+985323077+985029332
1144+983635608+981630071+979664262+977413952+975094077+972611966+969747492
1130+967497587+965724662+962808380+958697338+954972631+952634838+950690920
1117+948101543+945992551+945201639+943422471+938616755+934209455+934019896
1103+935980029+936839614+936014649+934249994+932921942+932515905+933076071
1090+934942316+937412022+939275592+940200850+940769853+941749515+943446956
1076+944421753+943280261+942054853+942648504+944366458+946643767+948630656
1063+949308870+949310005+949723420+951171792+953356024+954538946+953850678
1049+952706754+952115779+951385756+951488319+954452923+958241195+959702133
1036+959519222+958999271+957642356+955176460+953689334+955582092+958957030
1022+959899639+958670907+957608790+957098406+957118432+957129459+956726746
1009+957239967+957759999+956328168+954907688+954931849+954544135+953277946
995+952788885+953727035+954334469+952895421+951058283+950607897+950497388
982+950262425+950556818+950678434+949625803+948146703+947310955+946596742
968+945744454+945455655+945415846+944048877+940919117+938252635+937558935
955+938041752+938488409+937675200+936342203+936355499+937186870+937324783
941+936038080+934374772+934615816+936497547+937831275+937965864+937784980
928+937972512+937936514+937617311+938589594+941187079+943764618+944982648
914+944798683+944587638+945172451+944626231+942623937+942355651+944479804
901+946742925+947579484+946565851+944843113+943828751+943589491+943360609
887+942007909+939632739+938734885+940120664+941147351+941010411+940614346
874+939314915+937670092+938121290+941249184+944452724+945967985+947294739
860+948720571+949223739+950737053+954451788+957825186+959562842+960930703
847+962862216+965364434+966998149+966567303+966137672+966987852+966954124
833+965964571+965874008+966392094+966823427+967862032+970272470+973240642
820+975630730+977052102+977485787+978346264+980717461+983080550+984118263
806+984756344+985662468+985885107+984573433+983390348+983598555+985462530
793+991935770+997534749+993353575+988075420+988380515+988043313+987226618
779+989678487+992259999+991140885+987442284+983867895+982094970+982524682
766+983596204+984384684+984641700+982631461+978883484+976904217+977631240
752+979187444+979797148+979059828+979757826+983190410+985410235+985260485
739+985220513+983893434+979981762+975400632+971840836+972040530+975599515
725+975735239+970695371+967356918+969240514+972086826+971280265+967836492
712+966625841+968937202+971522850+973324557+974446104+973540791+969896270
698+965028205+962766139+963294360+963275955+963307494+965059339+965515725
685+962352643+959630623+961131695+965084798+969150031+972861766+975396172
671+973292450+964079921+958164577+963336845+968797668+969109006+965070933
658+962258998+962797354+964159864+964761622+961484382+959173831+964362963
644+972413893+976413048+971253104+961464762+971212890+1024109004+1073741823
631+1033076678+974439861+966877506+978378533+960514775+925575091+906412712
617+906022891+913759726+928682473+950603032+961707346+955723410+961465978
604+976408346+967071606+949089961
##END=
