##TITLE=Sample description
##JCAMP-DX=4.24
##DATA TYPE=INFRARED SPECTRUM
##DATE=24/8/2023
##SAMPLING PROCEDURE=Instrument type and / or accessory
##ORIGIN=Default
##XUNITS=1/CM
##YUNITS=ABSORBANCE
##RESOLUTION=4
##FIRSTX=4397.6552
##LASTX=599.8556
##DELTAX=-1.9287962
##MAXY=1.3488179
##MINY=0.41947296
##XFACTOR=1
##YFACTOR=1.2561846e-009
##NPOINTS=1970
##FIRSTY=0.58295286
##XYDATA=(X++(Y..Y))
4398+464066234+464655265+464731990+464160847+464176125+465083539+465822272
4384+465866921+465013647+463667378+463119485+463140078+462379898+461548213
4371+462074327+463432316+464429693+464339207+463396919+462865823+463005085
4357+462802241+461687475+460600183+460281847+459838817+459346202+459409593
4344+459602189+460201991+461073771+461214836+460865137+460812611+460908174
4330+460641273+459896277+458849933+458172647+458174402+458520353+459448122
4317+460534608+460578451+459758106+458896101+458283013+457934168+457659486
4303+457802023+458690504+459208979+458619141+457951297+457973266+458162113
4290+457839080+457016078+456017752+455413632+455819321+456654944+456630745
4276+455964894+456047598+456531340+455895049+454482636+453470408+453127257
4263+453421535+453897638+454133602+454709015+455770638+456214855+455623546
4249+454739715+454058443+453648484+453373849+453334846+454125251+455136578
4236+454988537+454167433+453630074+453149558+452948469+453407016+453965348
4222+454440739+454992618+454941136+453808624+452126653+450802828+450580672
4209+451271528+451985161+452265062+452266296+452297707+452279392+452148622
4195+452081435+451665782+451014735+450905697+450994616+450953241+450927713
4182+450443781+449810907+450011284+450597801+450540815+449857834+449105152
4168+448619179+448199256+447569276+446993673+446828076+447294642+448102128
4155+448306111+447661944+447114763+447482540+448298709+448542549+448134868
4141+447456822+446586324+445883368+445585056+445619124+446328961+447616678
4128+448540984+448451590+447633617+447051513+447123351+446908123+445777414
4114+444859799+444559874+443989822+443551346+443699909+443986169+444462888
4101+445013059+445004850+444238502+443274909+442889623+443210568+443643730
4087+443960119+444252974+443938340+443183570+442970287+443149928+443267554
4074+443137354+442507042+441715831+441278969+441125993+440931690+440731882
4060+440790577+441046421+441031617+440350203+439364593+438879428+439026804
4047+439268794+439293515+439226185+439269648+439363075+439235817+438996579
4033+438888301+438739643+438512363+438515969+438763178+438588518+437555080
4020+436596137+436912289+438233220+439268367+439149080+438218369+437301465
4006+436554002+436204588+436563871+436778151+436207957+435659684+435877854
3993+436465035+436800689+437000829+437010271+436696681+436516660+436223472
3979+435626754+435562271+436051185+436141291+435449675+434626910+434302359
3966+434258469+434094628+433596698+433173122+433599213+434418941+434454291
3952+433862745+433497862+433342894+433316417+433015211+432066517+431689440
3939+432202174+432899958+433326714+432403879+430936710+431253622+432140063
3925+431537509+431041430+432324023+433303084+432433772+431630793+432017502
3912+432601599+433196799+433362348+431159151+427183166+425070691+425019920
3898+426809268+430090743+431887682+430058525+428306330+429797271+430427867
3885+428952679+428596528+428249154+428712920+430717828+431246220+430348533
3871+428419638+426227259+427029384+427536423+426007238+426410649+428790119
3858+431106577+430417429+422655254+419080213+424494471+429691839+431668041
3844+430931918+429084825+426426355+422969366+422291938+424420972+426355039
3831+428069939+429693453+430671281+431679049+430678540+426234709+425469452
3817+426735010+426181234+427765175+430837399+432197713+430527890+429056925
3804+429004067+426840252+426295206+428591688+429757129+430654009+431866994
3790+432425706+432581101+432217784+431498885+431604791+431502064+430752561
3777+431467000+432857301+433029636+431783532+431153836+431960991+432657494
3763+433697053+434200724+432699913+432587649+435166025+436225323+432961120
3750+432361887+438354452+444253923+447751196+453057033+459928353+464926958
3736+465793708+464895025+468079798+474550507+479256209+478942287+474762746
3723+470097280+465716840+462349151+461718412+464617733+470892335+482048628
3709+498250642+515855485+532408575+546649571+559489448+572277605+582426035
3696+587961145+588839757+583402202+571079946+560447537+556459168+553212046
3682+547742463+541423686+534923891+523080016+510097412+505470048+499376037
3669+492173333+491838201+492968577+491895235+490577435+490893872+492210201
3655+495837104+502723940+508800063+508867915+507560032+510060972+511780806
3642+509775993+505347867+501430244+498731917+496856735+495403705+489791111
3628+479393954+475449854+474956623+471387512+462703405+452422450+446282983
3615+441533058+437270766+436787261+438290539+438949320+439790258+440507638
3601+439292044+436701521+434224353+431382256+428247730+425799317+422026176
3588+415162211+410111934+408715938+407329669+404583419+401626400+399500972
3574+398122058+397471793+397047268+394197484+388728138+386669683+387542886
3561+387407491+386393720+385706849+384706602+382934549+381583938+381149187
3547+379953070+377522450+376141923+376556058+377286297+377300484+376710124
3534+375916659+374886376+373629738+372696702+372192462+371255891+369999822
3520+369617123+369884901+369855245+369416864+368562190+367062827+365659310
3507+365424604+365323704+364365520+363826144+363890674+363527287+362945207
3493+362436767+361408572+360098957+359556046+359818036+359938532+359262148
3480+358494637+358464863+358629321+358333928+357775382+357329220+356845288
3466+356079153+355098431+353904924+352854522+352580386+352749186+352465583
3453+351958947+351817075+351257699+349959733+349288971+349407925+349354403
3439+349193053+349103161+348637520+347800805+347160007+346730310+346073735
3426+345323923+344851355+344627965+344438715+344284791+344366901+344563719
3412+344556033+344341872+344136370+344118411+344144389+344036300+344030701
3399+344133642+343922162+343364518+343138353+343612842+344280520+344941484
3385+345641000+346044032+346343411+347062690+347926023+348382625+348605706
3372+348927671+349553855+350800623+352281386+353201161+353783098+354939287
3358+356648564+358113337+359272776+360345312+361277518+362475936+364192948
3345+365545955+365699381+365725620+366697707+367562156+367849246+368343213
3331+368921568+369241374+369175088+368660386+368292039+368448075+368635024
3318+368320200+367704171+367437199+367406642+367041214+366559702+366286538
3304+366271283+366720672+367454637+367966706+368060204+367876624+367686045
3291+367818499+368486272+369464930+370334480+371112120+371905040+372399245
3277+372872287+373979081+375489998+376886967+377981163+378798092+379136782
3264+379032774+379292462+379932264+380526966+381426503+382543190+383310108
3250+383679521+383845189+383785428+383600970+383881369+384876801+386025042
3237+386832718+387300375+387491642+387325404+387036440+387051102+387237268
3223+387374158+387524263+387787604+388308902+388943105+389184003+388849963
3210+388558318+388696038+388813095+388828065+389146329+389657259+389828099
3196+389514319+389120706+389145688+389766439+390573451+391000895+391277404
3183+391768761+391963658+391941049+392527921+393460981+393793788+393524135
3169+393685296+394478429+394851496+394607182+394605972+394836218+394687584
3156+394403531+394722672+396070484+397358628+397090778+396128964+396073758
3142+396723334+396607487+395354076+394299902+394597929+395992169+396749597
3129+395918315+395129950+395872550+396676905+395818221+394312452+394142561
3115+395648378+396460206+395173556+394312191+395978788+398106257+397325034
3102+394405690+393175481+395217684+397680877+396861149+394398786+394458500
3088+397406670+399358672+397773237+395449567+395278561+396859868+397815039
3075+396692777+395337872+395647168+396959867+397053484+395259201+393714809
3061+394101684+395741971+396275012+395067674+394165598+394298265+394623480
3047+394744262+394652400+394474111+394292049+393966549+393356973+392638097
3034+392283298+392437483+392624764+392353522+391982851+392356037+394398003
3020+400413842+409892340+415082639+411339201+404246294+399235590+396231668
3007+394258076+393407577+393372702+393575309+393848947+394232359+394915030
2993+395908469+397168879+398534009+399370392+399695038+400464897+402415476
2980+404929179+406224394+406279482+406831882+408349015+410317483+411965575
2966+412869572+413601520+414674246+416561575+418061721+416996492+414879415
2953+414142153+414629691+415385458+415061666+413320479+411482212+410564312
2939+410691950+410611002+409225350+407619867+407042698+407540960+407961025
2926+406939781+405221750+404170660+403941435+404065087+403545663+402334576
2912+401540090+401495583+401881628+402258325+402075267+401433520+401179811
2899+401916645+403186854+403656551+402855613+402096002+402617704+404176022
2885+405597925+406343585+407183289+408795320+411220626+414304571+417556247
2872+420879477+425145992+431001051+437921196+444854437+451077747+456365363
2858+460462581+462715457+462661555+460284410+455794980+449971807+443891935
2845+437948052+432235340+427106963+422585742+418630539+415473713+412970496
2831+410645877+408346026+406336088+404694829+403176795+401902458+401088092
2818+400521172+400135269+399993824+399867278+399687494+399656652+399733187
2804+399630080+399349325+399210916+399316300+399525171+399666474+399658597
2791+399694943+399930147+400215078+400390545+400460200+400508408+400554386
2777+400534362+400485205+400516711+400619960+400729235+400921261+401291078
2764+401694916+402031994+402410589+402802090+403087923+403302629+403533041
2750+403764782+404021386+404463183+405160778+405911088+406324226+406508376
2737+407077383+407915996+408507542+409132777+410189940+411378584+412233993
2723+412679349+412921671+413077066+413125085+413232557+413518294+413608779
2710+413206649+412772729+412812206+413002049+412997969+413077161+413351938
2696+413567878+413574142+413420549+413261073+413183969+413071325+412851162
2683+412741745+412815290+412886274+412916167+412951516+412920532+412797639
2669+412792895+412933249+413071752+413289827+413419553+413295142+413250018
2656+413385295+413517155+413676536+413904908+414205687+414603309+414943044
2642+415177869+415502467+415912853+416327747+416760386+417152030+417573709
2629+418163167+418819623+419341657+419630336+419848554+420221977+420696324
2615+421278238+422116899+423056056+423724517+424157204+424817835+425662000
2602+426301185+426927558+427738651+428430883+428777118+428894602+429106604
2588+429678316+430484237+431197110+431747565+432170762+432479513+432810801
2575+433195755+433554137+433810408+433883338+433991948+434400199+434932244
2561+435334042+435590219+435854082+436270162+436739290+437074802+437249366
2548+437375248+437557215+437755931+437973580+438294097+438604698+438843936
2534+439145332+439412944+439562503+439870826+440449513+440968131+441149148
2521+441150240+441239681+441490971+441888545+442261494+442500874+442726684
2507+442954012+443236997+443597467+443821236+443988541+444312285+444653491
2494+444872373+444988480+444995123+444908861+444832943+444916975+445124896
2480+445082240+444758780+444684000+444957449+445176758+445149759+444953890
2467+444735056+444617240+444526422+444202821+443736635+443501857+443487528
2453+443377161+443144045+443091281+443098304+442771048+442217841+441691585
2440+441265493+440949910+440711242+440424271+439886342+439185995+438586715
2426+438097659+437654011+437331406+437180423+437162250+437109060+436650940
2413+435769149+434993643+434604941+434361718+434018757+433615393+433151342
2399+432504756+431944858+432211616+434295479+439926246+452087223+473850777
2386+506202897+547394757+594381653+644783355+697438929+751544924+806134185
2372+859878666+910901949+956690949+994352796+1020820392+1035574169+1040250928
2359+1032332172+1007318982+969473222+923842418+877448729+851387391+859979637
2345+894200867+919762757+917903991+904483814+893069494+886729080+886606282
2332+890619325+890834838+883260846+871481738+858193184+842439657+823306721
2318+800248807+776438637+760955854+755962421+749566255+729978141+698137900
2305+664627076+639210902+621508362+605369407+588561232+570831266+551021138
2291+530428577+511754045+495498935+481346004+470104493+462319638+457304378
2278+453791447+450782709+448047230+445730060+443800406+442179977+440822700
2264+439536691+438218511+436932787+435639898+434317590+433082731+431985854
2251+430976899+430161204+429629824+429119083+428493374+428007828+427766076
2237+427592365+427430992+427521477+428056274+428763311+429186745+429360503
2224+429693595+430277786+430929308+431684411+432606961+433525383+434388384
2210+435333710+436430445+437618045+438673120+439486822+440350060+441487744
2197+442748747+444093735+445596681+447072106+448389526+449616414+450846908
2183+452255904+453891992+455599680+457321033+459018282+460558617+462043722
2170+463703676+465481778+467243510+468967189+470619409+472230870+473835736
2156+475351967+476764950+478060733+479032203+479630155+480108677+480652015
2143+481158153+481299361+481040243+480698515+480259470+479557510+478639041
2129+477431845+475888710+474225434+472562206+470745481+468629115+466330688
2116+464096174+461954898+459747572+457383760+454866071+452276877+449753447
2102+447374641+445129831+442962979+440825926+438713214+436744794+435134282
2089+433883954+432859294+432292706+432481648+433240167+434396688+436016453
2075+438068383+440609274+443627217+446685635+449292148+451436888+453486019
2062+455551614+457504613+459356308+461110686+462689407+464031501+465152245
2048+466078022+466702545+466969256+466886979+466485893+465882580+464962165
2035+463578316+461967329+460408821+458840111+457061297+455019806+452701925
2021+450225943+447774208+445390610+443104804+440762155+438301642+435952397
2008+433675179+431309896+428950924+426675841+424466001+422387452+420502780
1994+418630349+416684231+415046056+413855656+412838256+411891080+411075005
1981+410499260+410141352+409846409+409643518+409711749+410004747+410244743
1967+410537646+411415546+412917401+414596050+416288174+418131329+420216663
1954+422510393+424982531+427579317+430109438+432522549+434921188+437548959
1940+440599073+443596708+446100352+448188011+450049576+451731641+453012004
1927+453668270+453665233+453283364+452919573+452277067+451498572+451239738
1913+450891557+449694895+447966424+446504332+445405604+444226877+442824286
1900+441245754+439536406+437860793+436610276+435774178+434860122+434129550
1886+433896671+433786067+433874370+434276642+434744963+435174945+435536554
1873+435704760+435135373+433919114+434061983+435758093+437192095+437766750
1859+437791423+437552565+437162772+436470349+435390648+434109337+432583236
1846+430280823+427579032+426316558+425626318+423873316+421655457+419754083
1832+417130630+412863214+409179325+407246586+405276790+403437764+401812495
1819+399537840+396840628+394252690+391427485+388137754+385440376+383624552
1805+381809677+379475687+376542511+373940932+372460881+371119594+368604609
1792+365824314+365349303+366012093+365772405+364734625+363709443+362916832
1778+362564785+362145715+360610694+358215566+357839936+359704870+361449995
1765+362131101+361668853+361243165+361688308+362016014+362293756+362102798
1751+360047214+357394320+356948062+357637353+357615930+356541282+355119237
1738+354415949+353261682+350171308+348782714+349994916+351330557+351948034
1724+351485051+350489548+348960743+345098777+340800614+341519157+344103678
1711+345405535+344997569+342894584+340687472+340018133+338484891+335275349
1697+334515620+336373769+339003888+340423086+340046958+339022132+336879551
1684+333926210+335369203+338697344+340606809+340672122+340339315+340467593
1670+340362826+341732677+344690527+346473350+347015834+348614033+350844727
1657+351806541+350169505+347694377+350582145+353838376+356274643+361506317
1643+367912353+372910578+376311672+378505189+382939460+392162327+401138150
1630+408991095+417158056+425968235+435954769+448029531+459227484+469188111
1616+482734645+499008734+514194914+529758883+547094690+566137568+586599503
1603+608958636+633111387+658019383+683013451+708491262+733929737+758088419
1589+780491347+799691282+814325488+823987424+828921450+829140190+822531500
1576+808941360+799232450+792332139+779903550+767125642+760025143+754941462
1562+751504924+746683399+737853054+739228789+746362834+753306513+760165117
1549+767747840+774334656+778164925+779657290+782094126+793992615+808277265
1535+817592823+825121548+834260027+842640271+848977459+854294683+858356409
1522+862111519+868960396+877836292+886822839+895053240+901486843+905154268
1508+903748640+903426936+914371512+924961738+931194633+933089460+933533866
1495+937346295+941878619+942803399+942030266+945745898+951105827+954231954
1481+955794353+957266884+957433525+953551536+945548321+941285697+945172810
1468+949710069+950854158+951140275+952846729+952688155+946957270+943018058
1454+948552124+954847462+958114702+958640531+960012755+964041740+968528513
1441+972236080+974588979+975940515+980073888+985846622+989329091+991944192
1427+994848922+996050804+997813248+1001749044+1003535213+1004672090+1009868984
1414+1014527237+1016272979+1017586746+1018618381+1017263618+1015638966
1402+1016588989+1016488208+1013090103+1009939777+1009243417+1011194518
1391+1013229888+1010918649+1005111846+1003234766+1006548506+1011562247
1379+1015695241+1016540496+1014442873+1013895787+1016003849+1017225754
1368+1017397235+1017635144+1016340451+1014007861+1013938870+1015427344
1356+1015644091+1014687425+1013851754+1012566931+1011279736+1010944746
1344+1010925197+1009481136+1005524747+1002074070+1002206357+1004277599
1333+1006441461+1007740993+1007816342+1008008605+1009683648+1012229284
1321+1014503797+1016873019+1019955492+1022573251+1024293940+1026897084
1310+1030884789+1034915388+1037955158+1040356644+1043520161+1047268628
1298+1050088520+1052002041+1053670251+1055273931+1057713472+1061204861
1287+1064047053+1065502122+1066627517+1067738487+1068366046+1068540848
1275+1068094828+1067149740+1066711596+1066243750+1064329184+1061563005
1263+1059912351+1060136785+1059901628+1058057856+1057629202+1059388325
1252+1061098670+1062731009+1064563297+1065221130+1064573546+1063646963
1240+1063448437+1064356420+1065429431+1065931251+1066123514+1066569249
1229+1067401504+1068064556+1067981425+1066914488+1065571018+1065174725
1217+1066056516+1067549450+1068521774+1068316415+1067961307+1068975860
1205+1070485212+1070891375+1070987506+1071917790+1073191890+1073741823
1194+1073514448+1073095378+1072655906+1072784303+1073418696+1073348471
1182+1072434794+1071174930+1069962324+1069006417+1068123582+1067930750
1171+1068778188+1069570870+1069428713+1068275893+1065912935+1062428189
1159+1059349227+1057423559+1055250112+1052737215+1051176999+1049996279
1148+1047947623+1045516244+1043876503+1042897726+1040728454+1036341039
1136+1031328342+1027137271+1023005132+1017426178+1010540197+1003760690
1124+997861646+993029540+988761317+984352645+979386732+973190183+965897659
1111+958762570+952476912+946440172+940207941+934054476+928574407+924927291
1097+923143020+921470824+918848415+915924706+913215370+910457542+908110432
1084+906660772+905564511+904375820+903208196+902287497+901716686+901449928
1070+901487223+901696662+901509144+900922106+900839639+901623781+903139490
1057+904781604+904617715+902404696+901253584+902044084+902545524+902833634
1043+903672816+903848567+903609045+904815577+907132794+908738182+909779307
1030+910415882+909618550+908822262+910104997+912337470+913208443+912527835
1016+912074128+912605082+913100734+913499685+914751103+915993791+915648932
1003+914182855+913070082+912964176+913206165+912728544+911698048+911035566
989+910769092+909956387+908413347+907048999+905881945+904396033+902616128
976+900016780+896493410+893353144+891205889+889247575+886981413+885202362
962+884199481+883035274+881990353+881939583+882445673+882838455+883036223
949+883592989+884863672+886242443+887515309+889364585+892028274+894735427
935+896951293+899501864+903101531+906909405+909847918+911735058+913113925
922+914673856+916195639+917415077+918709010+919487553+919489546+919781072
908+919806979+917876091+914658673+912397161+910866742+908339896+905925598
895+905083569+904692589+903721974+902237675+900863174+900282304+900108641
881+899919225+899982806+900085106+901085140+904190010+907350585+910039707
868+915208416+922139475+928235716+934169872+940785395+946892455+950952662
854+952823289+953849231+954010462+951819365+948775135+947639396+948096615
841+949438376+952009445+954909715+956527819+956348747+955171348+953753004
827+952733801+954166190+958661788+962882468+964576395+964995654+965727412
814+966822344+966592691+965937326+968258719+971893309+973488827+974684636
800+977654276+981992818+986490600+991141736+996484583+1000881772+1003226320
787+1006000186+1011262464+1017059113+1020782907+1023395636+1026572344
775+1030101312+1034231649+1038529480+1040738893+1040560485+1040446797
764+1041930526+1043579377+1044564228+1045763927+1046317467+1046217634
752+1046158797+1045496125+1045294657+1046575209+1049271733+1051352085
741+1048546998+1042144426+1038122178+1039405198+1043683291+1045173093
729+1042315337+1038562030+1035092563+1033110905+1034835674+1037505437
718+1037103829+1034922695+1032638882+1029840343+1029338808+1033056338
706+1036263033+1037036641+1038251334+1038874529+1037915491+1037529636
694+1038789595+1041047122+1042141484+1040264973+1035513530+1030164609
683+1029773915+1034702722+1036176107+1032419953+1031617876+1038136982
671+1048792499+1055874540+1053759266+1049033635+1044680573+1039060244
660+1033998959+1031551542+1033051783+1034981722+1032164203+1030970292
648+1038313587+1045451903+1042296547+1032867491+1025352716+1023696747
637+1028408144+1034452381+1037325605+1040042437+1041190323+1035683302
625+1025893539+1016234356+1007371840+1002720704+1008766365+1019395025
613+1017590826+1007405529+1006613511+1014182378+1023056092+1033419228
602+1036326520+1030420928
##END=
