##TITLE=Sample description
##JCAMP-DX=4.24
##DATA TYPE=INFRARED SPECTRUM
##DATE=24/8/2023
##SAMPLING PROCEDURE=Instrument type and / or accessory
##ORIGIN=Default
##XUNITS=1/CM
##YUNITS=ABSORBANCE
##RESOLUTION=4
##FIRSTX=4397.6552
##LASTX=599.8556
##DELTAX=-1.9287962
##MAXY=1.2879058
##MINY=0.34663522
##XFACTOR=1
##YFACTOR=1.1994558e-009
##NPOINTS=1970
##FIRSTY=0.48348132
##XYDATA=(X++(Y..Y))
4398+403083911+404718465+405525505+405264344+404680177+404339680+404392131
4384+404590307+404016575+403264868+403314139+403216194+402501930+401732060
4371+401123941+401096610+401698741+402060532+401906856+401713898+401647110
4357+401610859+401547376+401329348+400764188+400286340+400222733+399665773
4344+398526286+398129710+398663289+399178308+399262488+399264128+399619434
4330+400019910+399993672+399684184+399126802+398407420+398240178+398983884
4317+399432687+398316357+396943015+396993851+397467898+397306172+397324955
4303+397665800+397651439+397701455+397977003+397881443+397572154+397619710
4290+398399817+399350569+399439296+398910314+398428788+398014149+397563507
4276+397357927+397520597+397334521+396662472+396122482+395541173+394799429
4263+394698826+395310473+395780047+396172598+396605325+396321503+395544105
4249+395396119+395763177+395600730+395076940+394774682+394619192+394960534
4236+395386329+394791652+393840328+393515907+392999894+391679425+390758115
4222+391024992+391780376+392376892+392350778+391961731+392584559+394053536
4209+394548678+393751551+392978327+392888258+392851635+392598597+392457395
4195+392251640+392145098+392432449+392757417+392973780+392985533+392558918
4182+391715825+390884683+390765693+391463980+392286450+392360742+391540060
4168+390702856+390653536+391187066+391544756+391602152+391651050+391718111
4155+391825696+391697016+390935991+389873206+389357068+389590278+389850893
4141+389834221+389775459+389669091+389486941+389230674+389113349+389367479
4128+389516857+389226450+388912862+388621064+388183691+387874525+387812558
4114+387992869+388316346+388484682+388290481+387670759+387085051+386882602
4101+386670561+386394218+386541583+387175990+387669566+387652795+387369818
4087+386824461+386154275+385793653+385565934+385483394+386079611+386858401
4074+386691929+385611602+384841185+385170079+385744407+385435341+384476240
4060+383712780+383705848+384269914+384338465+383570707+383152888+383518008
4047+383566707+383003585+382678891+382868544+383137657+383186704+383025599
4033+382765108+382643310+382494380+381886063+381322965+381275856+381389852
4020+381644181+381742276+381224996+380748190+380823674+381145089+381246612
4006+380875852+380442031+380164471+379864573+379686399+379656359+379682870
3993+379719097+379494434+378944481+378460421+378322448+378452420+378723322
3979+378856052+378514089+378032886+377992560+378130185+378007543+377987293
3966+378337778+378397634+377643293+376805641+376840824+377337978+377207137
3952+376568009+376028963+375783281+376419153+377192726+376602571+375899140
3939+376429713+376967815+376466884+375348367+374660093+374903689+375289282
3925+375102610+375156428+375796897+375541797+374186717+374079280+375716965
3912+377253724+377757115+377123553+375066259+372356322+370691629+370182350
3898+371106516+373584064+375447604+374475334+373270898+374509225+374728694
3885+372989188+372303126+371847763+372361366+374255815+374524257+373212335
3871+371937708+371482395+372747084+373111135+372198248+373027477+374815309
3858+376068395+375287443+369795737+367534305+371772851+375800649+377176302
3844+375999098+374184853+372598203+370764131+370922727+372919916+374124601
3831+374573105+375445542+376690875+377746132+376382728+372312145+372543963
3817+375283443+376110709+377724889+380004906+380265174+377995492+377159208
3804+378181966+376760793+375502440+376621305+377996561+380054624+382369849
3790+383753354+383949990+383223229+382950289+383810501+383794401+383032432
3777+383833832+385083787+385387859+384590583+383882730+384499471+385695782
3763+387272668+388266032+387365618+386626310+387642185+388196760+385820810
3750+384791219+388737570+391653708+390578027+391864730+395777588+397715220
3736+395957824+394922991+398502184+404076977+408862122+412078332+415436118
3723+420937564+428261379+436841882+446423403+456761451+468247260+482164054
3709+498360071+515030656+530694112+544215250+556288182+568677709+580093203
3696+588496600+593346048+594328977+591166261+588051399+588524577+589052765
3682+587022554+583262130+579497283+573346374+567137025+566166470+563007034
3669+558285397+558843897+560949343+561620448+561739960+561917712+560290711
3655+558264526+558260600+555266045+545778246+542467495+548145276+554205446
3642+558029428+560178305+561124163+561126896+561298636+562328823+561520565
3628+558979112+561654438+566975622+570288312+569623170+566598303+566319127
3615+568786835+572192451+575570040+575987263+574245868+574909221+577327485
3601+578932571+579295529+578943454+578134799+578808140+582280493+584925556
3588+583156880+581986956+584962627+588485866+590150186+590547135+591228675
3574+592091745+593113484+594317994+593164519+590338871+591539704+595069155
3561+597525384+599671032+602357936+604405887+605285206+605931813+607197744
3547+608293526+608941374+610949074+613898159+615370714+615110620+615705198
3534+618475985+621525599+623051127+623276385+623181372+622928583+623359770
3520+625166412+627058972+628334594+629472068+630073653+629163474+628209963
3507+629871650+632718716+633788955+633797850+633917561+633432060+632964448
3493+633636994+634936766+636166719+637483834+639214296+640804971+641669929
3480+642800297+644699915+645144419+643425884+642627564+643051595+642976360
3466+643856027+646031391+647416237+647126825+645864124+645178012+644924776
3453+643593051+642280409+642832002+644279760+645514831+646806653+647010990
3439+645706597+644725159+645184621+646975162+648402546+647672256+646366123
3426+646363738+646540447+646003265+645612776+646251183+648321148+650348278
3412+650055586+648363537+647914411+648762373+648947182+648803122+649644326
3399+649988053+649027386+647737404+646235132+645351888+645991239+646994045
3385+647133583+646878558+646739020+646445533+646334767+646522408+645974144
3372+644800593+644773659+646344706+647927778+648415814+648179473+647528097
3358+646494580+646023490+646485437+646553317+645542113+644421186+644277722
3345+644996582+645930315+646569815+646542484+646298839+646489263+647215825
3331+647667635+646868670+645436366+644353852+643877097+644027120+644586018
3318+644809885+643820894+642126509+640845471+640334477+640167757+639638476
3304+639259417+639902645+641030826+641538342+641011148+639640414+638210347
3291+637827114+638511189+639578546+640477444+640592335+640031847+639386582
3277+638846021+638738087+639567614+640973580+642094805+642978547+643782133
3264+643851554+643440990+643844399+644801388+644794729+644428193+645656804
3250+648001026+649532666+649379412+648166056+647644229+648350915+649491619
3237+650715659+651661268+652023680+652094493+652031035+651471789+650269117
3223+649231973+649294884+649881610+649795592+648967854+647778848+646528968
3210+645463001+645040809+645218064+644857342+644042972+643553843+643208924
3196+642992361+642494188+641131008+639738707+639073814+638060473+636155687
3183+635079733+635428081+635013840+632582010+629928002+629075020+629914138
3169+630577242+629756760+628256228+626631562+624317207+622097318+621014953
3156+620154964+618903097+617920366+616904491+615168910+613026394+611278986
3142+610451547+609845341+608558787+607109837+605974350+604407676+602362061
3129+601130865+600930702+600510745+599034613+597005545+595883028+595591131
3115+594414200+592421160+590919684+590458482+590570838+589710850+587682776
3102+585956240+585019327+584866570+585233653+584865676+583375927+581769549
3088+580722615+580003208+579353968+578930186+578441007+577598561+576809832
3075+576041577+574963337+573781685+572920057+572454582+571713708+570289206
3061+568600188+566694012+564886327+564307204+564609586+563858525+561649618
3047+559859574+559674964+559704681+558203801+555731620+553878963+552827060
3034+551905899+550642155+548670433+546457252+544942409+543951926+542557042
3020+540563952+538680634+537383048+536299441+534971443+533491534+532163039
3007+531104229+530217555+529308222+528184711+526920768+525892320+525046593
2993+524072758+523250884+522767122+522149736+520981153+519526090+518572828
2980+518177122+517555561+516558122+515389688+514101545+513038212+512078241
2966+510801080+509446049+508094546+506386049+504416364+502727048+501642447
2953+500931290+500175011+499344192+498574049+497763257+496862172+496070313
2939+495390661+494413049+492944122+491449056+490521932+489930435+488889316
2926+487504519+486128269+484388465+482511309+481079155+479889254+478682557
2912+477478792+476381718+475669616+475290210+474905983+474531396+474103191
2899+473335632+472407017+471635035+470950961+470272948+469533466+468533740
2885+467503056+466738826+465986573+465094035+463998154+462841896+462166716
2872+461726236+460878522+459624070+458267549+457260817+456750121+456373994
2858+455751091+454774970+453661547+452408735+450857019+449299092+448207633
2845+447738431+447572257+447243190+446680018+446105268+445490515+444763306
2831+444244511+443992766+443608191+443111111+442883467+442714461+442040623
2818+441049743+440235721+439561684+438908121+438291181+437566557+436582832
2804+435617544+435156890+435119073+434898983+434406475+434139573+433937521
2791+433319985+432661005+432261075+431748839+431101587+430538713+429979169
2777+429513794+429149345+428581750+427971420+427672218+427547687+427243665
2764+426785992+426539117+426386012+426032993+425637336+425104975+424224860
2750+423403086+423111686+423112481+422839567+422405945+422247623+422119613
2737+421755612+421425202+421059312+420390742+419829856+419754869+419775989
2723+419534083+419247751+419189908+419179274+418903080+418503597+418225763
2710+417872694+417352209+417002817+416892349+416841712+416841389+416772241
2696+416499004+416176968+416055866+416065332+415814755+415337403+415101535
2683+415072266+414873965+414597573+414447723+414313676+414142334+413963588
2669+413763673+413630098+413530712+413280781+413060566+413181966+413401510
2656+413284781+412930121+412764221+412809169+412811380+412801864+412887112
2642+413092792+413317305+413351494+413302621+413317081+413289651+413357805
2629+413676263+413900727+413791327+413709210+414034103+414619487+415156520
2615+415683789+416245842+416741680+417175401+417463074+417636056+417947035
2602+418329821+418593393+419007833+419807146+420547474+420824214+420833109
2588+420808213+420875746+421223896+421714764+421923177+421907523+422146895
2575+422702811+423112183+423051110+422775164+422683133+422743609+422804185
2561+423023679+423400303+423607176+423561855+423361046+423208140+423352846
2548+423609114+423651452+423473899+423307924+423301563+423359058+423509181
2534+423808283+423976693+423866126+423785971+423913036+424075284+424169304
2521+424160657+424106094+424215568+424524957+424840508+424978456+424937310
2507+424869131+424825451+424750961+424789374+425013837+425144182+425122765
2494+425161326+425288640+425435930+425548485+425587047+425519415+425332271
2480+425166942+425224983+425352645+425182198+424827985+424672844+424670657
2467+424485302+424021367+423533878+423268815+423193829+423154273+423107512
2453+422953165+422521581+421976845+421594755+421430321+421359260+421124261
2440+420799119+420646164+420515670+420174925+419626114+419075813+418668479
2426+418136018+417353004+416763942+416653002+416662817+416363317+415815848
2413+415340956+414988756+414650893+414385383+414107773+413712713+413331343
2399+412851109+412147033+411483134+410975941+410509572+410151807+409904559
2386+409413442+408384671+406926776+405244268+403235052+400860046+398519155
2372+396321304+393896556+391166170+388467215+386408828+385244693+384546679
2359+384025523+383910509+384925614+387568888+390944539+393110784+392710258
2345+390168358+387635303+386468932+386450396+386770718+386785601+386801031
2332+387072007+387517804+388189207+388837726+389231792+389681589+390395728
2318+391192134+391984217+392718681+393296487+393873349+394631044+395410256
2305+395987019+396352338+396610891+396856076+397097461+397254193+397311116
2291+397430578+397749260+398177440+398464070+398446205+398261720+398143500
2278+398133909+398168073+398290169+398515328+398628902+398592800+398620951
2264+398772117+399065356+399441036+399653275+399730697+400010618+400524494
2251+400950513+401259330+401677969+402152836+402519074+402746246+402959479
2237+403449627+404253437+405011729+405589535+406295549+407124827+407682657
2224+408110316+408789396+409620836+410479532+411362032+412238220+413250170
2210+414396887+415533343+416824468+418323559+419842279+421403486+422980297
2197+424540610+426316343+428321309+430373186+432500795+434705726+436958612
2183+439363408+441843987+444286452+446869249+449626271+452371416+455203722
2170+458172188+460983076+463654526+466399174+468968803+471084188+472916719
2156+474683209+476380625+477901829+479041838+479618824+479636664+479301087
2143+478803908+477884337+476079882+473434471+470334071+466881446+463024716
2129+458973638+454802252+450294046+445541450+440727235+435847176+431087673
2116+426616837+422322460+418044732+413831877+409863785+406142296+402587601
2102+399160618+395867582+392741192+389694385+386689743+383782673+381031938
2089+378514661+376159954+373915418+371841750+369811515+367712778+365675784
2075+363819425+362136246+360554118+358998376+357345411+355550522+353870449
2062+352449276+351101998+349687683+348203724+346697353+345191926+343743944
2048+342483007+341364366+340166490+338832852+337543342+336431608+335369866
2035+334228640+333156536+332223822+331303183+330402422+329491374+328515327
2021+327621821+326757112+325736068+324738505+323916358+323156426+322392097
2008+321544930+320634254+319839587+319125523+318292244+317333740+316411262
1994+315485878+314404904+313387190+312713700+312324951+311969745+311356855
1981+310543603+309842583+309286716+308716861+308083026+307330399+306337755
1967+305403029+305052966+304967071+304538866+303815708+303076275+302504382
1954+302073866+301557977+300967971+300386016+299625463+298508711+297529658
1940+297354291+297462746+297253812+296927676+296685919+296445280+296146029
1927+295722818+294978515+294244797+294093605+294046322+293914586+294231528
1913+294561565+294316007+293887354+293925171+294293297+294522506+294610513
1900+294696954+294553912+294021352+293545839+293331960+293007315+292850434
1886+293087793+293216050+293146232+293027888+292928129+292872398+292754079
1873+292362646+291109114+289251239+288993754+290398279+291476147+291808295
1859+291982793+292226860+292457138+292558586+292534560+292383468+292026647
1846+291322670+290919460+292116368+293837487+294787619+295334665+295904645
1832+295890432+295229788+295452935+296693969+297964323+299428753+300822594
1819+301560884+301801871+301799088+301288044+300405694+300081124+300409297
1805+300555146+299884588+298618557+298014786+298367732+298469975+297601787
1792+297005321+298443986+300419385+301364820+301540088+301628889+301964218
1778+302819212+303532904+302976292+301348397+301429670+303603170+305726257
1765+306852948+306956061+307180898+308197196+309144023+309928229+309971735
1751+308275586+306470138+306953651+308252653+308959810+309191579+309342522
1738+309787250+309450530+307699793+308094579+310830854+313508715+315345669
1724+316364402+317055533+317141875+315534403+314369846+317552687+322162863
1711+325700985+327641425+328333898+329361725+331347038+332737673+333744853
1697+337010383+343038327+349399588+354080725+357781890+360942096+363190882
1684+366919651+374305359+381862210+388284593+394117516+400348133+406057197
1670+411851285+420494550+429487009+436718495+444163263+452879030+460859341
1657+466711644+470933866+478776278+489536568+496581953+503975686+515127359
1643+525622387+533546147+539024957+542245367+546458693+554625154+562033994
1630+566600936+569073465+570667569+571543112+572872302+574558388+573668186
1616+570689981+570550343+571404418+570166663+567666754+565834719+564267449
1603+562201360+560449182+559455917+558538285+557752289+557960603+559134154
1589+560922807+563366166+566478791+570322103+574667365+578528318+581821627
1576+588093042+597276372+604871263+612410348+622039028+631969095+641407202
1562+649182180+654401991+663120690+678051223+692277357+705443437+717280179
1549+728587838+738137853+745107903+750071347+755913662+770718372+785936479
1535+796413667+806671212+818362105+828200489+835623243+841645844+846359630
1522+851453369+859744559+869151260+878306712+886819732+892699416+894340480
1508+891487800+893888174+906865222+916342388+920439780+920836629+921391601
1495+925053782+927794952+925971017+922842043+925133391+929058150+930464563
1481+929899453+928623335+926143850+922068123+917645042+915383709+916775512
1468+918219792+916942978+915269315+915519570+914377325+909116120+908624655
1454+917600815+926553321+933413648+938917554+944559209+950757823+957456152
1441+964483846+969738093+972465746+977392318+985590781+993124847+999723988
1427+1005798469+1009179586+1010691349+1012254097+1012255091+1013590841
1416+1020035138+1026162692+1027832081+1026637161+1025817523+1025739008
1404+1026306503+1027572583+1026210099+1021228169+1017006743+1016118032
1393+1019103492+1021894156+1018166678+1009293781+1005746391+1009426660
1381+1014398651+1017377155+1017826380+1016125684+1015458704+1017817336
1369+1020105106+1020465381+1019882779+1018382346+1016816219+1017136143
1358+1017902510+1017028707+1015450256+1014700189+1013941574+1013072939
1346+1012724293+1011975021+1009798166+1006219668+1003438048+1003550653
1335+1004834424+1005156832+1004841281+1005001591+1006018809+1008047777
1323+1010331372+1011450361+1011798908+1013174313+1015745035+1018599704
1312+1021729374+1025453174+1029373858+1032847702+1035860991+1038249936
1300+1040275823+1043326580+1047287615+1050687218+1053010270+1054228545
1288+1054981395+1056584891+1058905657+1060703056+1061508084+1061422612
1277+1060677613+1059552959+1058192760+1056702068+1055472959+1054882208
1265+1054194853+1052826405+1051320705+1050198238+1050481687+1052115695
1254+1053603307+1055106423+1056862676+1057811416+1057962284+1058339653
1242+1059717145+1061854444+1063519361+1063796052+1062813521+1061703974
1231+1061282974+1061392299+1062573702+1064820823+1066621004+1067931609
1219+1068855304+1068453884+1067738502+1068137836+1069274316+1070413878
1207+1071300999+1072179870+1073247476+1073741823+1073138847+1072397625
1196+1072126699+1071807272+1071379215+1071048359+1070730721+1070575778
1184+1070783594+1070961098+1070160344+1068647587+1067447996+1066021209
1173+1064104050+1062505821+1061486616+1060474666+1058724973+1057433550
1161+1057458794+1056565909+1053420436+1049569521+1046367498+1043382535
1150+1040050813+1036617419+1033073806+1028696343+1023447462+1018597815
1138+1014689356+1011126362+1006771559+1000791793+994103304+988022362+982546682
1124+976571090+969651826+962724810+956453346+950774520+945485686+940099951
1111+934221856+928936600+925511456+922978202+919949210+916765276+914395015
1097+913202978+912733975+912131297+911520967+911569368+911948625+912668976
1084+914699137+917545457+919106416+919244463+919921780+922124972+925310894
1070+928089830+929941494+931489135+932998413+934702985+936673116+938982851
1057+942130311+945803225+948929019+950942880+951876713+952069323+952140782
1043+953096181+955441595+957400496+957885599+958734158+960205371+961270592
1030+962114381+962296158+961667839+961095772+960899981+961070925+961663366
1016+962826979+964350072+965779046+967147295+968155468+968409698+968073375
1003+967125530+965609791+964192744+963959087+965038321+965837286+964748213
989+962060811+959743723+958633381+957663968+956176456+954485400+952866201
976+950832562+948360928+946331661+944627785+942867060+941457764+940923763
962+941153543+940878443+939813719+939042283+938687376+938794713+939680343
949+940798636+941813169+942858314+943819378+944963512+946658344+948356952
935+949720431+951353146+953576613+955981659+957764547+958870119+959728517
922+959789838+959772346+960952855+961406652+959689259+957563787+956164132
908+955421519+955462863+955563939+954378560+952101027+950044827+948234111
895+946448341+945892871+946627733+946785955+946032211+945809188+946274315
881+946321524+946094824+946673649+948171200+950524763+954009341+958497818
868+963914562+969553434+974201724+978583163+983442251+986617539+986596767
854+985336054+984409179+982991038+981392014+980652680+979907384+979165367
841+979222116+979484396+979542935+980068886+982333201+984551201+983123818
827+980189342+979310868+979779474+981293622+984414148+987679679+989817475
814+991709489+993622772+993999545+993169173+993353336+994347794+994745338
800+995417089+997108045+998724263+1000607829+1004057125+1007430589+1009674331
787+1013058628+1016635436+1017920300+1019540394+1023422417+1027370134
775+1030418605+1033172695+1035330368+1036142949+1035924697+1036162131
764+1037944721+1041240266+1044660044+1046363125+1045469644+1043125423
752+1042433198+1043736449+1044478068+1044150591+1042794467+1040094741
741+1038148761+1039497232+1042302803+1042713368+1041595770+1041372748
729+1040629041+1037596571+1033577594+1030750456+1030000388+1030475752
718+1030613402+1030361955+1029528105+1027675150+1025618453+1023321738
706+1020684825+1017747567+1014982247+1014520399+1015651612+1015654196
694+1015194535+1014780692+1012400990+1009394360+1010241925+1014663714
683+1017810180+1018281469+1018216471+1017882334+1018366544+1021472858
671+1023041171+1018220247+1013565100+1016447497+1019699511+1020781031
660+1023086988+1028393314+1033743370+1033437062+1027858120+1025520955
648+1028922049+1030426556+1028608485+1028781119+1028646153+1023108655
637+1016721305+1019603901+1029084048+1030921201+1024503241+1022416927
625+1028187983+1031622172+1025542820+1011136003+994995593+990743555+1001717177
611+1012592407+1009594126+1000502977+994638995+988255124+987036849+999456440
##END=
