##TITLE=Sample description
##JCAMP-DX=4.24
##DATA TYPE=INFRARED SPECTRUM
##DATE=24/8/2023
##SAMPLING PROCEDURE=Instrument type and / or accessory
##ORIGIN=Default
##XUNITS=1/CM
##YUNITS=ABSORBANCE
##RESOLUTION=4
##FIRSTX=4397.6552
##LASTX=599.8556
##DELTAX=-1.9287962
##MAXY=1.3809081
##MINY=0.34886387
##XFACTOR=1
##YFACTOR=1.2860709e-009
##NPOINTS=1970
##FIRSTY=0.60245574
##XYDATA=(X++(Y..Y))
4398+468446745+470556012+471692377+471393026+470450157+469199965+468488318
4384+468948490+469513776+469018659+468081814+467930030+468489384+468684872
4371+467789508+466401390+466104124+467552215+468917114+468197263+466676501
4357+466647349+467667154+467933182+467534696+467255274+466581816+465855940
4344+466007678+466583762+466536674+465525398+464670494+464427315+463765814
4330+463106352+463426466+464196278+464962754+465916005+466506457+465766306
4317+464332722+463768780+463709179+462875640+461629295+461102245+461497208
4303+462264425+463220549+464160453+464362105+463720116+462976397+462767375
4290+462833002+462567484+462240881+462357396+462678622+463021399+463437172
4276+463494873+463033496+462323053+461429728+460419564+459416908+458908767
4263+459439571+460769108+461895045+461861722+460955373+459979830+458978610
4249+458285316+458336760+458402155+458056782+457571675+457308985+458286706
4236+459789810+459599558+458223351+457617095+458029345+458648532+458924988
4222+458772508+458281284+457424201+455994742+454372899+453777025+454707520
4209+456216231+457143899+457081331+456569019+456166038+455752119+455632731
4195+456014300+455998913+455395160+455139560+455103595+454753681+454646389
4182+454540441+453847888+453355598+453428640+453613886+453714921+453719138
4168+453517393+452940798+452513578+453173318+454599255+455244766+454721748
4155+454202947+454167817+453910873+453304663+453162890+453039191+451993248
4141+451351212+452155553+452751613+451783206+450177956+449402674+449877446
4128+451031145+451840676+451717534+450967789+450121181+449486654+449351137
4114+449961147+450827916+450879963+450231671+449832629+449445498+448812500
4101+448543460+448472319+448561674+449360314+450075345+450140878+450309208
4087+450381972+449947475+449504961+449141698+448632908+448002552+447390457
4074+447141438+447610694+448431580+448513381+447888401+447788664+448038007
4060+447619407+446852932+446394706+446401241+446850893+447401626+447761922
4047+447746721+447358987+446958184+446532957+445849766+445175798+444813694
4033+444611161+444471195+444333546+444109045+444226579+444819997+445212690
4020+445001490+444696531+444921820+445226501+445033329+444545210+444176664
4006+444440143+444840019+444299899+443436189+443246725+443424464+443534675
3993+443399158+442840917+442326751+442504721+443064816+443448286+443411440
3979+442653075+441533627+441187698+442097522+443332003+443960783+444240298
3966+444331693+443761077+442746093+442095622+441841320+441470966+440926536
3952+440473918+439931852+439447904+439746791+439952290+439476546+439588240
3939+440186200+440699717+441090602+440623246+439754067+439890789+440113622
3925+439364388+438998576+439366566+438919973+437979699+438437369+440221841
3912+441714748+442497445+442528079+440167986+435647228+433137112+433508531
3898+435448402+438502068+440607813+439362673+437186343+437587053+437783005
3885+436975930+437806271+438049218+437720576+438639624+438460681+436802132
3871+434399168+432783211+434116873+434605641+433452452+434689620+437459137
3858+439340195+437746948+429355994+425984531+431484958+436297096+437975342
3844+437255584+435723792+434040401+431757196+431644297+433892788+435147105
3831+435780381+437314629+438569641+438896939+436799444+431840156+431306432
3817+433017862+433100359+435632258+439388858+440597292+438051906+435589388
3804+434934422+432741268+432544296+435454195+437079792+437941509+439363322
3790+440527448+441070951+440592704+439466627+439165052+438807119+438052092
3777+439040937+441184546+442025639+440346559+438485986+438016915+437527544
3763+437942946+438638743+437666259+437128641+438471989+439013685+435055756
3750+430950446+433022590+434927331+433125108+433704020+436274942+436319203
3736+432343153+428639387+429672678+433541993+436541248+436616422+435372765
3723+435209626+435912978+437295256+439120050+440154870+437817811+432635320
3709+431926314+435325863+438428192+439352708+438972993+439924251+441764848
3696+443045860+443647621+443163163+440872867+439792535+441989304+444701907
3682+445698955+444523844+441787048+436681724+433522249+435463372+435395938
3669+433739938+435574418+437889231+438593278+438668915+438466752+437239131
3655+437366537+440018056+439780855+432769632+428856381+430859468+432048020
3642+430301598+426751656+423099103+419675686+416775612+414752364+409489462
3628+400772323+399039759+401035570+400870299+396484918+390013443+386957877
3615+385589526+383180607+380569409+377225615+374106740+373203057+372346855
3601+369851662+367337143+365300199+362448093+359943168+359060178+357141232
3588+352360540+349614707+350554170+351350701+350484279+348903384+347311063
3574+345543693+343926299+342592499+339470681+334313796+332471739+333464106
3561+333521575+332745785+332486964+332101432+330975100+329812248+328803011
3547+327466824+326203748+325728906+325578397+324762076+323383181+322470807
3534+322014435+321203513+319952789+318715249+317607851+316449633+315886966
3520+316225271+316218805+315539809+314937075+314334341+313134412+311431069
3507+310267197+309515530+308545339+308259823+308698699+308609946+307937971
3493+307532788+306969356+305432744+303901045+303436029+303179664+302543144
3480+302345060+302507295+302132516+301201465+300437979+300332263+300328926
3466+299637161+298444067+297307772+296503408+296218263+296299114+296138246
3453+295620998+295118256+294546343+293878840+293607992+293540859+293075820
3439+292401227+291924926+291875914+292059747+291855846+291318206+290836714
3426+290434104+290126596+290007023+290126920+290370100+290746872+291232164
3412+291430573+291204889+290465295+289312407+288674056+289010785+289807432
3399+290428009+290639395+290727847+290795767+290920555+291361169+291755692
3385+291746029+291959709+292881212+293989468+294940286+295850551+296787372
3372+297842237+298841209+299675141+300641925+301948451+303448357+304853809
3358+306450764+308589322+310667004+312271073+313763401+315135205+316122776
3345+316939629+317963280+319258498+320525513+321503536+322240744+322625302
3331+322464875+322111971+321977659+321864644+321554262+321345565+321413346
3318+321481916+321657661+322095657+322003173+321073558+320318206+320358481
3304+320925621+321517417+321878107+322346576+323131149+323750614+323963923
3291+324307442+325189690+326427855+327646995+328652455+329497024+330227859
3277+330889893+331506762+332127803+332810275+333531540+334312522+334960582
3264+335391093+335875319+336634796+337407969+337712997+338108424+338940919
3250+339478073+339680954+339745955+339808360+340370077+341342840+342111540
3237+342243511+342084659+342331616+342873821+343294576+343600114+343931652
3223+344285205+344479257+344515570+344507691+344435112+344464959+344779744
3210+345370149+346005186+346171199+345801170+345679743+346231611+346646666
3196+346447238+346527394+347480899+348519752+348810228+348726572+348848880
3183+349126657+349492399+350061508+350582719+350605985+350641741+351294714
3169+351924283+352158563+352519416+353056894+353396218+353593213+353901926
3156+354270310+354473399+354383047+354193236+354312624+354753007+355149569
3142+355474920+355743311+355662090+355578411+356083795+356801676+357190058
3129+357270052+357054495+356439433+355742431+355636437+356040878+356198154
3115+356020045+356077005+356464530+356633323+356641735+357090460+357606456
3102+357642977+357661469+357946569+358163655+358145348+357944947+357810195
3088+358041973+358551388+358920606+358839222+358623758+358827543+359281945
3075+359543176+359863244+360482245+360580685+359783180+359102214+359071394
3061+359336054+359616148+359789854+359850591+359820675+359758733+359858841
3047+360282168+360786115+360708369+359962842+359484780+359742952+360097362
3034+360067677+359913715+360013591+360201850+360166071+360107303+360260038
3020+360351595+360214827+360298992+360566827+360428043+360183103+360425795
3007+361000907+361487821+361766872+361860584+361629965+361383078+361874836
2993+363082760+364223227+364935685+365497936+366250878+367145617+367784802
2980+368190494+368745816+369297545+369541165+369558892+369353926+369048225
2966+369038192+369093042+368658986+368018804+367817314+368125563+368518904
2953+368526042+368205974+368250605+368933426+369659788+370003238+370075051
2939+369889527+369443235+369043174+368954954+369287511+369842231+369896340
2926+369207634+368501548+368342000+368525138+368563072+368276397+367952969
2912+368022628+368366355+368474852+368554012+369039675+369561395+369766199
2899+369921436+370250611+370616260+370799606+370875753+371127947+371641696
2885+372271079+372774608+373045757+373132981+372908526+372387593+371927560
2872+371592684+371373698+371637177+372305746+372761840+372852887+372833074
2858+372905166+373129853+373134464+372559723+371794407+371420299+371469820
2845+371813826+372529552+373485352+374273170+374762610+375233906+375790896
2831+376150056+376294240+376500226+376713118+376900473+377364028+378081516
2818+378702348+379138420+379527451+379967394+380459383+380824267+380989677
2804+381290743+381783080+382137536+382346489+382497114+382691444+383071878
2791+383467560+383736484+383942795+384188871+384491535+384705331+385024193
2777+385717557+386350046+386529244+386513718+386609678+387025056+387704563
2764+388236781+388575966+388949657+389309675+389546226+389727579+390033743
2750+390453919+390842857+391205610+391602937+392109131+392615928+392902904
2737+393051861+393243735+393618723+394235639+394928841+395524854+395921115
2723+396245169+396751224+397286663+397755363+398429100+399154558+399565975
2710+399844192+400265665+400791974+401309847+401726315+401996051+402121510
2696+402260410+402669185+403149981+403370312+403592450+403921277+403993809
2683+403942411+404030700+404058740+404001873+404056237+404237729+404486980
2669+404726312+404777710+404625880+404632183+404932692+405282282+405676412
2656+406139318+406519683+406833633+407129322+407417596+407726680+407944507
2642+408006519+408104356+408452926+409017285+409597171+410128948+410673286
2629+411084748+411190696+411276761+411671400+412272187+412947314+413633564
2615+414222533+414742075+415207206+415604533+416092375+416749658+417446892
2602+418116040+418731334+419199848+419688431+420430158+421118030+421539132
2588+422067063+422792383+423403227+423838048+424222398+424620652+425037954
2575+425429164+425774397+426117036+426466811+426739142+426893939+427100458
2561+427565451+428254110+428897861+429204581+429158883+429201661+429742939
2548+430492684+430961847+431276863+431776477+432405628+432885173+433146520
2534+433423068+433842827+434279038+434715389+435155262+435453732+435678604
2521+435972208+436283285+436578372+436843519+437117101+437533569+438127961
2507+438779173+439281428+439482246+439510935+439781273+440420713+441053525
2494+441410392+441466888+441301015+441148952+441160492+441333967+441577517
2480+441732128+441789227+441826813+441840903+441833441+441896101+441977115
2467+441847947+441609913+441469993+441311396+441082353+440813498+440442310
2453+439902283+439294868+439008031+439070969+439098128+438947178+438539191
2440+438044954+437850114+437743008+437425907+437006936+436462367+435804852
2426+435345513+435223993+435195676+434993420+434539505+433830452+433028847
2413+432465275+432147247+431717663+431101535+430556966+430106943+429574517
2399+428982582+428422626+427855022+427198388+426527942+426082230+425761884
2386+425019972+423487485+421329879+418837189+415988142+412859951+409651813
2372+406186175+402478470+398910360+395502979+392339565+390037822+388934455
2359+388760517+389587938+391604698+394671016+398446016+401099667+400528773
2345+397231047+394249914+393000649+392711772+392920748+393389123+393650656
2332+393542854+393698949+394536844+395616203+396602082+397682553+398972186
2318+400406233+401854463+403114295+404085435+404823083+405614678+406557872
2305+407266739+407609933+407949003+408545480+409280579+409936008+410467044
2291+410850792+411105928+411465390+412024373+412549199+412865466+412930629
2278+412871398+413134136+413746463+414196301+414446802+414702217+414955731
2264+415322609+415850910+416502539+417192821+417714727+418195848+418897022
2251+419653393+420250380+420830914+421549143+422270709+422885863+423541247
2237+424299843+425018721+425717577+426467877+427244549+428189874+429250649
2224+430059994+430621990+431254061+432099279+433070419+433987566+434892478
2210+435946579+437084520+438212033+439318736+440329688+441194789+442050249
2197+443129098+444505028+445969803+447232972+448363914+449576288+450750981
2183+451864498+453211044+454860231+456536484+458054650+459460751+460918296
2170+462578514+464284522+465819094+467339717+468964897+470526026+471998031
2156+473515641+475001319+476236262+477245129+478220348+479093652+479771606
2143+480390375+480875760+481052942+481006503+480788675+480275436+479380026
2129+478174882+476905040+475707405+474336898+472534165+470379757+468163569
2116+466025243+463773785+461331844+458820848+456259333+453792226+451507214
2102+449100265+446435398+443733779+441092641+438589848+436340476+434087489
2089+431562218+429024803+426784422+424710749+422512729+420135673+417774468
2075+415646708+413765512+411875324+409811847+407709949+405666957+403751835
2062+402022190+400284991+398467613+396708307+394967818+393221952+391600341
2048+390103633+388600043+387014559+385350356+383784175+382411837+380893903
2035+379151652+377557177+376135202+374713367+373307985+371862489+370369258
2021+369016015+367685829+366180988+364832264+363778742+362639388+361372859
2008+360304414+359326832+358074809+356690676+355445652+354288292+353179549
1994+351948151+350429127+349150108+348447220+347865041+347139582+346199864
1981+345032864+343963237+343150856+342375459+341478218+340452898+339243514
1967+337993740+337148962+336657969+336038783+335230248+334434389+333668447
1954+332921414+332154939+331272250+330346158+329428594+328292043+327172362
1940+326776055+326717242+326251276+325465497+324698141+324037382+323403990
1927+322708216+321783352+320796848+320230635+319680272+319013928+318920309
1913+318939890+318308028+317409257+317000135+316974042+316859728+316607072
1900+316230044+315608448+314851728+314321480+313884318+313132280+312689140
1886+313001467+313275930+313100162+312785911+312621405+312492098+312214136
1873+311728589+310504259+308588974+308004176+309082701+310025756+310174435
1859+309865861+309533280+309433497+309407913+309179751+308647092+307825025
1846+306549945+305312104+305562838+306449906+306613277+306351675+306113872
1832+305207246+303343290+302302120+302547269+302768642+303107781+303570665
1819+303587326+303206035+302663760+301778522+300581698+299970437+300169425
1805+300276299+299566575+298068801+296952968+296891675+296764338+295482654
1792+293992875+294402067+295568765+295744789+295041414+294190890+293469787
1778+293154354+292755127+291108002+288523964+288111482+289745027+291061471
1765+291556913+291049305+290316083+290411301+290633995+290843805+290564221
1751+288516432+286037461+285911909+286977712+287537668+287357543+286845648
1738+286688348+285860441+283431686+283117481+285291355+287390356+288537172
1724+288548365+288059203+286889793+283546671+280247207+281651037+284674207
1711+286540944+286683853+285022685+283161278+282577848+280957905+277913624
1697+277515000+279826406+282904520+284645866+284369457+283073452+280517870
1684+277336311+278592065+281490401+282846888+282127130+280666850+279729403
1670+278467555+278584464+280567993+281226065+280099154+279860818+280529271
1657+280199146+277163115+271654949+271296877+272126268+271263322+273056021
1643+276836212+278938666+278915886+277121357+276400765+280843082+285986920
1630+289276628+291581384+293988287+296942609+301371138+305982087+309020134
1616+312469180+318239087+323738634+327874069+331510006+335531847+339564903
1603+343396492+347427277+351555528+355329277+358882301+362742995+366921625
1589+371126162+375249779+379334581+383380568+387300075+390477741+392465627
1576+395801727+401688265+406405161+409992458+415015703+420958645+426170566
1562+429530024+429860242+431577280+440670195+449819559+457398155+463785418
1549+469839962+474716799+477470511+478462137+480500123+490869508+502401027
1535+509772408+516542538+524853915+532168244+537890994+543228560+548118188
1522+553676131+561323272+569347349+577945238+586615707+593422821+597591904
1508+599618072+606223534+618705523+628201882+634732541+639801993+646174333
1495+654817689+662022687+666528614+671424917+680030036+689532328+697725707
1481+705205678+712213333+717972789+721887199+725672024+733682567+743826014
1468+751722452+758046685+766494969+776424434+783712716+787478262+794423164
1454+807254141+819568263+830062366+839384556+849023940+858991456+867921464
1441+875605960+882477079+889765686+898979147+908696857+917224949+925458094
1427+934236919+942022451+948664063+953943464+957005009+961471496+969454277
1414+976882015+981585517+984617122+986890965+988470355+990851814+994262161
1400+995435093+993931526+993052244+993311412+995232745+997808303+997699667
1387+994548025+993244581+996554357+1001803818+1005899256+1007597941+1006814411
1373+1006169363+1007764603+1009687048+1010943126+1011108397+1008601988
1362+1006224144+1007766920+1010429238+1011481670+1011098571+1010201677
1350+1009296626+1008389815+1006624391+1004792877+1004291039+1003315913
1339+1001533063+1001303834+1002357842+1003803476+1005715540+1007750328
1327+1008924280+1009615489+1010889642+1011912134+1012146183+1013405042
1315+1016480305+1020539593+1025173575+1029390812+1032931392+1036684424
1304+1040375259+1043555728+1046627376+1049988133+1053147932+1055417233
1292+1056937392+1058241206+1060104142+1062632612+1064738774+1065498390
1281+1065709822+1067000196+1068955361+1069549057+1068177114+1066371369
1269+1065087854+1063581136+1061381818+1059015004+1058014758+1059229588
1258+1060952743+1061545605+1061138036+1060781818+1061712359+1063211755
1246+1063790899+1064178632+1064574430+1064105498+1063769023+1064705775
1234+1065829024+1065715291+1064967354+1064235082+1063523481+1063592351
1223+1064552832+1065422845+1065525549+1065851827+1067133488+1068162469
1211+1068651886+1069050742+1069018856+1069006620+1069861802+1070818112
1200+1071170159+1071684232+1072401766+1072812579+1073046906+1073469307
1188+1073741823+1073252406+1072705890+1072515500+1071970282+1070951404
1177+1069933083+1068901136+1068209186+1068806868+1069620987+1068662267
1165+1066268944+1064650808+1064592134+1064334727+1063411601+1062433972
1153+1060700063+1058517894+1056437871+1053729300+1051223911+1050207165
1142+1049129984+1045998271+1041557460+1038108275+1035953635+1033197883
1130+1029119964+1024587109+1020368761+1016242178+1011960798+1007925795
1119+1003758057+999494381+995503593+990350532+983357151+975871759+969493950
1105+965086601+961396971+957256299+953036281+948400260+943507202+938656504
1092+933253173+927837791+922908861+917770075+912227426+907166131+903104896
1078+899374203+895267086+890816542+886026558+880500595+874612666+869078546
1065+864388670+860987870+857888692+854581419+852011702+849784854+847575433
1051+845581521+842850148+839658741+837429761+836210019+835434089+834794881
1038+834174211+833035297+830953420+829593063+830114645+830873983+830665795
1024+829647845+828052883+826970047+827390316+828345791+828378141+827544093
1011+827125493+828205733+830221983+831903983+833087390+833923292+834333642
997+835033101+836609988+838222283+838891802+838054231+835903392+834105155
984+833183605+831820838+829695489+827530838+825355805+822704703+819629626
970+816262103+812919143+810480956+808731105+806861495+805456182+805029796
957+805103115+805718965+807314669+809772785+812375686+814528009+816712403
943+819845043+824091107+828802117+833177302+837010605+841269831+846556370
930+851061880+854211854+858090113+862409033+865175723+866671040+868410232
916+870440849+871622310+871603956+870890779+869769199+868055219+866134443
903+864792624+863769205+862108617+859473551+856897901+854913630+852285516
889+849163443+847365391+846851503+846126925+844530387+842306506+840420303
876+839865723+840683643+842199538+844083887+846775681+849725438+851814915
862+854355527+859154039+864969204+869591599+873025027+876629843+881238799
849+886232985+890473209+894187217+898290256+902958442+907782630+912948575
835+919055165+924781159+926976399+925131074+923817990+926468258+931063495
822+935448875+939066854+940825975+941775518+944130374+947464899+950901756
808+954109940+956902120+961111478+966905323+971190225+973462121+976570383
795+981147915+984649843+987749392+993976204+1002152342+1008050003+1011152889
781+1014119238+1019086729+1026127939+1032541898+1036340071+1039859702
770+1044349084+1046380721+1045048357+1044103263+1044624103+1045213258
758+1045879439+1046410476+1045707680+1043637205+1042738179+1043903603
746+1043946242+1042331722+1041697148+1043441067+1046762986+1048532580
735+1046330111+1042337469+1040814158+1041405352+1040088838+1036913838
723+1035741925+1036891777+1036750236+1033529074+1030072751+1030461319
712+1033058752+1032935656+1030127069+1026570268+1023174288+1021905326
700+1022964154+1024105386+1023685952+1021431111+1019815571+1020496954
689+1020912125+1020898406+1021414333+1020999163+1020852338+1022796473
677+1026800609+1032367636+1036199919+1032340291+1020340860+1015184555
665+1024265559+1032024951+1034073458+1035471726+1035836750+1032930372
654+1031507726+1033630480+1034120546+1030458167+1026750370+1028310665
642+1037801741+1047240723+1046753994+1045007480+1047465503+1044969198
631+1036220497+1026319998+1015963729+1005611724+998316536+993893893+994715984
617+1005333183+1020033584+1028307050+1028787568+1031964145+1037746496
606+1035009931+1033203074+1041086211+1041626980
##END=
