##TITLE=Sample description
##JCAMP-DX=4.24
##DATA TYPE=INFRARED SPECTRUM
##DATE=24/8/2023
##SAMPLING PROCEDURE=Instrument type and / or accessory
##ORIGIN=Default
##XUNITS=1/CM
##YUNITS=ABSORBANCE
##RESOLUTION=4
##FIRSTX=4397.6552
##LASTX=599.8556
##DELTAX=-1.9287962
##MAXY=1.4873691
##MINY=0.48524812
##XFACTOR=1
##YFACTOR=1.3852204e-009
##NPOINTS=1970
##FIRSTY=0.69559222
##XYDATA=(X++(Y..Y))
4398+502152750+502571723+501640231+501179046+501590791+501734551+501124012
4384+500542690+500024750+499227466+499132974+499987186+500595272+500573370
4371+500427330+500697165+501510843+502054902+502047974+501851460+501238383
4357+500620831+500062960+499061632+498653158+499342784+499845965+499538867
4344+499375228+499392396+498183583+496491381+496241039+497152909+497941545
4330+498131604+498335174+499290288+500458095+500732793+500067091+499590631
4317+499944114+499967952+498831083+497896321+498132335+498813699+499097691
4303+498828415+498750920+499077037+499148422+499100832+498560732+497158331
4290+496743617+498034229+499173293+499380520+499253757+498817873+497966071
4276+497100973+496666810+496872360+497492365+497989694+497904540+497014958
4263+495862297+495552446+496488326+497572528+497511039+496887980+496714487
4249+496782558+496693962+496487767+496739702+497436040+497873774+497797656
4236+497022187+496254119+495936867+495352748+495331190+496172407+496238844
4222+495564365+495465011+495745345+495138033+494148797+494503786+495420390
4209+495340226+495137818+495231105+494732614+494100174+493992816+494348279
4195+494640446+493910029+492821567+492806120+493745830+494949093+495826282
4182+495547712+494044236+492772944+492817996+493604480+494186576+494199442
4168+493729608+492879785+492094678+492192741+493058657+493750391+494146086
4155+494801546+495196725+494319493+492883572+492351131+492350959+491550017
4141+490385437+490385739+491614518+492743599+492736757+492098465+491912795
4128+491946142+491995195+492464642+492658831+491837967+490771235+490718224
4114+491461722+491923380+492428841+493462398+494161619+493548112+491600921
4101+489386390+488401844+489303861+490952689+491972304+492648806+492956334
4087+492078801+491061122+491066328+491091974+490380188+489442027+488995429
4074+489475546+490079458+489826749+489511777+489699770+489477396+488975764
4060+488804380+488661610+488792504+489111263+489131185+489510744+490239139
4047+490315860+489914958+489873177+490262762+490265645+489311305+488360708
4033+488270390+488555070+488642935+488463934+488577015+489046203+489144911
4020+488954035+488722711+488433212+488542333+489073053+489127915+488642118
4006+488630242+488744742+488246509+487957655+488230631+488430071+488361310
3993+487747932+486529179+485680389+485523720+485604356+486250867+487335757
3979+487975598+488166260+488226113+488079470+487865530+487761013+487785539
3966+488053094+487864110+486950949+487062179+488147370+488034849+486803747
3952+485826687+484962063+484382763+485297603+486214249+485478583+485056640
3939+485481767+485706722+486032366+485804226+484750489+484698983+485444461
3925+485626000+485789897+486205299+485800698+484456601+483612329+484341154
3912+485667867+486382364+486216444+484122739+480151808+477687236+477607417
3898+479180299+482127742+484249717+483508457+482610442+483878248+483504670
3885+481263677+480762303+480174570+480266265+481747882+481726368+480759463
3871+479103363+477710601+479621432+481141088+480853051+482162639+484330182
3858+485746137+484475878+476814995+473387305+478590156+483114139+484268951
3844+483142840+481141776+478367524+476057298+477180397+479639978+480948275
3831+482139188+483178166+483209190+483605401+482486174+478037105+477783363
3817+479696862+480004089+482819907+486217132+486144672+482523824+481045305
3804+482106916+480060629+478622945+480598836+482669693+484890763+486775175
3790+487256756+486809168+485870835+485420924+485884905+485335038+484395500
3777+485651817+487903912+489158509+488227834+486315368+485513737+485281510
3763+485869544+486079138+484081603+482816292+483430144+482367930+477362883
3750+474267592+477147910+478839337+476723386+477980436+481470173+481773571
3736+477392143+473687648+475869347+481383169+485677291+486057237+484257635
3723+483698473+484305526+485446440+486958608+487707657+485258834+481164065
3709+482556139+487392857+491142361+493504136+497269173+503646329+510039448
3696+515271215+518958628+519494899+516992332+517652225+522390449+525715300
3682+525763535+523663161+519722608+511077351+503298181+502098189+498717745
3669+494627967+495623745+496712292+495540311+493731200+491525964+487183822
3655+483489825+483077694+480278098+471721438+469214869+474611824+479202889
3642+480146171+478714252+476313062+473366049+470970797+469349077+463661633
3628+454608418+453881701+457044591+457399881+452729255+445732697+442881209
3615+441887110+439515179+437373755+435514042+434230444+434224506+433169392
3601+429981502+426723218+424251288+421680133+420021882+419988749+418410144
3588+412963448+409499398+410457826+411306315+410348920+408465196+406200838
3574+404448009+404005542+403274049+399160004+393772128+393362793+395113987
3561+395006070+394114767+394184044+394015801+392384615+390867455+389964836
3547+388126336+386249239+386044120+386474883+386243387+385284098+384070724
3534+383238242+382662342+381613338+380466701+379687102+378735989+377833713
3520+377315515+376871241+376641380+376372061+375182611+373163389+371677555
3507+371327944+370659833+369242845+368734113+369058294+368976711+368427790
3493+367883602+367176894+365986109+364899498+364272393+363473216+362502525
3480+362141985+362441725+362719563+362447835+361845902+361477058+361111913
3466+360167900+358841962+357939106+357813074+357796271+357376889+356760240
3453+356158222+355638388+354874451+353795349+353188597+353336638+353989904
3439+354694590+354616277+353746791+353004196+352816116+352755381+352334945
3426+351592716+350865483+350389173+350303911+350741473+351452656+351848308
3412+351722147+351477291+351411887+351374344+351337468+351175227+350815569
3399+350866731+351462360+351866638+351773825+351710766+352119283+352510589
3385+352339484+352331373+353275171+354436825+354893083+354822709+355007368
3372+356025305+357499844+358585143+359292260+360403957+361880411+362856395
3358+363425626+364399458+365938562+367457314+368483469+369082390+369440047
3345+369866077+370446538+371091672+372024842+373188776+374360628+375157439
3331+375088679+374659292+374722201+375276242+375844569+375944525+375461955
3318+375082052+375418969+376015824+376197149+376190135+376653041+377513965
3304+378052559+377902259+377798817+378722133+380060077+380791570+381170225
3291+381564155+381901503+382228007+382806144+383718574+384645333+385358453
3277+385983621+386582929+386893297+387027633+387642475+388896813+390217717
3264+390979503+391168787+391353511+391987586+393219850+394457752+394604825
3250+394142435+394278192+394696649+394964719+395380250+395857399+396129772
3237+396373187+396927659+397582388+397902137+398022059+398290603+398667924
3223+398756736+398248821+397438499+397228260+398154373+399470845+400082631
3210+400043002+399870713+399596188+399491499+399926049+400580563+401231506
3196+401932835+402449312+402862305+403512946+404317803+404940691+405322444
3183+405499724+405063453+404388715+404737637+406041674+407313052+408060337
3169+408188649+407951990+407754745+408011499+408899660+409678227+409715232
3156+409863036+410716000+411581442+411976965+411954633+411856699+412045467
3142+412378770+412542280+412546196+412447745+412243616+412314700+412711169
3129+412982165+413137543+413196106+413150710+413357766+413750577+413908967
3115+413964991+414252468+414639470+415018341+415346695+415458958+415439939
3102+415337142+415289380+415734730+416529132+416976676+416715060+416153489
3088+416121432+416747375+417595433+418479593+419160484+419353469+418890477
3075+418080628+417917118+418550075+418996027+418817070+418472493+418386651
3061+418325549+418122668+418327959+419015562+419411472+419257988+418839789
3047+418232951+417761310+417828005+418017505+418057221+418455798+419007817
3034+418959797+418579937+418505712+418503819+418275119+418494955+419600886
3020+420473084+420343265+420179153+420462455+420537627+420393609+420377817
3007+420322697+420317964+420768306+421734134+422923413+423855464+424337518
2993+424627619+425331101+426745033+427948684+428478543+428932283+429505774
2980+430431069+431411786+431531106+431082184+430899397+430781799+430358006
2966+430357619+431202020+432073831+432167246+431232958+430091269+429785075
2953+430071906+430210976+430074316+430339547+431361529+432339061+432693620
2939+432845082+432955925+432417245+431450383+431444230+432585445+433239658
2926+432590437+431646983+431099697+430724484+430336018+429717304+429101387
2912+429430215+430742083+431802059+432118021+432337986+432790522+433276792
2899+433659793+434009318+434161210+433957941+433836815+434043612+434579925
2885+435229018+435248596+434902299+435080267+435552682+435918644+436153238
2872+436043428+435748206+435665203+435610556+435363914+435153287+435157375
2858+435238441+435176910+435079320+435022694+434678892+434324118+434717317
2845+435401220+435650788+436006552+436696135+437256286+437699442+437985498
2831+438092124+438393370+439011353+439860788+440712418+441053810+440756050
2818+440515604+441083156+442231213+443019805+443118126+443128884+443491274
2804+444035074+444550820+445034724+445517682+445885579+446083040+446328950
2791+446753345+447277826+447797444+448168655+448409359+448697567+449083279
2777+449531685+449890891+450021484+450156724+450525697+450969886+451385331
2764+451915792+452466606+452790098+452939151+453042722+453277445+453691685
2750+453954979+454128731+454594563+455356176+456080096+456313915+456311463
2737+456731555+457361973+457855816+458409169+459048150+459568586+460003351
2723+460583640+461180151+461566680+461938967+462277347+462496020+462906689
2710+463451824+463815935+464073463+464336758+464648245+465117863+465623067
2696+465952153+466189802+466452063+466731106+467164193+467806315+468340993
2683+468495597+468382861+468310572+468440261+468694218+468962418+469198992
2669+469484790+469885089+470253374+470534009+470793603+471045925+471341491
2656+471626042+471721567+471751084+472037141+472441485+472618205+472605856
2642+472625993+472838040+473254475+473669489+473868714+474013377+474354726
2629+474759328+475123611+475551836+476036730+476454068+476741200+476978720
2615+477331730+477809481+478136889+478292525+478453410+478771265+479565925
2602+480361058+480408691+480093891+479948539+480100173+480484379+480861915
2588+481189538+481316259+481125167+481027405+481279469+481667289+482000248
2575+482231270+482365090+482377569+482321760+482307475+482207432+482100806
2561+482356829+482886344+483243054+483131824+482777050+482653385+482718401
2548+482831482+483015947+483044217+483050714+483535006+484261378+484632374
2534+484683622+484668734+484643863+484658192+484781470+485033878+485233834
2521+485278283+485242224+485160125+485239341+485517008+485776300+485991058
2507+486085765+486114680+486353448+486641829+486631932+486480556+486522552
2494+486652500+486559170+486329094+486240669+486243509+486197038+486171436
2480+486307880+486501425+486387312+485908571+485428540+485334565+485558444
2467+485590458+485349539+485061546+484700618+484365465+484284399+484465250
2453+484631557+484503718+484175923+483868997+483595160+483347227+483191161
2440+483160094+483246367+483197314+482759451+482376407+482504935+482720639
2426+482557817+482196288+481971977+481891513+481719010+481402876+481092336
2413+480886270+480746727+480546642+480311747+480158090+479989459+479686406
2399+479455986+479579608+479882102+479960200+479804908+479511149+478858141
2386+477815032+476659790+475337465+473413854+470650704+467263289+463604017
2372+459794273+455986422+452496469+449073856+445622113+443159090+442251092
2359+442582028+443966400+446304510+450119203+455502905+459721812+459750770
2345+456145457+452781278+451427284+451055815+451244583+452053485+453033686
2332+453623226+454328686+455711036+457169633+458272423+459370523+460813888
2318+462607681+464311328+465679177+466920391+467988285+468924208+470038272
2305+471284994+472331675+472998796+473470695+474009074+474598571+475086821
2291+475459065+475778297+476153381+476701485+477136852+477169339+477116757
2278+477223642+477309226+477343908+477453761+477624801+477844550+478098249
2264+478285984+478461285+478751816+479118983+479525090+479963040+480321901
2251+480566349+480800728+481097456+481450681+481757392+481933854+482118663
2237+482445296+482740088+482826490+482898392+483187418+483553982+483879926
2224+484300320+484764516+485205607+485732712+486142047+486236151+486362097
2210+486748282+487174528+487584551+488082310+488569915+488915050+489137855
2197+489383077+489777825+490340085+490996750+491554880+491944507+492390503
2183+492928279+493289120+493566012+494087179+494733001+495288420+495837728
2170+496400203+496879632+497335180+497879023+498402170+498808278+499216709
2156+499711671+500364895+501119064+501682270+501946253+502049824+502137732
2143+502341389+502665354+502822195+502681060+502432954+502092595+501778957
2129+501629173+501320569+500719023+500079053+499463179+498716325+497851485
2116+497023048+496242889+495467420+494634594+493716699+492790027+491827382
2102+490790211+489770295+488754380+487613509+486440539+485477980+484668562
2089+483756433+482697489+481592591+480555678+479640580+478723073+477757502
2075+476822310+475864614+474847580+473893240+473083262+472321821+471559476
2062+470810083+469986207+469191978+468617971+468082733+467252403+466246471
2048+465500434+464945661+464253540+463502167+462843437+462329928+461945852
2035+461504761+460949214+460344355+459619790+458847764+458262871+457905300
2021+457599234+457070580+456340593+455832120+455595159+455263061+454776274
2008+454303514+453799430+453208555+452671037+452251763+451939630+451626207
1994+450891014+449715246+448867919+448650279+448698471+448677258+448396451
1981+448021109+447707814+447345209+446884756+446331876+445626502+444734425
1967+443938905+443650223+443718983+443758742+443684990+443442049+442959651
1954+442390807+441949545+441657808+441257768+440494562+439375550+438585624
1940+438903651+439551238+439679851+439434328+438970131+438457268+438022762
1927+437431758+436396438+435300747+434815036+434475494+434168353+434461768
1913+434725320+434337801+433750240+433563021+433717065+433911083+434038621
1900+434054757+433775498+433060313+432382090+431915398+431247674+431077752
1886+431725554+432176283+432216170+432155198+432069097+432024950+431966516
1873+431516347+429845961+427388575+427170289+429302333+430966436+431330505
1859+431157743+431054732+431165531+431311142+431230161+430669278+429515240
1846+427739218+426461128+427555097+429367091+429982191+429929480+429915625
1832+428954228+426668356+425584886+426261947+426963707+427985861+429177247
1819+429608828+429449191+429096568+428258406+427213619+427137071+427824115
1805+428150791+427573643+426195338+425291729+425524000+425498655+423975300
1792+422660850+424471941+427118052+427911851+427195375+426293401+425819738
1778+425987078+425834970+423870610+420742488+420753418+423825129+426531739
1765+427628161+426969516+426195811+426797271+427616887+428342571+428335514
1751+426099943+423359383+423533779+425156059+426066423+426033076+425801407
1738+426226534+425663844+422848586+422851598+426218660+429528880+431534935
1724+431873875+431336830+429819843+425542029+421628584+424143543+428619161
1711+431125428+431189542+429227591+427348171+427004713+425078563+421441537
1697+421533705+425118064+429356076+431670563+431554428+430144281+426560869
1684+422033659+424344101+429165113+431634246+431085842+429497814+428362709
1670+426798260+427530227+430710801+431977618+431287217+432187986+433934878
1657+433700499+429573286+423203532+424442294+426699681+426508116+429518941
1643+435046059+438613593+439309845+437255770+436622770+442947646+450032198
1630+454542110+457598202+460575550+463850745+468631353+473636271+476499636
1616+479887093+486768850+493408784+498127602+502197457+506861757+511660179
1603+516250985+520957110+525514354+529444451+533149247+537282570+541632931
1589+545917758+550239892+554640209+559036697+563129659+565971208+567075547
1576+570106165+577076088+582629884+586556194+592647465+600084898+606629910
1562+611219684+611962752+613735762+625369167+637843919+648735075+658456358
1549+667854580+675703801+680954758+684172596+688953160+705368250+723794902
1535+736877782+749386742+763240272+774773679+783825001+792371248+800594692
1522+809975702+821863667+834120994+847765059+862229514+873888738+879970887
1508+879863572+886322397+906047234+921916500+931505168+937090762+944386415
1495+955125420+962985957+965121487+966151601+973878662+984343056+991954972
1481+995934294+998329890+1000070241+999242105+995504778+994923629+1000326694
1468+1004427443+1004125724+1004477013+1006917617+1004970899+994158917+988115753
1454+997267504+1006084920+1009308309+1008746952+1008670361+1010935579
1443+1013645287+1014065767+1009611835+1003535108+1006946533+1015416275
1431+1018481661+1018900849+1022439468+1025476540+1024655977+1021551005
1420+1017197331+1017074784+1023217518+1026520080+1024395136+1022152723
1408+1021550661+1020339481+1019451792+1019636989+1017867981+1014080310
1396+1010548318+1008266749+1009196949+1010453482+1007171747+1000722130
1385+998389959+1001527891+1005702134+1008054013+1008257626+1006329411
1373+1004459715+1004585876+1004676925+1004579852+1005009023+1003980716
1362+1001733053+1001312316+1002802410+1003947154+1003570822+1002598883
1350+1001681074+1001316619+1001588648+1001632021+1000476865+997144785+993556253
1337+993373122+995778357+997563974+997361565+996919486+998210097+1000481598
1323+1002664803+1004897320+1007093606+1009590923+1012643572+1015438994
1312+1017664798+1019852220+1022903320+1027240729+1031229345+1033034154
1300+1033796369+1036674235+1042694422+1048566847+1051317863+1052033866
1288+1052299699+1052997973+1055200800+1058312915+1060643280+1061901878
1277+1062779928+1063228290+1062989221+1062364095+1060988803+1058522122
1265+1056530396+1056232980+1056859998+1057633229+1057968081+1057281940
1254+1055882637+1055277650+1056939688+1059719533+1061204378+1061586561
1242+1062239742+1062723646+1062587244+1062481909+1062497830+1062526659
1231+1062430532+1062198348+1062682252+1064300572+1066260629+1067045220
1219+1066789025+1067402705+1068703902+1069211386+1068342200+1066972329
1207+1067473273+1069364913+1069609146+1068792283+1069287117+1070564820
1196+1071055953+1070802770+1071475141+1073361619+1073741823+1071749064
1184+1069652347+1068755537+1069143916+1070182722+1070326181+1069116464
1173+1067885662+1067599434+1068051582+1068871629+1069447271+1068799426
1161+1067436784+1066794877+1065700220+1063018222+1060837513+1060458427
1150+1060773658+1060313419+1058434773+1055819385+1053628262+1051895054
1138+1049848509+1047758332+1046019617+1044028063+1040912677+1036664510
1126+1033224084+1031811700+1030791568+1028957414+1026710268+1024069062
1115+1021262625+1019061089+1017995519+1017523405+1015313435+1010489110
1103+1005473564+1003074095+1004034416+1005753683+1005798433+1005324512
1092+1004670041+1003390358+1003468671+1004967457+1006312458+1007763051
1080+1009208051+1010148235+1009920439+1009065711+1010234981+1012250631
1069+1012035142+1011569224+1012790817+1013625752+1013669642+1015226517
1057+1018200337+1019901790+1019794389+1019574769+1019082517+1017426503
1045+1016118078+1017104388+1019004635+1019401276+1019702221+1021767269
1034+1023821301+1023847721+1022996349+1022627763+1021987405+1021955133
1022+1023400822+1024000904+1023180255+1022120107+1020335350+1018507220
1011+1017740357+1016834338+1015832107+1016146305+1016390968+1014377469
999+1011786693+1011547968+1012453298+1012755534+1013219042+1013237717
988+1012400544+1011840307+1011491944+1010220007+1007246703+1004343537
976+1003856276+1004759111+1005273738+1005165218+1004392590+1003466175
964+1002685457+1001304571+999925405+999649073+999796576+999546148+998479545
951+996966559+996083002+995158825+993754186+993349714+994082153+994668380
937+994678191+994061155+993074759+993591365+996012348+996988590+996132055
924+997403820+1000671098+1002515149+1003113166+1003943109+1004705755+1005453168
910+1005953854+1005805318+1005915816+1006227863+1006098345+1005702306
899+1005139659+1005360140+1005970549+1004686564+1002611878+1002575131
887+1004212126+1005729845+1006509358+1006624848+1006011685+1004794567
876+1003537345+1003368586+1004919953+1006746964+1008058230+1009678530
864+1011107695+1012321973+1014252426+1016445098+1018321507+1020206951
853+1022959947+1025880755+1026985826+1027857937+1030938555+1033505407
841+1032235794+1029733743+1030981584+1036071743+1039588761+1038544275
829+1036712789+1037644797+1039990049+1041428509+1042175750+1042209571
818+1041174724+1042410947+1047111951+1050086373+1049353073+1049657632
806+1052708819+1054050979+1052025088+1050484822+1051710546+1052967767
795+1052447116+1054674900+1058932103+1058467734+1056435732+1056856728
783+1055720332+1052562950+1050758917+1051828790+1054925414+1057211201
772+1057091580+1055375412+1053366044+1052277840+1052454431+1053240227
760+1054281012+1054312940+1052529646+1051436193+1052867596+1055109751
748+1054743488+1051978014+1050686542+1049857459+1048141721+1048215128
737+1047461088+1044569884+1045723147+1050052553+1050551603+1047561088
725+1044459988+1042058281+1041422743+1042817915+1042395714+1037514333
714+1034797224+1039786522+1045598965+1045802062+1044052417+1042486678
702+1040219050+1039452531+1040380839+1041006136+1042148556+1043834948
691+1043257155+1041113450+1040727480+1041443741+1041373776+1039203996
679+1036738176+1039035666+1043323592+1043143472+1039378177+1036467265
667+1041404671+1052428183+1058060937+1054318619+1047889657+1048451616
656+1055574808+1057381854+1046172800+1036179832+1039114237+1044155687
644+1044253793+1044741655+1040913366+1030597508+1018180285+996614754+980548931
631+996687215+1026355537+1040574383+1049366928+1051648670+1038870865+1025024650
617+1021329922+1017140963+1000260945+996252536+1020937067+1042213702+1031891648
604+1007503844+998273436+1004180887
##END=
