##TITLE=Sample description
##JCAMP-DX=4.24
##DATA TYPE=INFRARED SPECTRUM
##DATE=24/8/2023
##SAMPLING PROCEDURE=Instrument type and / or accessory
##ORIGIN=Default
##XUNITS=1/CM
##YUNITS=ABSORBANCE
##RESOLUTION=4
##FIRSTX=4397.6552
##LASTX=599.8556
##DELTAX=-1.9287962
##MAXY=1.3743353
##MINY=0.17843749
##XFACTOR=1
##YFACTOR=1.2799495e-009
##NPOINTS=1970
##FIRSTY=0.21400607
##XYDATA=(X++(Y..Y))
4398+167198838+166806294+166479165+166247583+166063034+166035326+166307469
4384+166702983+166741657+166331801+166174867+166506023+166626204+166551753
4371+166639382+166525547+166374772+166707116+167403260+168275792+169016095
4357+169058076+168406299+167584817+167065724+167014767+166907195+166432434
4344+166202330+166311230+166179128+165637135+164934634+164553592+164487314
4330+164250492+163954215+163841695+163677322+163343418+163314779+163828028
4317+164009340+163426949+162870020+162625957+162459884+162759665+163431571
4303+163483401+163066991+163033217+163155016+162886551+162364187+162261819
4290+162691641+162833871+162365980+162035184+162470618+163257547+163625271
4276+163536943+163446892+163356248+163136633+163147809+163472330+163512448
4263+162823114+161824173+161159369+161020305+161378914+161860368+162040237
4249+161912350+161740630+161866108+162248547+162481457+162422443+162248966
4236+161973726+161575978+161294614+161299620+161364792+161171395+161129065
4222+161617842+162006883+161914503+161695750+161673246+161966194+162338726
4209+162377855+162247045+162464262+162861195+163023205+163162176+163378868
4195+163234414+162708045+162399171+162511167+162750678+162993390+163192212
4182+163302275+163369473+163239222+162949150+162893385+162949313+162726986
4168+162327340+161994496+161725298+161433549+161328283+161576955+161792728
4155+161735880+161653245+161649171+161681489+161729035+161671162+161384385
4141+161052391+161220024+161762098+161743634+161088027+160574906+160466950
4128+160441500+160371870+160551273+160940220+161121358+161086071+161001422
4114+160921337+160987836+161051680+160877307+160716927+160636399+160558153
4101+160841217+161417798+161789631+161805627+161487580+161122976+161054870
4087+161039258+160891871+160957450+161124187+160984879+160990956+161424015
4074+161549504+161179300+160977079+161133221+161273821+161232772+161191047
4060+161274927+161381219+161217870+160749897+160490245+160575034+160406132
4047+159839586+159640881+160205145+160838911+161024822+160984623+160834231
4033+160599389+160595978+160773286+160565488+160028163+159739337+159677495
4020+159672407+159843218+160079737+160211373+160147622+159706541+159130682
4006+158977392+159091018+158964958+158674898+158550061+158640752+158772376
3993+158748906+158526730+158339457+158257870+158041620+157825778+157771200
3979+157690998+157518930+157276183+157142137+157113439+156841121+156566568
3966+156640111+156569455+156160239+156027311+156260512+156390320+156163918
3952+155535565+154476749+153683056+154017997+154393032+154028696+154223641
3939+155139819+155594299+154734678+152736446+151585472+152261953+152795390
3925+152078336+151714046+152167374+151806658+150845193+151237167+152832702
3912+153985271+154202231+153378863+150585006+146874121+145409221+146204905
3898+148491275+151295249+152180867+150113459+148727096+149860152+149911109
3885+148541930+147968748+147319870+148129128+149913659+149403670+147522149
3871+145875995+145069892+146049600+146145135+145418325+146742322+148665812
3858+149227934+146824212+140281541+139409788+145046689+149433729+150621958
3844+149111444+146319532+143065141+140411896+141134119+143719921+145506350
3831+147000297+148363260+148821349+148647034+146413762+142431968+142872256
3817+144890559+145676195+148160352+150788264+150734268+147923391+146294187
3804+146001240+143935997+143605737+145725941+147988609+150677758+152747576
3790+153248379+152636080+151590245+151158910+151253582+150262162+149556902
3777+151147256+152858978+152772478+150960833+149640002+149986398+150806274
3763+151762885+151524468+149692228+149209284+149931902+148380956+143329437
3750+141426461+144787411+146536317+145614120+147383260+150288869+150319604
3736+146964801+145357729+148578683+152927817+155422486+155447587+154774144
3723+155505179+157634546+160472596+163030796+164258956+163205589+163272821
3709+170717223+182601217+195139455+208098552+221934524+234116238+241932112
3696+245642904+246315113+244067044+239734151+237925754+239661645+241318789
3682+241270684+240033327+238072746+234269819+232850032+235687791+237011695
3669+238852270+244063831+248812716+251484413+253455612+255353955+256332697
3655+257822034+260298938+260074503+256886367+259811627+267546776+274138053
3642+278673586+281969853+284816227+287175640+289346871+291473071+291371949
3628+290956213+296209639+303222612+307869233+309175954+309628548+312712278
3615+316963538+320790493+324424914+327658151+331609094+336806544+341148984
3601+343826828+346589543+349781358+351866858+353903391+356762944+357806905
3588+356490265+358159214+362961769+366500050+367823395+368248560+368900954
3574+369989131+370981471+371029366+368780925+366144457+367495160+370464776
3561+372055049+373308053+375123901+375908292+375472812+375725373+376473744
3547+375985432+374918467+375122388+376302397+377312689+377782257+378131028
3534+378484246+378539499+377882611+376456188+375214243+374859838+375633658
3520+377135312+378130981+378095101+377346730+376055866+374457560+373413972
3507+373232963+373048716+372528785+372209562+372017748+371658244+371275571
3493+370569624+369189862+367799133+367340508+367631162+367270586+365849006
3480+364974390+365157542+365245439+364940465+364671605+364505660+363962491
3466+362874757+361979115+361472525+360977857+360474062+360068035+359810421
3453+359446795+358665338+357479043+356339874+355854286+355975829+356346230
3439+356818453+357263549+357494690+357418248+357308814+357548336+357893824
3426+358097884+358480883+359050851+359495180+360021980+361383557+363634140
3412+365664527+367107133+369041939+371857345+374383610+376028065+377537356
3399+379459402+381894209+384873557+388187194+391287666+393884901+396329906
3385+398792280+400966585+402925467+405302528+408151463+410526243+411847004
3372+413037375+415312592+418212892+420465757+422237342+424267938+425875558
3358+426326708+426518987+427448204+428597967+429036591+428618411+427765984
3345+427484667+427998545+428167866+427854510+427573286+426947552+425830433
3331+424872856+424433720+423877326+422689610+421476375+420864844+420560616
3318+420180668+419849570+419610303+419683974+420579196+422087253+423559639
3304+424860190+426542737+429008464+431626981+434287828+437867694+442107055
3291+445831887+448678075+451335243+454022820+455923631+457223343+458581405
3277+459627787+460471505+461734615+463520729+465619920+467415441+468027484
3264+467374601+466901657+467811781+469426432+470469415+470379958+469669890
3250+469256087+469325985+469467645+469369154+469212499+469096312+468818487
3237+468416280+467862168+466853366+465746212+465384985+465363005+465082852
3223+464932111+464783187+464511556+464223347+463792733+463454836+462970575
3210+462287423+462280624+462854668+463007969+462650327+462464475+462442634
3196+462247561+462328729+462803536+463072233+463118894+463150560+462913669
3183+462345074+461549461+460754918+460741320+461366402+461413342+460928570
3169+460409477+459575025+458986174+459344793+459714543+459130627+458271774
3156+457924564+457471830+456505032+455976719+456181478+456295383+456043916
3142+455618518+455116748+454544800+453819411+452917622+451864162+450820760
3129+449988730+449266508+448387677+447542003+447059605+446630481+445965444
3115+445255422+444702474+444280056+443834028+443299242+442294305+440566307
3102+439072035+438642259+438587867+438055689+437156228+436614131+436946440
3088+437516804+437399732+436823454+436312743+436015499+435808412+435254765
3075+434493612+434101370+433850555+433001248+431474098+429749640+427792342
3061+425455421+423292153+421701158+420367079+418781719+416907312+415246233
3047+414135447+413364747+412582871+411922444+411593488+411434039+411558376
3034+411699943+411059121+410081892+409869356+410370800+410902652+411501330
3020+412694122+414336388+415832524+417012416+418132655+419743441+422573656
3007+426700835+431383244+436188499+441418362+447659074+455559609+465914509
2993+479030796+493893475+508832246+522046791+532471030+540898528+548327470
2980+554534374+558633380+559576334+556298788+548756128+538922370+528692599
2966+518474376+508869640+501002261+495493457+492055670+489916012+488830512
2953+488874892+489777798+491120585+492442510+493461697+494333961+495484423
2939+496795777+497273005+496400927+494445957+491549756+487747947+483271182
2926+478767035+474396072+469391879+463797809+458451294+453403419+448446073
2912+443882878+439930375+436454030+432984484+429196692+425796718+423389294
2899+421364099+419292617+417518657+416399209+415971436+415753451+415214706
2885+414365819+413453599+412368938+410670930+408145922+404942977+401411728
2872+397869629+394291579+390549517+387023717+384277185+382142509+380152031
2858+378078197+375599244+372640548+369468944+366091136+362537348+359280851
2845+356373868+353286203+350203473+347763964+345893678+344155878+342327386
2831+340338375+338391136+336859818+335691125+334625138+333802701+333203092
2818+332467318+331585111+330639455+329631841+328810638+328230238+327633423
2804+326882468+326000960+325090486+324120546+323046455+322025290+321043800
2791+320054696+319194167+318357550+317393942+316382929+315416341+314622939
2777+313962070+313145524+312154930+311163637+310205269+309404882+308873192
2764+308553549+308472032+308506493+308359594+308008052+307571990+307148268
2750+306738074+306154065+305515129+305151946+304867485+304360174+303839195
2737+303555456+303349602+302935939+302439082+302203262+302133573+301924320
2723+301638090+301441503+301275069+301057597+300737279+300334234+300021832
2710+299850136+299628380+299244706+298943551+298879823+298712341+298215158
2696+297620509+297153152+296677111+296005881+295326594+294810528+294322169
2683+293751316+293070376+292264773+291449974+290748963+290050816+289239299
2669+288440612+287764142+287097638+286341747+285637174+285069813+284469831
2656+283741019+282988341+282356880+281855669+281390571+281032300+280887800
2642+280812453+280595609+280304164+280128323+280014883+279946661+280076144
2629+280308797+280457023+280579287+280819601+281188419+281595470+281932971
2615+282110768+282243300+282513953+282822792+283037470+283250146+283427547
2602+283353527+283132679+283052046+283049508+282949969+282772312+282580802
2588+282317949+281866752+281336366+280864399+280376763+279937487+279555048
2575+279006687+278330706+277688418+277070857+276398578+275619706+274877738
2561+274248931+273551878+272779502+272128202+271641590+271259407+270921487
2548+270580819+270281014+270013830+269795054+269710184+269703967+269823763
2534+270114068+270371868+270543890+270732630+270965726+271288605+271730256
2521+272192862+272570854+272848702+273037838+273276685+273746020+274299643
2507+274664038+274848913+274980770+275109227+275204366+275221130+275279294
2494+275461374+275579378+275511458+275404119+275348168+275264927+275095304
2480+274836735+274628809+274497161+274224553+273918717+273801087+273762831
2467+273725879+273730862+273712398+273524124+273196262+272942862+272877621
2453+272935877+272872102+272490618+271957135+271555090+271344114+271226111
2440+271066988+270783366+270509803+270376804+270250326+270086616+269995529
2426+269941790+269843950+269687063+269566568+269604172+269723200+269809467
2413+269872008+269908214+269903720+269966587+270206785+270491455+270646107
2399+270727135+270918204+271262108+271507009+271507707+271512504+271633394
2386+271556301+271000652+270006286+268729742+267230533+265495806+263494478
2372+261096228+258364737+255781496+253550727+251611031+250245612+249795137
2359+250210081+251185377+252776884+255438848+258984254+261704988+261789718
2345+259430142+257089310+256297282+256491843+257068774+257821033+258447116
2332+258745547+259094108+259882760+260963695+262007423+263097998+264435989
2318+265725479+266692650+267397316+267892497+268348630+268999254+269734516
2305+270340947+270747835+270920462+271051644+271412639+271896340+272181243
2291+272207601+272155095+272143314+272231420+272332799+272257196+272026172
2278+271731001+271375874+271009011+270694840+270465679+270349795+270288046
2264+270129016+269902673+269749138+269599888+269436830+269441044+269544868
2251+269505332+269370052+269284995+269247345+269217984+269131950+268980324
2237+268874662+268849305+268820689+268794844+268808838+268840038+268914524
2224+268978950+268937528+268908842+269033156+269156258+269118980+269128061
2210+269333589+269603753+269852892+270043727+270181917+270319130+270444235
2197+270524518+270574043+270661405+270764483+270828025+270963817+271151393
2183+271114953+270891008+270784041+270745483+270594510+270389331+270218054
2170+270063542+269835452+269522492+269255494+269054228+268803645+268474387
2156+268091994+267766740+267645919+267576789+267277683+266751884+266224572
2143+265861993+265612226+265317707+264927887+264545959+264235421+263890632
2129+263455501+263007657+262555668+262070080+261646708+261362434+261133296
2116+260845389+260486700+260147778+259886532+259636415+259334375+259019948
2102+258771788+258652248+258678419+258866554+259218631+259559927+259741379
2089+259903273+260144961+260376054+260649688+261052291+261435080+261710762
2075+262035108+262560627+263242988+263801873+263994734+264048125+264437270
2062+265157374+265847371+266363344+266758171+267131203+267484561+267764039
2048+268045705+268357361+268591715+268727763+268907748+269168389+269356547
2035+269438483+269502514+269604661+269771141+269936085+269947122+269792865
2021+269619516+269413662+269205178+269276264+269505797+269461907+269179565
2008+268967821+268910496+268855406+268654255+268398970+268286811+268265343
1994+267962209+267348350+267027380+267179727+267462511+267720055+267923115
1981+268062213+268143847+268233677+268404721+268659378+268836732+268621844
1967+268265017+268475388+269042842+269373754+269528965+269528639+269296893
1954+269105546+269019092+268772119+268202150+267283574+266075601+265258403
1940+265469589+265919691+265934803+265740498+265538230+265337638+265104798
1927+264687852+263849070+263019648+262858313+262878267+263038578+263836380
1913+264482580+264302199+263942462+264256889+265017460+265606405+265993595
1900+266324181+266427934+266328302+266474106+266672602+266553947+266977273
1886+268122472+269022398+269608596+270240151+270928868+271540002+272028966
1873+272122917+271063612+269441627+269920997+272301784+274217102+275090693
1859+275531832+275967219+276440745+276858553+277154586+277073278+276403677
1846+275244973+274835245+276629089+278836504+279896671+280468153+281105039
1832+280799158+279400745+279267677+280722693+282362677+284304003+286158130
1819+287312852+288046088+288585974+288597755+288453628+289272944+290820561
1805+291962151+292089561+291568629+291725633+292859632+293638598+293155525
1792+293039850+295584347+298711643+300378357+300942155+301348903+302173645
1778+303556085+304330254+303280565+301452773+302717326+306686896+310288649
1765+312336708+312912684+313727740+315701290+317839342+319889776+320867005
1751+319745252+318670836+320512180+323627414+326115936+327843864+329675592
1738+331991021+333102063+332943778+335656548+340797559+345899825+349716512
1724+352181564+354193649+355162822+353748786+353429143+359003492+366145504
1711+371714893+375155731+377016773+379294272+382564764+384958637+386948812
1697+391749667+400104286+408390683+413802533+417679223+420851619+422687887
1684+426446015+435677835+445294446+453063939+459593140+466483476+473120669
1670+480201980+490783573+501309843+508725698+515035518+522415423+529320195
1657+533668712+534920971+537595509+545912920+552702483+560559803+574443856
1643+588678706+600380724+609500920+616581952+628023981+645833760+661648800
1630+675488427+689293594+703122511+718471918+736611026+752368881+764571644
1616+778273197+793535196+805946677+814999769+822526829+830179063+836792180
1603+841748036+846468631+850858593+853237378+853484095+852809232+851790512
1589+850097766+847589522+844330789+840341311+835860914+830487623+822036282
1576+812163593+809108083+808853356+806331235+805330396+807234374+808735074
1562+809204572+805950402+800151480+806536041+816422234+824549089+832113776
1549+840460618+848485490+854534296+858188950+863964868+883042181+903025427
1535+916860583+930491679+945386257+957286142+966123438+973616224+978784337
1522+981029751+984202520+988513503+993223853+999204856+1002614842+1000364771
1508+992005542+986925722+995980397+1004427547+1007907943+1007660202+1007041966
1495+1009769731+1012304053+1010238763+1007317741+1011595195+1018564184
1483+1022434914+1023072895+1022556456+1020517897+1014738626+1006191728
1472+1002740110+1006933183+1010217435+1008470391+1006200389+1007661413
1460+1008297252+1002056772+993964935+994771865+998356853+1001024639+1001729585
1447+1001363002+1001431923+1001694473+1001922190+1001026502+997488175+995379298
1433+996733774+997377529+998445146+1002246862+1004387685+1002953950+1001497025
1420+1000275081+999554209+1001872735+1004070836+1003153540+1000672865+998904306
1406+997024637+995394851+995588481+994475600+990118980+986038136+984961392
1393+986360852+986376685+981998551+975483320+973357865+977068121+982326855
1379+984864065+983898617+980829230+978442528+978204007+978321079+978765058
1366+979578693+978695858+976945554+976735998+977257187+977103327+975998082
1352+975284475+975578785+975320984+974055267+972994542+971807338+969323496
1339+966847756+966673127+968143650+969805474+971182768+971858190+972551774
1325+974681140+977309064+978663447+979796632+982510519+985438248+987447190
1312+990324345+994198800+996734146+998057887+1000543965+1004105110+1006889316
1298+1009131004+1012295764+1015803542+1017742167+1018079691+1018908229
1287+1021572848+1024286270+1025217909+1025895938+1027410887+1028231694
1275+1027618674+1026627800+1026281148+1026528704+1026037225+1023539972
1263+1020564465+1020044021+1021778026+1023335631+1023952284+1024099625
1252+1024041509+1024177208+1024372141+1024081278+1024017293+1024705382
1240+1025285898+1025498620+1025715813+1025800474+1025426440+1024725965
1229+1024514825+1025627520+1027502533+1028470774+1028428025+1028248552
1217+1027658163+1026840523+1026802616+1027152994+1026399897+1024705754
1205+1023969235+1024833816+1025586541+1024837541+1023268574+1021510912
1194+1020158765+1020298189+1020779516+1019494985+1017207753+1015549840
1182+1014354533+1014337117+1016376887+1018454657+1018938032+1018321472
1171+1017321658+1016627050+1016849738+1018063113+1019284777+1019608238
1159+1019350904+1019376609+1019975194+1020524044+1021183260+1022297259
1148+1022544721+1021464065+1020668498+1020815000+1020892024+1020616155
1136+1020294277+1018844896+1015439381+1012087232+1011258788+1011852157
1124+1011419354+1010427084+1009645953+1008262233+1006538380+1005173286
1113+1004085552+1004208584+1006242207+1007572095+1006347917+1004995024
1101+1005010857+1005950412+1008335530+1012147677+1015924433+1018551890
1090+1020308993+1021732203+1023315141+1025186429+1026489121+1028171901
1078+1031180471+1033013014+1033337313+1034635628+1036391240+1038093206
1067+1041684900+1046621105+1049970459+1051514281+1052807846+1053908899
1055+1055153101+1056444804+1055776833+1053405778+1051714616+1051566902
1043+1053084087+1055574076+1057238229+1058474701+1060622695+1061515683
1032+1059522015+1057361168+1057599317+1059819398+1060925015+1058437726
1020+1055003711+1054411181+1056064716+1057626047+1058328292+1058256856
1009+1057495377+1056279208+1055591492+1055582458+1054772548+1053512233
997+1052950157+1052254991+1051236363+1050638710+1050843795+1051554236
986+1051352317+1050315807+1050124786+1051072909+1051985828+1051642342
974+1050527040+1050012091+1049742090+1048413972+1045436975+1041201339
962+1037487450+1036223782+1036761456+1036911125+1036579282+1037555998
951+1040031272+1040906563+1038025776+1034026798+1031945490+1031773840
939+1032730253+1033762572+1033534668+1033039092+1033685455+1034635255
928+1035654349+1036797965+1037341413+1037612811+1037771329+1037126548
916+1035465748+1033635162+1032898363+1033612157+1035003794+1035565031
905+1034329024+1031666641+1028641772+1026974080+1027426068+1027973428
893+1026829812+1024866041+1023677999+1023991308+1024608893+1024264383
881+1024179257+1025289996+1026507562+1026579463+1025036294+1022538015
870+1021268479+1022848530+1025529169+1027071966+1028195651+1029549288
858+1031011336+1033429331+1035646246+1035301736+1033555251+1033180565
847+1034417597+1035541747+1036001373+1036404279+1036922394+1037565964
835+1037728393+1036550130+1034789768+1033957971+1033981534+1034487914
824+1035342436+1035729230+1036505145+1039160637+1042263554+1042702317
812+1041459791+1041539981+1041176751+1040418159+1042002401+1043461934
800+1043136796+1044109042+1046713682+1050408571+1058090423+1063524625
789+1057005761+1047384540+1044848262+1046064711+1046046363+1043960956
777+1042675122+1043355014+1042657612+1039823206+1037470872+1035789768
766+1033207575+1031069080+1031435663+1032633112+1032177957+1030987400
754+1031921461+1035514924+1038268861+1036983957+1033788091+1032151786
743+1032289999+1033425420+1033827487+1031803085+1029547798+1030762477
731+1035166782+1037377829+1034594741+1031425232+1031701287+1033584961
719+1034287020+1034327627+1034762106+1034877688+1035011059+1036048221
708+1036976134+1036172185+1033842296+1031557672+1031557299+1035011990
696+1038281900+1038304625+1037738824+1039565406+1043824978+1046595027
685+1044192585+1039419369+1037292330+1040079796+1046079519+1050069277
673+1049511020+1045964869+1042005567+1043585153+1048439491+1050448247
662+1052093772+1053873134+1054981918+1057174989+1058780932+1056261512
650+1053823027+1058345615+1063462224+1060344498+1056048138+1059204887
638+1061611985+1054811293+1050603132+1052193987+1051880584+1052432228
627+1056272968+1056440333+1051381189+1040581519+1030011894+1034019347
615+1050470227+1058110912+1053630608+1049302395+1048769192+1059232921
604+1073741823+1066933307+1049902470
##END=
