##TITLE=Sample description
##JCAMP-DX=4.24
##DATA TYPE=INFRARED SPECTRUM
##DATE=24/8/2023
##SAMPLING PROCEDURE=Instrument type and / or accessory
##ORIGIN=Default
##XUNITS=1/CM
##YUNITS=ABSORBANCE
##RESOLUTION=4
##FIRSTX=4397.6552
##LASTX=599.8556
##DELTAX=-1.9287962
##MAXY=1.2861954
##MINY=0.34430778
##XFACTOR=1
##YFACTOR=1.1978628e-009
##NPOINTS=1970
##FIRSTY=0.48501715
##XYDATA=(X++(Y..Y))
4398+404902086+404205557+404487866+405877241+406277977+404972097+403906181
4384+403630217+403210897+402556987+402101591+402162222+402314386+401962390
4371+401614897+401808659+401957911+401676598+401839932+402788168+403503605
4357+403459568+402917243+402221983+401638657+401153107+400904261+400968923
4344+401087698+401375256+401855905+401769473+400645489+399321248+398812884
4330+398900460+399165701+399807221+400469043+400787725+401061998+401012164
4317+400467276+399621022+398362688+397319860+396717973+396439919+397364668
4303+398797011+399384144+399617390+399440645+398300887+397122142+397104552
4290+397862484+397709450+396540856+396156939+396875660+397459833+397504915
4276+397497948+397783242+398055350+397943741+397519718+396984508+396568796
4263+396391155+396419692+396266583+395662706+395286900+395382438+395064999
4249+394080216+393395803+393712620+394524192+395125904+395392290+395241221
4236+394674017+394021848+393486887+393274938+393536696+393886379+394006696
4222+393929346+393720059+393486315+393263046+392899282+392612271+393167235
4209+393977065+393620416+392844969+392771251+392896371+393238092+393907949
4195+393855727+393228488+393328355+393857494+393875954+393433123+392690517
4182+392230568+392752218+393117525+392496805+392139235+392263807+392055466
4168+391598204+391087799+390576449+390264484+390369526+390827783+391296017
4155+391702524+391973886+391794578+391483559+391485400+391109743+390238485
4141+389950803+390154741+389793290+388792011+388136459+388263395+388488182
4128+388526969+388921908+389784109+390327678+390043380+389600473+389894450
4114+390437248+390076619+389285398+388995526+388867421+388592004+388390953
4101+388471886+388874213+389026004+388220005+387031557+386504657+386502294
4087+386412777+385886077+385206615+385093488+385445683+385810244+386032319
4074+386025900+385997039+385904214+385266675+384260544+383576331+383333009
4060+383443623+383898770+384290101+384345483+384140600+383513510+382502305
4047+381898950+382293863+383216846+383787957+383575883+382774636+381786892
4033+381180925+381584447+382252588+381902881+381083198+380578566+380030319
4020+379602167+379673621+380027359+380365174+380332382+379856212+379368299
4006+379498692+380152578+380293222+379693773+379134256+379013839+379036380
3993+378650349+377981411+377853605+378408395+378835527+378643731+378060528
3979+377711766+377962378+378260361+378315743+378378091+378120115+377508102
3966+377292496+377552338+377500041+377025488+376922935+377641706+378355451
3952+377786679+376280146+375721276+376636645+376901812+375731103+375524578
3939+376597734+377156429+376617886+374935678+373334802+373573870+374527777
3925+374613338+374637720+375150065+374900150+373964927+374061932+375263442
3912+376427358+377076417+376800502+374572013+370868638+368745365+369134382
3898+371258899+374037277+375198133+373490598+372265253+373459896+373469699
3885+371971401+371449129+370718963+371324158+373542372+373663784+371637318
3871+369686087+369254128+370704806+370771857+369576144+370922901+373656644
3858+375312678+374009610+367466679+364964142+369879426+374472868+376166595
3844+375275981+373020772+370597874+369164661+370119315+372023474+372997186
3831+373872076+375142900+375840747+376183090+374675736+370904813+371641174
3817+374268408+374473839+376229242+379367627+380382863+378282529+377012650
3804+376985333+374145005+372393632+374020582+376078522+378390830+380471235
3790+381658165+382118363+381778657+381312663+381388918+380609665+379769133
3777+381245537+383206894+383533588+382115328+380996841+381652990+382908513
3763+384098802+384054915+382515167+382563334+384341602+384231933+380515496
3750+379466548+383525228+385850200+385132524+387184293+390791434+391986101
3736+389780452+388772033+393053187+399226681+404122907+407206234+409959930
3723+414594672+421561925+430554649+440737164+450890122+461348950+475078049
3709+492563964+509927124+525270061+538784151+551646645+564494409+575934587
3696+584490475+589486693+590259701+586739987+583583316+584452609+585918364
3682+584719169+580448987+574718374+565793522+557646554+556757010+555066840
3669+552397859+553919295+555229055+553962386+552203151+550867068+547697957
3655+544850041+545388236+543909195+536023613+532016458+535537913+539808045
3642+542119607+543002882+543732152+544339711+544865964+545435408+542776328
3628+537911027+539709671+544684045+547677556+546647143+543369557+542854400
3615+544080317+545261002+547065568+547730649+547502802+549025432+550161284
3601+549165155+548885758+550349622+551485525+552953718+555154367+554588506
3588+550513778+549648068+552766126+555290110+556352567+557325558+558858936
3574+560382462+561373416+561641319+559415144+555671066+556877128+561519359
3561+564660705+566219908+567946600+569574670+570474316+570745205+570343200
3547+569378967+569496150+572134580+576211198+579431910+580192628+579756936
3534+580567264+582218771+583242217+584134797+585352503+585810835+586156810
3520+587862106+589870038+591035297+592043667+593276002+594063938+594524957
3507+595425100+596130884+596228263+596546273+596913596+597236931+598057011
3493+599115090+600000355+600585175+601098888+601661863+601494225+601028529
3480+602202795+604301985+605376981+606201043+607484133+607874941+606962806
3466+606607227+607912758+609124991+609109466+608853156+609179178+609947310
3453+609899243+608735625+607747657+607376056+607649482+608904010+610937319
3439+612964507+613208277+611454466+610431218+610823370+611311707+611989824
3426+612780398+613163792+613194543+612605395+611403661+610735545+611240601
3412+612359634+612998691+612552899+612324803+613615108+615569846+616492580
3399+616050221+615659065+615681257+615062651+614234311+614243864+614762703
3385+615391609+615988570+615437835+613202355+611437249+612532199+615056481
3372+616407641+617167663+618077360+617979682+616898864+616489296+617120392
3358+617530158+617522495+618078454+618972626+619284865+619315716+619519529
3345+619349602+618596447+618461252+619589789+620064044+618946652+618358449
3331+619364928+620557257+620466197+619652784+619930391+620851781+620419722
3318+619577250+619760662+619619545+618809914+618020535+617194035+616824573
3304+617122481+617679635+617905442+617978339+618815686+619647659+619414687
3291+618792050+618425176+618198125+617829211+617619874+618619137+620405790
3277+621408785+621910855+622858468+624102796+625198990+625576960+625476696
3264+626153719+627062570+626461778+625505656+626182430+627824184+629117026
3250+630156296+631719679+633066261+632962812+632393866+632310071+632082622
3237+631361761+631037182+632418148+634953128+636092862+634908693+633373773
3223+633478715+634941236+635647020+634762551+633769308+633436569+632524384
3210+630512621+628882013+627734667+626036884+624683286+624738519+625358617
3196+625403848+625884174+626807305+625481224+622800748+621630860+621037283
3183+620118431+619837242+619769022+618722288+616700424+614938602+614547644
3169+615162170+615471970+614335322+612253050+611037384+610669067+609667465
3156+608024716+606797705+606386694+606391571+605824117+604002385+601631958
3142+599803607+598791755+597893503+596370275+594753899+593600979+592439352
3129+591038781+589924673+589572328+589342391+588200916+586436954+584540384
3115+582539518+581190150+580725847+580511534+580405348+580238406+579687124
3102+578674227+577552457+576941613+576489153+575446848+573965816+572565494
3088+571895835+572146323+572108008+570981063+569725341+569029459+568529479
3075+567921621+567388900+567236189+566944899+565949168+564459727+562675364
3061+561101631+560110379+559404446+558720606+557807276+556691875+555383557
3047+554118630+553695627+553511319+552259976+550199599+548410657+547018844
3034+545042012+542633022+541139053+540343603+539218847+537984173+536913555
3020+535766308+534819939+533813759+531891911+529546214+527855995+526720790
3007+525573393+524435202+523171967+521525038+520036244+519226513+518914971
2993+518630299+518139823+517438716+516429601+515439592+514844722+514349618
2980+513652592+512912574+512349748+511669441+510517864+509271198+508264620
2966+507011834+505378938+504100824+503469927+502957010+501736766+499822979
2953+498094993+496539621+495046498+494343998+494259856+493801325+492869933
2939+491820413+490403471+488657472+487313378+486647103+486288140+485829410
2926+485037593+483836755+482170221+480179855+478361058+476883709+475546481
2912+474552592+474119986+473927318+473771323+473609855+472989905+471911475
2899+471026459+470405813+469723366+468681509+467241130+466153744+465761492
2885+465341127+464639771+463987926+463378825+462777634+462175250+461325413
2872+460088202+458747889+457662891+456822409+456203504+455767962+455190657
2858+454327534+453395495+452560587+451520322+449945046+448299511+447293480
2845+446829775+446423690+446008201+445619632+445142193+444584044+444051273
2831+443381216+442381555+441466334+440960582+440564400+440138611+439692271
2818+439046945+438339768+437885068+437513666+437021846+436553364+436127475
2804+435551961+434757009+434108298+433923145+433828055+433405052+432797493
2791+432296717+431970297+431658954+431190023+430717859+430407013+430092386
2777+429618132+428898863+428140484+427770475+427638961+427280745+426624173
2764+425868082+425224597+424843591+424690134+424550609+424370182+424270913
2750+424145719+423771580+423186760+422637469+422322842+422100866+421656965
2737+421106430+420786379+420623915+420435029+420340139+420231912+419847622
2723+419420838+419131936+418816563+418423864+418042012+417859147+417966826
2710+418140983+418081919+417759877+417354017+417035608+416877399+416821917
2696+416820624+416796689+416662688+416371771+415895675+415451849+415257265
2683+415263062+415250274+415041833+414821126+414800526+414839438+414724619
2669+414488636+414243074+413989651+413863885+413918371+413895332+413684677
2656+413429935+413349027+413558811+413779344+413694977+413408812+413147751
2642+413063160+413200968+413419411+413530548+413535151+413619194+413852589
2629+414174307+414491721+414610919+414457039+414386729+414823216+415502031
2615+415929984+416248592+416731779+417218498+417471971+417668370+418072365
2602+418394655+418470488+418789046+419554839+420429058+421024775+421251229
2588+421345771+421345672+421380851+421850379+422513768+422810581+422822374
2575+422971652+423296529+423462078+423328475+423111724+423034597+423182083
2561+423442025+423592198+423677535+423717691+423536368+423284338+423287921
2548+423599612+423902198+423843034+423516614+423285333+423338128+423601403
2534+423836814+423807755+423599413+423454415+423360967+423316731+423391669
2521+423545723+423709132+423718636+423567916+423554331+423805565+424203290
2507+424543543+424664408+424660726+424660378+424735614+424832893+424791643
2494+424861703+425206783+425349393+424983613+424459500+424216974+424320772
2480+424542299+424569070+424463730+424511598+424528964+424309178+424049634
2467+423903093+423762872+423436104+422910100+422395142+422155999+422212028
2453+422150128+421693637+421125836+420669295+420307546+420070543+419887529
2440+419729196+419532348+419198813+418895481+418556770+417983794+417419724
2426+417110097+416887425+416509728+416083765+415745204+415417142+415120801
2413+414812095+414337194+413778597+413358605+413045073+412558453+411886306
2399+411348261+411112701+410970638+410552164+409804159+409076183+408513481
2386+407803692+406748225+405365792+403583145+401419194+399003611+396396430
2372+393579589+390679550+388058586+385737073+383741158+382527657+381970777
2359+381527125+381670854+383145218+385642779+388629374+390936009+390871248
2345+388406652+386094468+385516615+385639744+385807905+386000846+385707765
2332+384877210+384425795+384952022+386016222+386983515+387801182+388617083
2318+389415021+390148172+390730131+391104543+391483907+392104976+392826111
2305+393424589+393878392+394269624+394604155+394710390+394634408+394707579
2291+394967496+395167652+395284362+395482205+395753417+395960465+396031397
2278+395951583+395818477+395761702+395741525+395727592+395804420+395998929
2264+396291164+396680082+397112464+397489489+397780083+397953966+398029849
2251+398149395+398385577+398727323+399093326+399478014+400000137+400583389
2237+401089067+401511895+401925444+402467943+403170243+403924443+404668691
2224+405434211+406175149+406807314+407441843+408276379+409353764+410540172
2210+411780419+413142675+414464104+415602768+416806467+418263291+419955003
2197+421906457+424080236+426288249+428303495+430215789+432368171+434756312
2183+437208593+439837717+442728028+445667600+448438140+451144142+454039877
2170+457092054+460031974+462702647+465200159+467735936+470209413+472326069
2156+474172929+475975704+477506395+478436244+478987277+479369229+479308622
2143+478598957+477231575+475335950+472950695+469826616+466026360+461853109
2129+457327166+452576908+447945126+443422815+438665242+433552638+428496560
2116+423907721+419554740+415144636+410771975+406509680+402489762+398852318
2102+395437521+392084326+388808432+385684054+382789166+380021711+377226739
2089+374580870+372237911+369987827+367752471+365601955+363520629+361631522
2075+359980091+358366525+356693697+354962352+353094667+351190658+349578934
2062+348228445+346730844+345046223+343577133+342426478+341218748+339811908
2048+338431912+337105233+335710658+334355418+333237330+332291109+331275973
2035+330172763+329160338+328234295+327216770+326195016+325404741+324729335
2021+323933313+322939747+321842084+320995184+320446937+319777726+318821504
2008+317771885+316773094+315834860+314988855+314244309+313537455+312773453
1994+311739109+310465001+309496912+309028305+308689122+308238976+307618056
1981+306883486+306204523+305648041+305135522+304561301+303804340+302764971
1967+301751476+301298618+301162676+300798961+300245042+299657337+299039900
1954+298458539+297971845+297504855+296918220+296129935+295056133+294132876
1940+294078813+294456883+294503881+294147779+293705943+293390494+293094079
1927+292585964+291701644+290946623+290906592+290903258+290782269+291249034
1913+291708187+291353156+290724150+290787966+291398561+291875179+292099742
1900+292179182+291940836+291348802+290897436+290678571+290277313+290160229
1886+290613834+290980360+291085551+291081222+291048132+291074007+291076569
1873+290658468+289240606+287435070+287445295+289075455+290427461+291080749
1859+291423565+291732594+292160697+292580714+292863371+292922062+292545932
1846+291630513+291230723+292797340+294801664+295773809+296339347+297071453
1832+297101955+296329245+296584386+297949230+299370849+300983866+302323881
1819+302877576+302950921+302799976+302199930+301296329+300886488+301020315
1805+300966724+300117634+298709052+298064795+298477846+298681610+297760916
1792+296870625+298180311+300287885+301371565+301538681+301463744+301666064
1778+302505302+303104154+302226552+300228398+300111389+302204508+304346441
1765+305539218+305478512+305342769+306115056+306945188+307722575+307678339
1751+305487593+302970600+303146101+304440386+305092455+305190630+305215435
1738+305503068+304825671+302606239+302885686+305790327+308608860+310364612
1724+311061315+311364871+310940599+308540068+306831065+310121489+314888590
1711+318456820+320337641+320785722+321276646+322657886+323482096+323917564
1697+326895152+333032919+339564281+344135854+347497483+350210054+351891068
1684+355314274+362863733+370441381+376653688+381997821+387582043+392738211
1670+397906819+405942475+414586139+421411354+428316034+436725332+444519706
1657+449857868+452906214+459250158+469462877+476043028+482856301+493821627
1643+504361612+512474096+518227698+521751492+526708051+535501838+542990691
1630+547861864+551234191+554186700+556751138+559638961+562477522+563081100
1616+562622818+565100824+568161560+569170924+568844405+568834503+569198939
1603+569445346+569781320+570438390+571047840+571748747+573325516+575703555
1589+578544505+581978633+586194826+591230154+596701472+601553538+605713055
1576+612781940+622577727+630561335+638463239+648701783+659439361+669699849
1562+678139649+683975652+693199059+707470632+720904510+733721474+745159612
1549+756090505+765880370+773111122+777440468+782347517+796819868+811753288
1535+821609781+830729640+841008090+849684694+856584598+862909584+868176392
1522+873477633+880674897+887730447+895245473+903690995+909683690+911531247
1508+909891584+912376655+923610084+932533792+936974797+937358042+936382464
1495+938159065+940261986+938268833+933668898+934318752+938479414+940845661
1481+940368769+938577141+935759280+930453461+923202357+919667964+921938176
1468+923517830+921119539+918297299+918365071+918044124+913644817+911471138
1454+918230721+926207313+932338537+936755956+942292259+950611891+959125782
1441+965750617+970062447+973064616+978991529+987123071+993193290+998219264
1427+1004077609+1008694164+1011804012+1013688988+1012209151+1011706185
1416+1017576970+1024028145+1026601788+1026481869+1025640640+1023753773
1404+1021849988+1021765696+1021419571+1019716912+1018020622+1016985632
1393+1018312808+1020007605+1017756202+1011821328+1008316591+1009702085
1381+1013072970+1015933325+1017308469+1016767587+1016153460+1016938858
1369+1017717091+1018423273+1018576133+1016159232+1013055255+1012747843
1358+1013833091+1013837171+1012605035+1011272982+1010126431+1009432590
1346+1009229473+1008830404+1006663094+1001504662+997219602+997528109+999195141
1333+999739804+1000532368+1002562840+1004435875+1005394335+1006332694
1321+1007487703+1009222407+1011987026+1014558778+1017009815+1021024782
1310+1025617850+1029395267+1033467855+1037808844+1040951533+1042534471
1298+1043103517+1044112633+1046593027+1049366404+1051423348+1053990025
1287+1057205860+1059173436+1059844588+1060159762+1059621965+1057992850
1275+1056604570+1056351495+1055834597+1053669974+1050823252+1049123380
1263+1048988135+1049502246+1050346460+1051588150+1053139243+1054837423
1252+1056142904+1056858740+1057058573+1056858939+1056500374+1056122901
1240+1056623677+1058431030+1059973066+1060571470+1061032637+1061133449
1229+1061126682+1062281891+1064117108+1064820703+1063917176+1062974638
1217+1063764614+1065880573+1067631597+1068733663+1069926191+1071355871
1205+1072847253+1073741823+1073088883+1071486439+1070475731+1070811208
1194+1072331549+1073674648+1073344645+1071703688+1070339292+1069569020
1182+1068832784+1069027839+1070421195+1070550569+1068050868+1065318593
1171+1063900158+1061578296+1057980013+1056183807+1056615517+1056450516
1159+1054375260+1051556304+1049005252+1046292980+1042590799+1037941602
1148+1033158453+1029046456+1025940489+1023280563+1019881416+1015420607
1136+1010687118+1005701847+999782100+993370134+987249459+980921488+973840859
1123+966851489+961209099+956792874+951976685+946411720+941165612+935822474
1109+930107137+925568704+922940326+921206020+919569342+917750346+915223974
1096+912806176+912257333+913462599+915158093+916603895+917432883+918086419
1082+919241130+921063211+923647801+926070077+927502842+928671884+930131420
1069+932081680+934734341+938456525+942665453+945032894+945892931+948406167
1055+952765567+956067684+957170546+957172735+956667580+957031220+959430707
1042+961971111+963125125+963906344+965495154+967632608+969253164+969717517
1028+968879075+968049590+968634359+969710053+970505005+971356982+971653248
1015+971042902+970915021+972175022+973697354+974104185+973294106+972153128
1001+971493521+971417389+971199145+969960043+968293111+967219010+966134658
988+964371791+962585736+961215966+959746279+957805473+955926667+954715927
974+953357502+950624430+947129944+944258244+942232250+940930749+940621546
961+941043702+941474816+941756353+942060979+942493286+943620431+945237802
947+945913333+945575070+945350258+946149291+948085917+950092803+951798348
934+953322770+954751554+956650364+958145527+958703526+959716324+961075346
920+961943743+962849459+963437015+962877324+962040375+961536216+960300895
907+958042924+955977421+955096684+955359313+954833756+952159003+949530127
893+948854198+948929235+948131795+947175922+947478756+947965500+947111533
880+945891439+946054251+947653610+950098078+953619036+958031579+962466413
866+966670166+971256070+975983489+979771056+982572099+984935062+987252843
853+988423079+987381719+985904967+985046821+983779156+981835464+980305868
839+980422403+981950905+983813192+985157286+984870673+982083464+978233498
826+976853577+978777764+981037526+981915775+982330269+983399394+985740364
812+988825929+990993836+991796352+991728182+991291893+992312653+994765083
799+996173267+997115904+999390993+1001652248+1003035552+1006054739+1011228199
785+1015110408+1017435256+1020935713+1024855540+1026540584+1026017516
773+1026315971+1029173043+1032419131+1034323613+1035392340+1036083197
762+1036728971+1037066338+1037080370+1037924684+1040083733+1042224372
750+1042435749+1041916960+1043075752+1043569561+1041218143+1038968034
739+1038220850+1037882687+1038163129+1038104115+1036367421+1033525377
727+1030452550+1028283250+1027954441+1028899268+1029312866+1028282453
716+1026806696+1025573266+1023662117+1020801363+1019115324+1018122529
704+1014997753+1012547413+1013721730+1014443834+1011390911+1006842327
692+1004063377+1004373178+1006445547+1008042319+1007841690+1006458385
681+1007621953+1011078225+1012232936+1013315695+1015540228+1011264622
669+1002100180+1006555217+1021401956+1027053004+1025457327+1023578820
658+1021140720+1018055255+1018527270+1022667730+1025077267+1023880460
646+1022040963+1019128858+1012092615+1002918618+998389739+1004405024+1017086444
633+1022871244+1020016860+1016663591+1011638314+1003292608+997226270+996859346
619+999068553+999608739+996279851+990299596+986927020+987378137+991177547
606+998611267+1001186801+994664072+992993856
##END=
