##TITLE=Sample description
##JCAMP-DX=4.24
##DATA TYPE=INFRARED SPECTRUM
##DATE=24/8/2023
##SAMPLING PROCEDURE=Instrument type and / or accessory
##ORIGIN=Default
##XUNITS=1/CM
##YUNITS=ABSORBANCE
##RESOLUTION=4
##FIRSTX=4397.6552
##LASTX=599.8556
##DELTAX=-1.9287962
##MAXY=1.3690342
##MINY=0.33430535
##XFACTOR=1
##YFACTOR=1.2750124e-009
##NPOINTS=1970
##FIRSTY=0.58888471
##XYDATA=(X++(Y..Y))
4398+461865859+461755814+462646836+463793104+464072612+463394762+462336754
4384+461215450+460174459+459533914+459661163+460729502+461881146+461416935
4371+459338506+457758227+457681700+458203271+458235013+457689507+457918294
4357+459402645+460710054+461100262+460975725+460456772+459566591+458864292
4344+458687163+458808521+458950028+458814926+458661778+458910479+458849613
4330+457721250+456540855+456624675+457263350+457119739+456459233+456078982
4317+455651422+454730668+453921222+454174410+455347746+456050092+455808637
4303+455772734+456566520+457182663+456996090+456633838+455950658+455020134
4290+455018030+455900918+456429548+456130733+455787086+455802513+455406976
4276+454406048+454076706+455091892+456042519+455682884+454410910+452936983
4263+451942554+451795343+451698902+451647666+452599180+453433918+452924735
4249+451788331+450861874+450891372+451788518+452451689+452570991+452653829
4236+452925951+452824507+451639672+450221796+450187950+450940972+451066117
4222+451006326+451309862+451521819+451372225+450880666+449999274+449371445
4209+449769647+450369427+450144568+449504070+449051733+448944446+449068189
4195+449001339+448610102+448489866+449236669+450219225+450493404+450279016
4182+449657030+448496925+447397732+446669721+446580525+447238414+447702998
4168+447720155+447743950+447249540+446468330+446357583+446338369+446048997
4155+446249080+446694498+446372075+445681275+445934932+446569446+446236645
4141+445495217+445247779+445204443+445162977+445156245+444542908+443123256
4128+442020511+442350273+443753002+444795068+444873465+444274152+443317916
4114+442646143+442632212+442970155+443328247+443427167+443352276+443613038
4101+443834110+443264576+442250793+441552981+441587154+442104284+442597151
4087+443120124+443584147+443794281+443748561+443030694+441786302+441009672
4074+440723246+440220515+439745646+439846902+440450703+441119531+441101626
4060+440331916+439761400+439671970+439667062+439679497+439746300+439852886
4047+439724282+439050358+438405139+438483115+438937134+439328744+439626391
4033+439482172+438987622+438725224+438501627+438117403+437874779+437828966
4020+438077106+438609522+438859766+438624108+438389805+438321786+438080518
4006+437420433+436502577+435710895+435274499+435241028+435306475+435303530
3993+435716691+436426938+436361818+435273284+434624511+435430732+436365230
3979+436119194+435350138+435133413+435481454+435623990+435227377+434647698
3966+434526994+434733481+434355568+433914218+434386329+434899438+434585617
3952+434121219+433769438+433286949+433571553+434171988+433881213+433870087
3939+434670979+435168054+434595761+432720734+431223106+431932324+433128753
3925+432863129+432585725+433295130+432974577+431344278+430984970+432429212
3912+433790335+434302836+434536858+433684777+430955238+428945343+428764286
3898+429490334+431442589+433165497+432211739+431011383+432431783+432454362
3885+430110123+429494682+429157439+429200354+430956407+431653704+430991562
3871+429903776+428806687+429655168+430070340+428900651+429483836+431490179
3858+432761499+431411829+424886937+421618437+425579980+429870398+432011235
3844+432096224+430914474+428435646+425263681+424848650+426572961+427638260
3831+428601649+430037943+431160323+432338333+431684886+427333649+425931153
3817+426781785+426666784+429143415+432806938+433710021+430766235+428914629
3804+429575463+427849703+426517470+427850731+428818748+430091283+431604245
3790+432099590+432093138+431949247+431825691+432127545+431944853+431735654
3777+433015762+434518393+434625633+432806424+430847530+430428432+430769835
3763+431919375+432203745+430092639+429156879+430524640+430355551+425940970
3750+423003635+425927367+427897433+425858880+426266946+429340599+430126485
3736+426055317+422441441+424560681+428851939+431497472+431003810+428774524
3723+427705531+428395863+430010876+432020258+433683001+432271109+427635549
3709+426623636+429385805+432359557+433666405+433330565+433738257+435262859
3696+437012460+438166816+437222267+433892433+432577357+434991111+437785443
3682+439260445+439616807+438588766+433731759+429587851+430584571+429477198
3669+427558461+430027238+432641589+433230010+433735780+434745963+434595574
3655+435211436+438319496+438787306+432119130+427221079+428090971+428560604
3642+426264562+422530029+419077761+415825109+412539733+409480525+403659195
3628+395618116+393898527+395092011+394526357+390665252+385071983+382387533
3615+380776821+377688863+374614789+371651275+369185023+368562382+367907228
3601+365278502+361853910+358936864+356028980+354090259+354048208+352820926
3588+347987036+344608234+344746281+344810514+343746920+342483501+341278844
3574+339927678+338936311+337888098+334115885+328394900+326795150+328009998
3561+328366267+327969163+327372071+325840013+323648570+322400414+322039961
3547+321013229+319227140+317863119+317332947+317255438+316839752+315886064
3534+315225300+314676265+313402608+312240375+311852295+310984015+309539283
3520+308850751+309015515+309203280+308776328+307764461+306582290+305695452
3507+305517060+304959611+303075514+301765885+302140666+302605530+302045626
3493+300906604+299465472+297971303+297240627+297307337+297367035+297082384
3480+296663262+296015331+295079898+294352518+294087362+293944335+293596224
3466+293231214+293008949+292546328+291620291+290614245+289980712+289752276
3453+289703074+289474241+288721103+287683151+286921574+286603289+286803301
3439+287196267+287046930+286403112+285838720+285815580+286202703+286040439
3426+285296043+284844057+284558706+283856874+282971812+282468473+282571716
3412+283065378+283420291+283341778+283107943+283260272+283634352+283538611
3399+283298956+283536157+283882048+283797293+283515144+283763073+284606856
3385+285565944+286453881+287290185+288086799+288717456+289222689+289853790
3372+290791935+292438854+294609680+296123390+296905793+298132748+299787520
3358+301193335+302512759+303909971+305293300+306471801+307215613+308004233
3345+309361382+310961039+312375875+313286392+313535747+313871774+314818777
3331+315605411+315533769+314991863+314845985+315183087+315340394+315219737
3318+315351591+315708023+315751873+315567591+315356920+315152443+315282941
3304+315572780+315803249+316217252+316735691+317215351+317584055+317702913
3291+317770721+318266650+319376548+320497548+320992169+321421482+322499894
3277+323772453+324660951+325425636+326544089+327723992+328277305+328343921
3264+328407592+328666250+329562532+331031994+332096195+332365489+332284147
3250+332315608+332714792+333378407+334112168+334696358+334903360+334987530
3237+335462726+336252539+336664648+336430206+336009938+336133354+336952641
3223+337590288+337636966+337660200+338009550+338595960+339301345+339950585
3210+340107870+339697537+339275750+339345966+339952572+340578648+340780507
3196+340801310+341179831+341892228+342395053+342709809+343031975+343146672
3183+343158336+343121381+343068298+343646154+344807381+345630595+346016736
3169+346400610+346778196+347125769+347510765+347817644+348001879+348238612
3156+348604371+348834606+348698872+348579430+349001521+349596673+349664552
3142+349439505+349539453+349862905+349976152+349943592+350115649+350450203
3129+350594001+350556930+350656036+350739318+350565718+350530844+350779872
3115+350785061+350352756+349914982+349911850+350216696+350344295+350347404
3102+350487345+350565672+350670715+351090304+351425443+351328276+351368059
3088+351924738+352285354+352135011+352288696+353091294+353860397+354012797
3075+353755634+353552022+353606040+353897585+354096827+354076444+354118097
3061+354131794+353866124+353423792+353153680+353213494+353357058+353614057
3047+354055735+354402210+354590395+354470088+354022427+353676840+353431715
3034+353093328+352971549+353348129+353894477+354234080+354494257+354750625
3020+354749316+354543600+354487666+354450618+354212996+354049681+354044515
3007+354168515+354469223+354625994+354606991+354905549+355622106+356461028
2993+357226320+357866912+358402648+358780631+359110463+359851026+361110495
2980+362230724+362810053+363356096+363875469+363691538+363142409+362829991
2966+362460726+362074842+361965568+361738371+361426186+361566852+361979265
2953+362307999+362630960+363025702+363325102+363428883+363456231+363386926
2939+363293313+363322601+363298198+363140680+363042906+363161763+363371383
2926+363367315+362885598+361971762+361307002+361294894+361400709+361211542
2912+361127675+361434087+361790870+362288856+363098489+363714562+363981261
2899+364165379+364362189+364511550+364441825+364244874+364339259+364800524
2885+365137065+365150365+365158242+365321744+365657327+366135305+366517869
2872+366504266+366155640+365897730+365912526+366058754+366205895+366311780
2858+366289691+366087271+365927579+365828262+365446983+364919826+364920504
2845+365651694+366477643+366851115+367075740+367676385+368525007+369233968
2831+369737167+370026679+370195954+370509776+370989016+371517832+372009063
2818+372272513+372362153+372650777+373176719+373693778+374224044+374791030
2804+375104968+375110742+375278264+375771038+376169100+376277158+376342045
2791+376601732+376966275+377374738+377971153+378520936+378737053+378887653
2777+379272578+379701003+379975859+380309315+380733439+381006378+381077132
2764+381144076+381551557+382218351+382615408+382726365+383041238+383671475
2750+384287430+384701901+384992581+385270056+385586542+385880588+386104326
2737+386409919+386881446+387422557+387967923+388471145+388972123+389578635
2723+390245523+390807717+391199632+391604916+392246162+392934905+393279767
2710+393351619+393502943+393908157+394461330+394888749+395204581+395544674
2696+395865321+396143333+396319995+396384648+396432331+396559486+396849372
2683+397221302+397467572+397482578+397325457+397187877+397308160+397661156
2669+397969742+398121487+398244014+398523569+398892927+399121199+399253450
2656+399415573+399579986+399723410+399911292+400337496+401055409+401718019
2642+402071436+402265722+402552149+403053431+403574908+403895788+404169967
2629+404648155+405300200+405736408+405811533+405984455+406477462+407048399
2615+407612604+408194760+408792577+409475523+410223683+410943840+411531840
2602+411969591+412450958+413027645+413597787+414160870+414647052+415021226
2588+415411761+415879057+416404414+417003213+417599347+418093336+418535201
2575+418992539+419530799+420109776+420518310+420680339+420710679+420734100
2561+420842135+421182416+421747649+422328029+422904155+423434748+423809576
2548+424235172+424820975+425224319+425357225+425675580+426281111+426821241
2534+427160446+427415131+427753308+428157727+428491884+428781537+429125230
2521+429551808+430034250+430572791+431150693+431648001+431997538+432320569
2507+432690628+432970604+433108979+433263482+433527142+433827406+434039971
2494+434104109+434227946+434647558+435139023+435370520+435385012+435411893
2480+435464718+435405582+435285345+435180255+435137153+435210594+435239251
2467+435089189+434855728+434642229+434473187+434297647+434095180+433925017
2453+433690621+433353098+433085698+432800066+432404809+432063173+431725557
2440+431350963+431178368+431250781+431201789+430693541+429877503+429163003
2426+428667330+428298580+427996913+427703661+427441029+427093409+426472124
2413+425776230+425210856+424658291+424033594+423474718+423121488+422787986
2399+422235842+421568416+420971207+420467307+419952796+419319310+418562221
2386+417531795+416040151+414275076+412280841+409708984+406567873+403257814
2372+399929664+396408396+392720564+389288164+386609792+384941626+384024635
2359+383547639+383838483+385338332+388170927+391791956+394262509+393794278
2345+390843690+388072779+386917606+386682111+386714999+386839349+387096628
2332+387457502+388035638+389067255+390229231+391077549+391790553+392724678
2318+393906381+395065177+396032960+397003735+398159213+399313848+400204403
2305+400813674+401166997+401411444+401864809+402519659+403130986+403629977
2291+404026917+404306846+404587850+404957535+405242887+405419595+405691997
2278+406034709+406367604+406724901+407034748+407335527+407774260+408289800
2264+408744520+409134588+409613057+410262624+411003070+411771752+412425901
2251+412873703+413350208+414065644+414825257+415383384+415898691+416674619
2237+417628705+418354986+418874967+419695493+420849054+421879573+422636802
2224+423332510+424144294+425033353+425895391+426729100+427616476+428621283
2210+429591684+430407489+431310011+432512330+433902951+435191287+436256868
2197+437312070+438472830+439625549+440750079+441968573+443339747+444822276
2183+446393252+448022804+449671943+451327720+452959656+454496319+455959634
2170+457550572+459393015+461431988+463491484+465211026+466436626+467648108
2156+469311879+471102479+472408906+473301425+474311748+475412671+476227867
2143+476749999+476986779+476914740+476780806+476656268+476267930+475522389
2129+474478733+473093535+471505215+469836862+467972167+465838248+463465445
2116+461052719+458743635+456367606+453792804+451138343+448547740+446001221
2102+443430813+440781167+437976924+435125045+432435336+429893772+427390214
2089+424897595+422345560+419730882+417266733+415016410+412799934+410613610
2075+408540464+406494666+404404176+402360481+400448009+398484768+396384414
2062+394426970+392667785+390928795+389204578+387535524+385872150+384184070
2048+382546781+380948574+379259465+377469707+375706782+374084383+372536945
2035+370959120+369386040+367895004+366523012+365163431+363669193+362182714
2021+360938438+359735067+358287016+356819727+355559160+354369299+353192645
2008+352020922+350701756+349303702+348084156+346996907+345882872+344770497
1994+343550787+342066319+340657443+339611193+338708623+337842191+336964118
1981+335987546+334986151+333995835+333029992+332144650+331274688+330232365
1967+329018662+328036270+327473000+326962182+326232909+325352077+324447755
1954+323648757+322900270+321985920+320985998+320093082+319077078+317979125
1940+317452248+317301579+316901039+316258765+315582574+315007617+314540321
1927+313878435+312714894+311485134+310870534+310417777+309850066+309642877
1913+309429682+308730070+307985510+307737324+307737230+307549302+307210377
1900+306900366+306485288+305778337+305072438+304548483+303963311+303645750
1886+303748152+303753061+303638784+303535821+303359884+303126564+302846869
1873+302359868+301168138+299457127+299083211+300202482+301106453+301261167
1859+301065829+300824327+300568521+300202552+299756994+299201320+298426912
1846+297275291+296159059+296384315+297237051+297419533+297164311+296953990
1832+296157680+294445337+293465282+293635329+293744650+294009339+294348895
1819+294165899+293667025+293116003+292263898+291217765+290772090+290941716
1805+290939099+290199681+288712524+287525609+287283476+286988307+285677509
1792+284290815+284823418+286124025+286440628+285810064+284965416+284242150
1778+283940319+283590315+281995848+279272596+278590469+280246854+281729803
1765+282235456+281643693+280839529+280904602+281175135+281522825+281534068
1751+279915222+277547141+277069771+277842426+278242872+277895252+277344183
1738+277327470+276694592+274444036+274120328+276118723+277995083+279002204
1724+278993018+278546128+277548005+274468719+271209943+272516651+275467637
1711+277190194+277225980+275666621+274052122+273741480+272494165+269607833
1697+268940758+270842969+273480180+275026520+274966238+274053945+271656109
1684+268096320+268852100+271704867+273352417+272981563+271585425+270516292
1670+269243476+269299387+271069348+271628761+270515591+270212709+270776259
1657+270416391+267515005+262310566+262197715+263373785+262720034+264011362
1643+267285214+269328325+269561715+268192809+267564629+271541879+276454563
1630+279819879+282247260+284759139+287747476+291979318+296397475+299473699
1616+303035287+308814918+314340542+318560370+322285530+326306631+330277430
1603+334130494+338237681+342348001+345999112+349470312+353321296+357505034
1589+361822565+366099589+370258901+374396311+378355377+381451352+383496940
1576+387111751+393188841+398176463+402124122+407102907+412704848+417740199
1562+421266422+422042724+424080856+432987012+441930286+449493318+455843838
1549+461691815+466613755+469800726+471331078+473960903+484367211+495358154
1535+502482873+509322755+517598089+524769837+530410252+535567897+540340242
1522+546356326+554678175+563030270+571755090+580432740+587135743+591048387
1508+593066511+600357327+613025878+622425322+629058670+634366985+640934605
1495+649384077+656150470+660536301+666028336+675431193+685324299+693516141
1481+700801814+707661144+713469805+718025706+723072417+731339290+740866217
1468+748808797+755459442+763262759+772174712+779639104+785375399+793972035
1454+805974564+816949659+826331759+835058729+845096708+855661820+865256532
1441+874503623+882819582+890148778+899333507+909818213+918681781+926824772
1427+936006135+944117430+950127296+954470772+957477248+961778371+968531161
1414+975209621+980196915+984540859+989233639+992779777+994289092+994953572
1400+995149447+995473693+996110686+996163511+998202204+1001488515+1001274688
1387+996573681+993449399+995614406+1000523911+1005106832+1007358323+1006880182
1373+1006521903+1008010555+1009840750+1011757430+1013198680+1011397188
1362+1008023832+1007971473+1009765953+1010870615+1011073970+1010211277
1350+1008012705+1006137912+1006050773+1006161941+1004756968+1002037901
1339+1000358702+1001300774+1003148172+1004611674+1006075831+1008083295
1327+1010167240+1011487506+1012493809+1014316057+1016539686+1018574172
1315+1021259487+1024298032+1026686963+1029117125+1032612308+1036743921
1304+1040419926+1043302051+1046329844+1049976865+1053006995+1055154798
1292+1056887757+1058021216+1059286692+1061783144+1064976520+1066539782
1281+1066341569+1066901333+1068464783+1069402460+1068900290+1067287568
1269+1065139204+1062867050+1061369141+1060810125+1060070567+1059200862
1258+1059384303+1060109275+1060465030+1061155502+1062643874+1063948525
1246+1064754746+1065710748+1065770399+1064719591+1064560647+1065319932
1234+1065223537+1063653450+1062390217+1062847509+1064071005+1065074504
1223+1065073662+1064632078+1065810228+1068138013+1069263057+1069147308
1211+1069007344+1068828765+1069264272+1071207411+1073038635+1072351436
1200+1070317044+1070418768+1072005218+1072031958+1071402445+1072349098
1188+1073741823+1073071920+1070780600+1069662100+1070370524+1070848011
1177+1070278523+1069453322+1068279473+1066887309+1066072019+1065619963
1165+1065102646+1064434707+1063422981+1062523076+1061866730+1060775158
1153+1059135041+1056976579+1054270321+1051607445+1049822969+1048271020
1142+1045838146+1043842835+1042590075+1039821174+1035737057+1032130894
1130+1028367844+1023457965+1018685713+1015476537+1012893694+1008770402
1119+1002625620+995623662+988534471+981865455+976169270+971131487+966120165
1105+961460015+957455370+953330021+948318231+942386434+935722747+929421732
1092+925188956+921779323+916662068+910703906+905294942+899765929+893873495
1078+888770452+884839108+880549766+875050017+869256596+864340078+861304058
1065+859187482+855757561+851836221+848672578+845231623+842033012+839907835
1051+837643629+834969814+832729636+830623065+828343151+826852909+826371215
1038+825993489+825772463+825977314+825577522+824088963+822793849+822474184
1024+822418180+822084397+821852899+821955372+822054572+822011657+822001933
1011+822704092+824623951+826757636+828131849+829170222+829982426+830092659
997+830128748+830966665+832322271+833458722+833707236+833009939+831827862
984+830041423+827750102+825845577+824176196+821512478+817751766+813810511
970+810286252+807398704+805280726+804024880+803063455+801701023+800650028
957+800858525+801903162+803335062+805218457+807082779+809120349+812331302
943+816411493+820621269+825158938+829830307+834066076+838504919+843724178
930+848441735+851553955+854202993+857821872+861357164+863216156+864228163
916+865385464+866202904+866193741+865394720+864418429+863945336+863550687
903+862107287+859436557+856485806+853758043+850786068+847687217+845136350
889+842902063+840665344+838572704+836721192+835604188+835807637+837065259
876+838284080+838411984+838054920+839428385+842890563+846532254+849508811
862+852430766+856035900+860155733+864060991+867841525+872180140+877322264
849+881935853+884808722+887468606+891641638+896638656+901398473+906441584
835+912640407+918388576+920120319+918179985+917018290+919445368+924930531
822+930085651+932830150+934681195+936146099+937537141+941070002+945894239
808+949080415+951148559+953350590+956468233+961289384+966684510+972287198
795+979052330+987663083+996175479+1000599643+1002069689+1003638842+1005832552
781+1010427067+1017953261+1024591237+1027636140+1029694747+1032274505
770+1033769141+1035507990+1039127336+1042218987+1042686657+1043057932
758+1045748482+1048235211+1047872537+1045547745+1042786137+1040782599
746+1041129565+1042453850+1041668292+1041237647+1042956488+1041978794
735+1037448979+1033843190+1032696174+1033005461+1033061559+1031794119
723+1030379516+1029651271+1028771095+1027638103+1027496736+1028809335
712+1029850512+1028511922+1025852973+1024746722+1024981679+1024419671
700+1023256573+1023195894+1023854858+1022432308+1019258847+1018044420
689+1018911881+1019010520+1017198837+1016274436+1019974844+1024955219
677+1026748203+1027762734+1028024898+1022553105+1011736767+1011641588
665+1027444846+1039958240+1041588259+1034921766+1026885456+1022920360
654+1023349135+1027139579+1032926269+1038938286+1041846309+1038769244
642+1033383280+1028456292+1020252435+1011527148+1014314374+1024244365
631+1022653427+1011801280+1005481099+1004362319+1002539510+998888843+1003267942
617+1016195338+1018881682+1010615837+1010248676+1018602782+1026811593
606+1034536467+1040706025+1042104079+1037334632
##END=
