##TITLE=Sample description
##JCAMP-DX=4.24
##DATA TYPE=INFRARED SPECTRUM
##DATE=24/8/2023
##SAMPLING PROCEDURE=Instrument type and / or accessory
##ORIGIN=Default
##XUNITS=1/CM
##YUNITS=ABSORBANCE
##RESOLUTION=4
##FIRSTX=4397.6552
##LASTX=599.8556
##DELTAX=-1.9287962
##MAXY=1.4678376
##MINY=0.49075568
##XFACTOR=1
##YFACTOR=1.3670303e-009
##NPOINTS=1970
##FIRSTY=0.73861659
##XYDATA=(X++(Y..Y))
4398+540307412+539431544+537271348+536995176+538758030+540447111+541326642
4384+541092894+539281816+536962693+535479106+535285821+535591511+534861883
4371+533801885+534463757+536446581+537531301+536967315+536070038+536018458
4357+536625653+537210437+537186936+536512071+535923668+535384098+534576816
4344+534348038+535003762+535161643+533803237+532426343+532759852+534205723
4330+535383270+535605028+535362734+535395697+535322228+534763518+534369796
4317+534264977+533341235+531761551+531129241+531875525+532995126+533231272
4303+532293446+531131813+530498501+530092788+529802184+530518557+532211824
4290+533026126+532162380+530731420+529571662+529449927+530695841+532086469
4276+532406418+531719301+531240207+531247183+530529283+529335996+528891958
4263+529144803+528966080+527462873+526023194+526870503+528859867+529256205
4249+528492306+528438589+529277657+530214655+530271555+529167607+527989406
4236+527874908+528575934+528773623+528184479+528124527+528805932+528937216
4222+528193810+527233922+526671156+526586700+526739785+527315631+527664836
4209+526950206+526120163+525722517+524841853+523317368+522437271+523138515
4195+524539476+525262477+524957048+524354257+524435530+524786087+524527573
4182+524380113+524943314+525332153+525365769+525606799+525427989+524293694
4168+523049611+522615340+522578060+521847603+521045204+521377753+522021704
4155+521860248+521621093+522126566+522215993+521203260+520486363+520594320
4141+521080347+522039276+523087850+523400516+522981724+522157959+520846381
4128+519605219+519499180+520613287+521845423+522157349+521689112+520855101
4114+519968943+519510691+519468397+519735413+519854751+519363274+519329788
4101+520255798+520872062+520789655+520773784+520971953+520938249+520269750
4087+519149278+518293641+518016117+518213196+518473846+518439924+518386599
4074+518103756+517409794+517273277+517793487+517814198+517529393+518004955
4060+518562488+518303538+517655532+516873146+516234819+516119188+516214021
4047+516122807+516327908+517217903+517487753+516300483+514931743+514663550
4033+515406433+516005344+515519230+514893592+515593745+516641621+516568720
4020+516142253+516231244+516509509+516692243+516463073+515053217+513347698
4006+513273140+514014933+514046065+513958643+514306976+514667997+514744736
3993+514303924+513318398+512770545+513297557+513961085+514013581+513598320
3979+512657965+511531650+511223736+511890927+512723935+513187158+513426138
3966+513525680+513092978+512256395+511842268+512191080+512763394+512932917
3952+512707540+512009872+511118264+511253516+511689226+510871610+510143420
3939+510699340+511603331+511742987+510450070+509201409+509614708+510072611
3925+509617367+509708974+510409956+509897507+508200404+508313507+510851815
3912+512845496+513013144+512220511+510051813+506929462+505353005+504643913
3898+504735825+506772322+508341106+507073260+506473521+508887129+509589157
3885+507627262+506993426+506380911+506495714+508311196+508353925+506402886
3871+503882891+502849229+505112629+505657038+504022198+505430354+508048932
3858+509054559+506936221+498394327+494685230+500731109+506480890+508413441
3844+507087649+504641863+502561546+500627991+500128710+501257380+502525836
3831+504275567+506254685+506928896+506932558+505361987+500461390+498467316
3817+499268800+500540178+504336347+508148169+509166963+506901863+505125622
3804+505131291+503243867+502365993+503858256+505109316+506923184+508742982
3790+509437685+509308189+508306748+507411521+507628919+507295497+506911193
3777+508544072+510362300+510434853+508531209+506678274+506588542+506952004
3763+507440647+507257738+505376898+504358453+505465758+505731946+501056028
3750+496396460+499018222+501833051+500631043+501688774+504921175+506272300
3736+503803798+500055983+500213210+503689256+506829876+507084292+505234321
3723+504117903+504476308+506045659+508167834+508973721+505396301+499663743
3709+499973227+503651585+506196738+506440994+505268243+505763906+507745771
3696+509146732+508951136+506250761+501057859+499017001+502144584+505631531
3682+506791158+505672560+503303862+498755523+495488676+496520943+495486670
3669+494062251+496992886+499795899+499866316+498833221+497986304+495984600
3655+494235873+494650959+492359436+484514993+481891357+485453168+487817637
3642+487323282+485265114+482772632+480160375+477945024+475988448+470311918
3628+461679813+460493807+463167280+463709029+459772768+453804108+451613347
3615+450911886+448811468+446516674+443414380+440460506+440186862+440399725
3601+438569245+435663768+432991516+430272392+428412611+428092838+426297674
3588+421098494+418119069+419170782+420024937+418774095+416421225+414544570
3574+413329046+412358868+410891545+407100738+402072389+400880410+402272259
3561+402791597+402350436+402117342+401776814+400513852+399242343+398713979
3547+397536912+395423414+394264179+394560626+394993808+394346804+392950682
3534+392107341+391606359+390442067+389026324+387899791+386969029+386649516
3520+386688235+385981715+384407699+382787770+381546391+380831238+380994264
3507+381719140+381498952+379554759+377490007+376801103+377305006+377747779
3493+376934480+375454774+374496760+374036502+373671078+373069289+371978160
3480+371370442+371698151+371698064+371062964+370569132+370295925+369921736
3466+369129932+367814081+366525263+366004050+366063348+365928880+365297988
3453+364575074+364252205+363792099+362758633+362153073+362237529+362131229
3439+361703105+361360026+361121875+360924534+360757344+360359065+359807811
3426+359513261+359392419+359261505+359127060+358994010+359173517+359764842
3412+360205392+360207157+359934953+359495515+359286053+359733078+360490284
3399+360894601+360934693+360992661+361110189+361315531+361841911+362488849
3385+362764737+362698943+362697002+363231100+364607623+366247085+367446781
3372+368532591+369964989+371347464+372020366+372306916+373218145+374671515
3358+375652986+376245706+377525455+379546823+381369499+382603903+383617900
3345+384894031+386383329+387586688+388578188+389499532+389856890+389882964
3331+390343309+390900450+391002565+391091904+391429773+391513139+391307863
3318+391306206+391205704+390577275+390038186+389925127+390152683+390914708
3304+391677997+391758659+391499099+391759619+392896616+394086677+394394286
3291+394121994+394197818+395137649+396529629+397377243+397574540+397888646
3277+398567086+399336784+400086077+400956495+401899814+402788675+403755540
3264+404612398+405043268+405301041+405721839+406438692+407376605+407800543
3250+407503442+407475799+407838346+408044538+408140635+408140417+408457314
3237+409466908+410339505+410218642+409608438+409746524+410858320+411797498
3223+411848991+411899089+412663992+413337897+413214418+412687929+412472057
3210+412752590+413240099+413717100+414063471+414066174+413613546+413345397
3196+413915618+414818519+415531753+416165632+416614816+416622620+416588306
3183+417254363+418319854+418829382+418887459+419309479+420065879+420589664
3169+420787615+420878830+421033615+421243251+421573446+422153913+422570178
3156+422661828+422991543+423497931+423751082+423831265+423680448+423425466
3142+423579990+423836279+423572098+423031656+422837542+423286202+424147900
3129+424792592+424984134+425231965+425529764+425202927+424534515+424420671
3115+424825294+425041644+424991372+425105521+425188800+424865930+424545764
3102+424739616+425326363+425759893+425755576+425728369+425768570+425504170
3088+425399308+426024903+427021983+427769445+427950479+427769750+427777991
3075+428021680+428182177+428457521+428888043+429135089+429244137+429199096
3061+428896937+428532952+428539797+428970581+429215708+429271388+429385624
3047+429147341+428607162+428480717+428999881+429479454+429274789+428741454
3034+428660094+429075224+429328636+429269905+429357937+429754711+430218937
3020+430566267+430790902+430539888+429604591+429071954+429765044+430729947
3007+431198620+431510371+431728422+431668950+431711025+432304661+433271263
2993+434235163+435073665+435706846+436163791+436690933+437423396+438153068
2980+438565495+438778576+439160569+439467568+439378446+439267436+439280561
2966+439209926+439166106+439099396+438786947+438434211+438258714+438361047
2953+438942169+439626277+440038704+440580366+441175658+441038488+440228982
2939+439803256+439859415+439605872+439452089+440002210+440700750+441135327
2926+441310823+440972126+440160832+439455098+438900268+438056752+437262506
2912+437262027+437933229+438585726+438984288+439241842+439440665+439693118
2899+440029984+440391267+440668616+440825146+441038662+441359744+441651962
2885+441906900+442136637+442292033+442420439+442462558+442260988+441981895
2872+441953249+442220352+442465262+442544965+442735853+443035265+443335854
2858+443740040+444086367+444042286+443375967+442358917+441628243+441436614
2845+441736069+442314836+442961317+443595981+444021358+444235310+444451443
2831+444744751+445266531+445981814+446554477+447135206+447829386+448084543
2818+447868017+447787180+448126531+448831481+449689908+450300679+450481538
2804+450719298+451472340+452340316+452721132+452681455+452621939+452701686
2791+452957453+453441430+454045399+454489350+454668160+454860748+455319872
2777+455831144+456014968+455969535+456044966+456298901+456658527+457045621
2764+457440303+457831016+458112028+458551358+459360297+459919008+459819378
2750+459587636+459789598+460502004+461332832+461727949+461741989+461899870
2737+462233204+462552411+462973689+463399414+463763139+464207308+464541208
2723+464722504+464955641+465287580+465803430+466413982+466923641+467348669
2710+467637093+467815249+468109254+468458546+468798246+469345140+469980677
2696+470587654+471440369+472245080+472393325+472231084+472439630+472800869
2683+472799866+472646476+472759840+473029908+473264833+473586743+474069500
2669+474474558+474559058+474618051+475050709+475627034+476013693+476139658
2656+476109180+476247659+476572490+476845611+477136346+477508747+477735954
2642+477771010+477977943+478439465+478834452+479193075+479712936+480285294
2629+480746336+481008643+481056605+481097983+481357674+481725627+482022903
2615+482482420+483393387+484314208+484680069+484817065+485111550+485409523
2602+485854171+486732394+487709505+488375780+488779138+489028103+489288666
2588+489791087+490454702+490998675+491300965+491485138+491731574+491978533
2575+492014330+492084005+492590612+493212893+493555340+493813199+494092903
2561+494223926+494371691+495026500+496082922+496734939+496722208+496745273
2548+497333458+498094174+498483362+498541308+498608716+498996901+499617394
2534+500084498+500321080+500472726+500814126+501415566+501955789+502422893
2521+502902161+503329980+503719516+503975239+504221675+504654987+505112280
2507+505536698+505818669+505683635+505571405+506029134+506704653+507188412
2494+507479322+507672694+507841912+507937094+507896458+507798180+507885514
2480+508198137+508588240+508930381+508934393+508621639+508451680+508633847
2467+508899032+508940104+508717867+508295368+507929769+507793863+507675572
2453+507520743+507399095+507216230+507134869+507380956+507603063+507412655
2440+507041431+506747251+506316861+505645004+505051413+504755838+504669158
2426+504469157+503993683+503596036+503424682+503218839+502924180+502582300
2413+502121999+501616962+501246959+500925834+500509133+500143098+499943534
2399+499769520+499379243+498665573+497875251+497378411+497071674+496354952
2386+495032735+493627675+492334801+490549318+487764007+484360513+480935567
2372+477175631+472983254+469299359+466216511+463164184+460390646+458347738
2359+457225652+457549743+460116784+464673059+469462734+472115976+471130232
2345+467404566+464139420+462857403+462609049+462602858+462669699+462771116
2332+462813061+463477156+465219997+466832165+467422879+467849781+469033564
2318+470729010+472322080+473574055+474571179+475519862+476488645+477438243
2305+478306960+478895058+479214091+479553965+479920349+480123968+480266632
2291+480591900+481059701+481453728+481776510+482180958+482633979+482925237
2278+483011655+483071651+483154232+483281505+483597704+483995786+484322841
2264+484689443+485136882+485588987+485993173+486378742+486891801+487533703
2251+488059189+488420079+488879988+489481908+490090019+490647901+491043977
2237+491412018+492017469+492769858+493594319+494461031+495091597+495488981
2224+495907295+496350722+496856413+497512355+498276996+499169825+500151950
2210+501019228+501707304+502422762+503189670+503826819+504500376+505425296
2197+506432535+507270775+507945945+508647669+509434328+510449939+511827181
2183+513137190+514047111+514845281+515779183+516761395+517682391+518602035
2170+519574088+520543437+521590223+522868534+524077823+524750072+525160319
2156+525794198+526603748+527514236+528461698+529225597+529804015+530271206
2143+530520432+530525446+530421370+530261221+529962725+529508702+528937609
2129+528196251+527427120+526837801+526088029+524811114+523250658+521735678
2116+520325560+518994231+517576308+515790824+513816154+512199713+510870258
2102+509388764+507751308+506047185+504280406+502483586+500548375+498484931
2089+496650047+495234871+493880869+492267175+490582498+489050340+487584761
2075+486097119+484611047+483070474+481502300+480021635+478608334+477265319
2062+475987881+474639764+473180595+471783601+470557656+469313704+467868138
2048+466308074+464854442+463585898+462313256+460951667+459657791+458452120
2035+457214926+455979040+454913331+453925058+452757234+451453286+450116288
2021+448791150+447559842+446319421+445124172+444238362+443497703+442612548
2008+441663516+440707727+439648340+438542648+437543387+436738154+436003293
1994+434902790+433315214+431981399+431269778+430681985+430004940+429335002
1981+428702823+428001187+427060963+426038463+425245307+424615396+423715808
1967+422561762+421864704+421760715+421546239+420811988+419849746+419039411
1954+418436707+417907384+417272109+416488327+415560922+414349758+413255752
1940+412989782+413080386+412814984+412245068+411656360+411170464+410735844
1927+410223482+409269175+407952844+407029101+406330604+405771414+405951314
1913+406199015+405605336+404630710+404254167+404388547+404396439+404153186
1900+403807687+403325629+402605941+401931949+401370840+400573280+400140448
1886+400451458+400721613+400726932+400664015+400522092+400273825+399998743
1873+399618842+398330678+396201004+395717550+397134469+398188057+398226252
1859+397974061+397905737+397869766+397637413+397260870+396702465+395774319
1846+394354522+393226724+393787745+394860212+395068235+394855896+394640548
1832+393510047+391281222+390196198+390641849+391122644+391808540+392485367
1819+392538822+392146888+391531713+390584470+389529225+389135721+389314269
1805+389280739+388509602+386977967+385830287+385739770+385500746+383930785
1792+382329169+383245499+385020126+385525032+384853394+383796885+382912209
1778+382628232+382180532+380144819+376955408+376447712+378642309+380510461
1765+381159819+380505360+379635422+379680288+379811223+380076626+379973900
1751+377836596+374976857+374697720+375927589+376513463+375992599+375247100
1738+375236156+374382917+371615918+371415787+373977379+376351396+377718523
1724+377830143+377315121+375998442+372077964+368078742+369661348+373175720
1711+375249716+375214224+373095101+371024725+370606281+368917593+365528967
1697+365074704+367660865+371074518+372946812+372702992+371353786+368165597
1684+364191424+366010546+369772052+371472644+370649795+368937998+367618484
1670+365916018+366341046+369033006+369868673+368670154+368792369+369841771
1657+369360366+365558049+359350278+359492397+360769988+359889302+361822835
1643+366183862+368889688+369089252+366905730+365551749+370071639+375625256
1630+378934265+380854695+382897864+385496212+389717540+394283625+396797604
1616+399509359+405412312+411255313+415243765+418503461+422419229+426572495
1603+430479282+434419728+438180450+441293688+444219309+447719423+451604932
1589+455547559+459495331+463384721+467267439+470963063+473588749+474505341
1576+476562680+482066286+486749442+489845937+494379758+500140962+505036326
1562+507816580+506777162+506211781+515075672+525004923+533031751+539232415
1549+544804084+549448652+551939391+552022190+552437146+562149349+574290245
1535+581627776+587477535+595137238+602110217+606887247+610700508+614163823
1522+619013886+627066570+635344063+643369060+651324033+657452798+660491434
1508+660748073+665956627+678456059+688188973+694378562+697877020+701921762
1495+709007189+715318776+718884206+722490141+729457365+737515324+744689524
1481+751266557+757370600+762178892+764630172+765504296+769985402+778735362
1468+786727614+792858603+799648935+807000942+811679476+812513661+816890123
1454+828793783+840331191+848963078+855641702+863211630+871800177+879520181
1441+886542996+893057679+898827996+905100951+912413717+920664875+930358896
1427+938887970+943998944+947934072+951300112+953088648+958459923+967915792
1414+974709351+977577722+979719431+982689656+985544598+988533485+992065124
1400+993339074+991223265+989198234+988730564+990269699+992761441+992688016
1387+989213059+987317176+990408614+996898705+1003030740+1004951825+1002748551
1373+1001348418+1002460781+1003645348+1005532074+1008064191+1007789763
1362+1005143061+1004196123+1004197431+1003288164+1002565512+1003107392
1350+1003828562+1004161677+1003748160+1002014126+999517501+996569775+994661073
1337+995383115+997145926+998833742+1000805753+1002526881+1003519427+1005002315
1323+1007176376+1008722400+1010189505+1013055174+1016666429+1019717404
1312+1022370820+1025147629+1028205057+1031973278+1036461796+1041126116
1300+1045458192+1048824843+1050635964+1051024018+1051626766+1053852276
1288+1056493920+1058071860+1058916946+1059805284+1061220241+1063120659
1277+1065155456+1066319618+1065549178+1063815842+1062345685+1060670862
1265+1058731203+1057416965+1057244913+1058966041+1062333127+1064414927
1254+1063250243+1060673652+1059547773+1060462185+1062235809+1063818632
1242+1064177299+1063163563+1062162122+1062019719+1062182964+1061535655
1231+1059814876+1058990981+1060374546+1061649193+1061615359+1062019632
1219+1062960903+1063679107+1064453122+1065730037+1067234901+1067768410
1207+1067333005+1067525201+1068991259+1070119929+1069876632+1069576218
1196+1070147224+1071656709+1073119193+1072767851+1071752371+1072492900
1184+1073741823+1072919585+1070557689+1068650905+1068071266+1068182712
1173+1068073708+1068595357+1069978486+1070148270+1068293722+1065484561
1161+1063173765+1062396001+1061482897+1058882762+1056656641+1056202749
1150+1056459300+1056657426+1056519471+1055256508+1052451969+1049388349
1138+1047643938+1046881870+1045303755+1042043406+1037347257+1032482370
1126+1029716985+1028407543+1025940741+1022452442+1018566323+1013484300
1115+1008225604+1005258693+1004604059+1003799697+1000029122+992846115+985221947
1101+979673300+976813300+976007020+975265183+973346279+970361491+966499003
1088+962716569+959997140+957730382+955422552+952246615+947082010+942182591
1074+939897433+938220430+934829712+930874877+927751523+924947594+922498408
1061+920461779+917750460+913929743+909737453+906327812+904269731+902988979
1047+900872734+896928799+893095438+891438840+890957217+890489198+890146403
1034+889370906+887635825+885477897+883775954+882666469+881072745+878637685
1020+876803194+876186668+875993861+876299683+876903041+876539927+875685162
1007+875807508+876622421+876864497+876404239+876530073+877721878+878463366
993+877903261+877002540+876282329+876002320+876364649+876195737+874797522
980+873029479+871411949+869554697+867330756+865122860+862773085+860004823
966+857413844+855645539+853912377+851338665+849703083+850795128+852880329
953+853807995+854306623+855528774+857124330+858801158+860729393+863059286
939+866043464+869634924+873465931+877375333+881346824+885074932+888952243
926+893996943+898804276+901038333+902210691+904719525+907335967+908090623
912+907617284+907603768+907711464+906772024+906002457+906131169+905304309
899+903383224+902017973+901097282+900083720+898928541+897385656+895916284
885+894531498+893108518+892489463+892524693+892351421+892223494+893259990
872+895387310+897204971+898140486+898758408+900282979+903305352+907090839
858+910826271+914307158+918326872+923723873+929192816+932744947+935688227
845+939786860+943544965+946068710+948394592+951624508+955985709+959669605
831+961074272+960874229+960717089+962079724+964801072+967587037+971142046
818+975974668+980223814+983434894+986042615+987690580+989106584+991050952
804+992964798+993897523+994565935+998152337+1006067065+1014474666+1018911735
791+1019331879+1019156950+1022100752+1027792412+1031934124+1033501163
779+1035869513+1038902786+1039320837+1039444404+1043487315+1048932102
768+1051210371+1049916538+1047524208+1047748669+1051139649+1053533287
756+1052545538+1049441194+1047562578+1049332190+1051677169+1051417740
745+1049477122+1046500618+1043708898+1043571902+1045049210+1044538374
733+1041803161+1039239041+1038633764+1039913470+1039346039+1034727675
721+1030336650+1029344104+1029460433+1029038457+1028773709+1029043777
710+1030528933+1033244961+1034537398+1033141015+1032292180+1033862882
698+1034657041+1032207418+1030307350+1032491351+1034970361+1034717036
687+1033791201+1032206110+1029632223+1028750251+1029847092+1030335603
675+1031968220+1036049500+1035507358+1027611378+1027072027+1039787112
664+1048085360+1045409271+1041806388+1047046510+1054137692+1051291295
652+1043083652+1039601195+1038226700+1033533952+1030115590+1037691971
640+1051574008+1051849570+1039333743+1032918211+1034349039+1032342234
629+1023421792+1015598452+1018258496+1033339053+1049420527+1040964529
617+1007520218+984844009+988583016+1005470771+1020720501+1036508973+1053530671
604+1048995412+1022491422+1005408595
##END=
