##TITLE=Sample description
##JCAMP-DX=4.24
##DATA TYPE=INFRARED SPECTRUM
##DATE=24/8/2023
##SAMPLING PROCEDURE=Instrument type and / or accessory
##ORIGIN=Default
##XUNITS=1/CM
##YUNITS=ABSORBANCE
##RESOLUTION=4
##FIRSTX=4397.6552
##LASTX=599.8556
##DELTAX=-1.9287962
##MAXY=1.3588022
##MINY=0.29514265
##XFACTOR=1
##YFACTOR=1.2654832e-009
##NPOINTS=1970
##FIRSTY=0.55827188
##XYDATA=(X++(Y..Y))
4398+441153151+440152175+439739906+440555919+441435093+441530754+441170484
4384+441025462+440799663+439861284+438945371+438992142+439467101+439482550
4371+439087096+439147054+439946205+440421165+440143320+439653760+439481985
4357+440292864+440948547+439689650+437974445+438002234+438953755+438608462
4344+437355924+437333080+438055128+438081363+437784725+437469059+437108412
4330+436893211+436639575+436515466+436937862+437234264+436678009+435961519
4317+435597670+435364476+435357458+435352371+435240272+435536722+435925959
4303+435777075+435234668+434605643+434380174+434522982+434033563+432890297
4290+432346571+432951245+433805267+434185508+434527786+435026673+435193219
4276+434806243+434413427+434219420+433572922+432701283+432119406+431362504
4263+430475888+430511826+431621179+432424192+432268808+431779106+431076935
4249+430229601+429935506+430309436+431067421+431854326+431838264+431209664
4236+430765743+430296295+429419522+428524051+428688902+429856707+430810489
4222+431075051+430569005+429707729+429160282+428718623+428313136+428413884
4209+428453683+427932095+428050882+428870427+429223114+429306764+429178981
4195+428583869+428004252+427645631+427390441+427041475+426543201+426400487
4182+426910301+427664989+428079001+427782033+426831172+425835095+425551787
4168+426172380+427123853+427514692+426942847+425923502+425153130+424931899
4155+425086106+424955921+424388644+424077217+423940155+423147881+422203850
4141+422281706+423179532+423837524+423868657+423882034+424201232+424139201
4128+423566697+423499202+423979390+423918536+423233086+422300123+421422032
4114+421290480+421749661+422253164+422693787+422712439+422278174+421784892
4101+421243145+420820796+420818818+420778029+420378713+420144153+420377111
4087+420912642+421298723+420888621+419760474+418765150+418248790+417924316
4074+417913577+418419340+418999616+419410707+419751101+419592185+418593564
4060+417370793+416858153+417258741+418059164+418559558+418452263+418351939
4047+418360276+417863886+417602338+418131227+418473929+418259858+417968543
4033+417742933+417374137+416736163+416165967+416123200+416397135+416410465
4020+416345137+416825371+417268774+416886932+416509234+416571312+416508339
4006+416317960+415817707+415011303+414729643+415167394+415551167+415331632
3993+414832605+414572941+414580712+414448502+414089315+414038776+414266789
3979+414235655+413926630+413628909+413708462+414175037+414443179+414294860
3966+414039859+413472630+412476694+412114681+412740927+413175522+412935875
3952+412436847+411646599+411040465+411467005+411821765+411078522+410764080
3939+411644526+412555917+412694392+411864956+411066134+411881441+412945625
3925+412272467+411433093+411785827+411567658+410156204+409578330+410724846
3912+412101164+412598873+412351313+411113140+408696565+406593395+405898618
3898+406787731+409054103+410710433+409785807+409094045+410748820+410642232
3885+408302147+407265893+406045148+405953066+408387022+409789245+409262852
3871+407839010+406466837+407231981+408016766+407669778+408471567+409959513
3858+410921725+409912271+403727012+400567193+405043607+409560102+410942590
3844+409532454+407586788+406005206+404014983+403643738+405682193+408031226
3831+409455021+409684635+409552613+410775384+410902508+406879011+405612861
3817+407323450+407610196+408845638+410801807+411058504+409137141+408346421
3804+408783936+406500184+405139409+406464246+407301548+408516124+410218564
3790+411332534+411812439+411387453+410825876+411235790+410947913+409814161
3777+410309327+411820634+412766361+412121511+410307631+409063147+408746397
3763+409721138+410324305+408696094+407844050+409309528+409924941+406627590
3750+403450156+405086279+405627745+402776810+403732711+407388825+408224714
3736+404659409+401600998+402735409+406071147+408958820+409604753+409095881
3723+409415551+409864558+410163127+411202348+412279862+410300754+405989145
3709+406552182+410594142+413789992+414734919+414529090+415885249+418607317
3696+421445959+423555817+423369205+420022870+418270456+421233819+425068820
3682+426831266+426725667+425572652+420860879+416074969+416641916+416282211
3669+414953747+417078771+419581870+420348239+420988238+422731844+424668138
3655+427822257+432443079+433444715+426156649+419211285+418070609+417610063
3642+415133010+411042019+407044145+403487271+400066470+397060952+391222658
3628+381974677+378989012+379932950+379311202+375101094+369164878+366206319
3615+364355583+361290130+358521433+355690045+352867912+351795909+351038489
3601+348852965+346133322+343560515+340335863+337533960+336712814+335243331
3588+330345935+326785364+327143350+327762719+326889126+325189465+323590150
3574+322424488+321693044+320456943+316320288+310415841+308713189+309883608
3561+310239121+309824779+309443455+308573677+307058979+305869366+305100736
3547+303638978+301694843+300843081+301209215+301430563+300601621+299471355
3534+298913522+298093671+296309441+294769896+294349856+293996250+293290947
3520+292969158+292891254+292462288+291683437+290788508+289652378+288502518
3507+288188005+287990490+286832035+285877076+285648899+285295576+284890113
3493+284437031+283448160+282420102+282076976+282056558+281566621+280577467
3480+279889897+279714872+279554920+279155085+278598289+278203706+277970324
3466+277430602+276460783+275408892+274625190+274354551+274720827+275231064
3453+275030535+274213957+273275601+272300648+271811841+271847449+271700284
3439+271320114+270797748+270184785+269892598+269906493+269710437+269332881
3426+269200530+268830251+267696264+266720039+266885455+267794515+268398882
3412+268266507+267903905+267740302+267652484+267507980+267322216+267312938
3399+267668310+268041697+268047184+268005618+268550380+269383067+269617297
3385+269579334+270089218+270814657+271214562+271554815+272519712+274129647
3372+275452601+276344445+277542606+278903122+280079122+281474563+283231216
3358+284940322+286320996+287596284+289221009+291056979+292541887+293622298
3345+294546641+295531438+296783835+297845923+298129396+298162838+298419676
3331+298479116+298440612+298876078+299500298+299466645+298872898+298686193
3318+298902006+298687512+298076809+297645959+297548438+297631899+297590216
3304+297398965+297449504+297796115+298354065+299214517+299926367+300005590
3291+300104689+301003975+302154848+302813569+303263424+304006196+305173977
3277+306672026+308078324+308997203+309776266+310777336+311524677+311775886
3264+311846301+311844911+312091411+312893317+313794723+314372808+314808840
3250+315527755+316444586+316755213+316725233+317301953+317887622+318104236
3237+318682722+319340101+319462044+319433524+319540277+319639659+319929773
3223+320466293+320793923+320806593+320826492+320887464+320910355+321117337
3210+321420451+321397560+321275971+321476406+321821557+322088427+322396416
3196+322729109+322741779+322632295+323152023+324210155+324845279+324818479
3183+325013945+325839543+326650021+327044604+327370491+327958397+328451114
3169+328406533+328268788+328534434+328971054+329347173+329720891+330091994
3156+330406530+330718216+331034353+331128766+330826076+330470704+330483774
3142+330640618+330781684+331169225+331776160+332368116+332670783+332481346
3129+331889742+331263143+331119134+331484044+331890661+331936324+331584485
3115+331410756+331713493+331952315+331893887+331722324+331439911+331347877
3102+331687800+332093263+332324549+332441028+332601451+332877082+333029099
3088+332985154+332976417+333227532+333735697+334333706+334989437+335478126
3075+335487687+335279151+335157609+334997020+334831086+334899193+335078244
3061+335067788+335057544+335315818+335512604+335354135+335009172+334737686
3047+334711993+334934188+335211044+335289913+335288547+335506669+335689913
3034+335446899+335042448+334960988+335106128+335214270+335423396+335714475
3020+335858273+335955700+335973245+335669495+335298297+335209960+335336707
3007+335597949+335995853+336234392+336065420+336061463+336709564+337456598
2993+337984922+338700494+339596177+340249411+340683511+341412435+342445227
2980+343092903+343317925+343620191+343869399+343922293+343935457+343792272
2966+343586797+343592944+343529405+343133786+342681788+342532480+342859545
2953+343365284+343634086+343736152+343879408+344088604+344095528+343892737
2939+343979684+344155910+343794580+343174669+342942983+343088335+343128417
2926+342916654+342743089+342541406+342040423+341574813+341412035+341237646
2912+341110451+341454142+342097862+342600611+343008500+343423877+343743900
2899+343981215+344079443+344067126+344233437+344565730+344782697+344905841
2885+345176409+345582437+345823520+345830161+345831197+345833246+345726894
2872+345564539+345522926+345814665+346268029+346524585+346481370+346148347
2858+345826158+345829360+345940046+345804515+345415608+345280713+345818504
2845+346533275+346853509+346973639+347167150+347435481+347850835+348436598
2831+348965629+349323732+349671309+350089772+350527710+350881245+351110859
2818+351510081+352251346+352980529+353424591+353702718+353925832+354121346
2804+354471654+354996517+355343764+355418747+355481202+355610610+355798446
2791+356105682+356398928+356618769+357040293+357557243+357717077+357667858
2777+357906656+358531701+359244164+359677345+359771240+359837415+360122561
2764+360488601+360773110+361122901+361619055+362058760+362326572+362509275
2750+362582563+362635362+363093648+363969667+364743289+365169453+365501086
2737+366054232+366629444+366923727+367198534+367657479+368108747+368482865
2723+368918402+369501762+370253059+371082355+371616142+371719787+371913369
2710+372458319+372913803+373093703+373303723+373715709+374233813+374621919
2696+374780930+374788843+374698245+374670385+374749325+374779352+374849767
2683+375091580+375363278+375425521+375212392+375074153+375279110+375559922
2669+375775641+376044914+376298313+376438484+376565490+376941303+377564393
2656+378058899+378265740+378439893+378791026+379108930+379197926+379253339
2642+379533092+380061816+380568921+380893796+381191964+381647448+382323997
2629+382942589+383218125+383394516+383788887+384393372+385102185+385850114
2615+386559044+387084990+387463582+387988279+388676486+389338386+389994423
2602+390614145+391129493+391611423+392167160+392856944+393528712+393961941
2588+394152603+394331937+394668021+395105560+395704888+396442149+397052333
2575+397580610+398115293+398459125+398774980+399430851+400151769+400404650
2561+400291186+400360329+400867175+401524225+401902016+402035169+402328651
2548+402772995+403011605+403171605+403624098+404295560+404984825+405605372
2534+406001768+406235998+406536922+406915090+407264245+407476903+407576331
2521+407817956+408362012+409002199+409506455+409935727+410324917+410622591
2507+410876650+411077721+411217797+411365316+411583154+411942577+412405714
2494+412845160+413134120+413162192+413091400+413137512+413172225+413125454
2480+413135533+413202510+413191818+413104730+413083629+413005395+412710453
2467+412472644+412469771+412414522+412056324+411590926+411363479+411292734
2453+410970521+410356286+409853301+409607249+409373255+409000456+408591155
2440+408310531+408091091+407776037+407387365+406918811+406364817+405791371
2426+405234269+404835565+404648294+404404879+403938822+403446435+403020554
2413+402472165+401812149+401257590+400844049+400452787+399915043+399150322
2399+398423188+397982753+397564549+396820929+395880430+395141144+394604554
2386+393768594+392447831+390803324+388639112+385778027+382623884+379603483
2372+376369929+372540580+368802135+365660050+363032253+361281841+360359758
2359+360015761+360566575+362037918+364618568+368269383+371009349+370711416
2345+367736608+364904160+363641260+363270486+363545316+364193370+364542548
2332+364473875+364631803+365430082+366373525+366930745+367475743+368588323
2318+370010823+371175119+372107799+373047144+374044611+375135854+376168246
2305+376899290+377325147+377623810+378024822+378650714+379328535+379825255
2291+380258978+380784052+381300625+381753895+382160653+382525586+382818150
2278+382981258+383190218+383648245+384175580+384543080+384801167+385109344
2264+385521189+386034771+386748435+387568427+388224346+388725352+389239169
2251+389869748+390614946+391331294+391981985+392704410+393465080+394115653
2237+394696117+395370004+396242961+397198250+398119014+399022492+399809114
2224+400503325+401334222+402390823+403545770+404581223+405431666+406325960
2210+407448878+408677866+409927249+411137538+412222777+413361191+414692293
2197+416084908+417343899+418582872+420112361+421812069+423461993+425121761
2183+426775217+428404275+430122165+431964493+433862541+435742268+437583607
2170+439494042+441533344+443595961+445703229+447923113+450087514+452018767
2156+453729356+455409613+457153690+458689819+459907457+461015868+462017173
2143+462790655+463288458+463518684+463439037+462924938+462124751+461224993
2129+460080456+458634571+456985259+455094088+452931901+450617628+448233693
2116+445670023+442842686+439793742+436610562+433506228+430517289+427423506
2102+424210417+421032088+417901661+414737321+411597567+408517066+405368834
2089+402237747+399268921+396481242+393991025+391688432+389275602+386760021
2075+384281721+381899223+379634875+377429521+375239098+373147468+371222431
2062+369356058+367427465+365479538+363541336+361589877+359705181+357945443
2048+356242932+354525678+352802372+351079420+349358775+347700161+346069242
2035+344447908+342963707+341609032+340205914+338698374+337191353+335730395
2021+334297039+332805349+331194400+329738341+328609065+327548530+326377264
2008+325097054+323717533+322297859+320924461+319714266+318718377+317756730
1994+316549290+315037253+313579592+312444969+311485536+310558108+309609719
1981+308639477+307633296+306571420+305587565+304775815+303983776+302931555
1967+301691899+300739154+300082458+299317219+298385528+297450022+296549770
1954+295704673+294955801+294253253+293437170+292403907+291125581+289912795
1940+289421091+289375828+289010000+288270407+287501848+286853489+286244812
1927+285548057+284565450+283453765+282709039+282061127+281465120+281428640
1913+281419550+280827311+280089437+279846282+279913588+279808932+279421814
1900+278855551+278193933+277493692+277046852+276858592+276407418+275926100
1886+275896027+275984033+275952170+275776298+275535285+275356681+275140491
1873+274662234+273432327+271599796+271059013+272086672+272943826+273008613
1859+272735643+272486742+272292099+272084882+271783416+271269575+270492067
1846+269255872+268014968+268205394+269033323+269190968+268960530+268741396
1832+267855109+266006988+264880136+265028196+265263674+265609979+266013252
1819+265958592+265487353+264862615+264015775+263023960+262578957+262718703
1805+262651679+261852905+260434644+259376089+259212556+259004726+257704522
1792+256170300+256609652+257886824+258137468+257418529+256527627+255882447
1778+255704149+255384126+253840955+251250721+250581614+252130295+253470676
1765+253816604+253170647+252522240+252733085+252963405+253182422+253029840
1751+251231315+248881410+248646592+249656987+250221814+249929227+249319843
1738+249260921+248665267+246408079+245895651+247689113+249427232+250369709
1724+250411770+250040831+249053232+246076870+242993071+244165539+246859983
1711+248477973+248575965+247140371+245531825+245093533+243887765+241302759
1697+240674700+242396946+245011790+246546460+246328479+245320133+243167225
1684+240131704+240995029+243578057+244952326+244443054+243018034+241947939
1670+240674441+240625103+242230706+242717534+241617130+241308081+241815305
1657+241384455+238413838+233257202+233225268+234328028+233592062+234821215
1643+237989935+239996715+240288030+239008644+238425590+242322504+247079635
1630+250333042+252841887+255567840+258732486+263018190+267404430+270493386
1616+273992703+279500425+284846804+289140562+293007120+297046608+301051523
1603+304988143+309065334+313034877+316626841+320290161+324434635+328663418
1589+332832007+337158076+341647301+346200087+350571984+354003030+356220771
1576+359726588+365418449+370040990+373903239+379147693+384964722+389960346
1562+393456131+394784029+397547357+405685866+413791452+420917116+427112125
1549+433034141+438064595+441419173+443263668+446097081+456429711+467272484
1535+474452832+481659132+490193048+497362986+503157548+508606394+513333617
1522+519120784+527487070+536097572+545108190+553921882+560731503+564846751
1508+567166017+574918680+587823175+597347799+604241212+610016557+617256015
1495+626322919+633720116+639015038+645277165+654756903+664521126+672891227
1481+680653263+687861400+693810404+698355019+703425225+712622031+723347619
1468+731970225+739291826+748371493+758519207+766175880+771419133+780704770
1454+793854281+805513020+815617731+824721278+834704283+846015421+856980184
1441+866584596+874226432+881391331+890874507+901580971+911378966+920236555
1427+928845361+936636222+943599908+949116767+952631110+957644655+965323794
1414+971780493+975422759+978007813+980969103+983550294+985977561+989189143
1400+990638042+989060747+988133907+989560482+992995695+996218392+996027165
1387+992147607+989485592+991446378+995949167+1000072045+1002087279+1001723194
1373+1001323689+1002396163+1003230592+1002964852+1002786624+1002389286
1362+1001379927+1001463012+1002381939+1002828732+1002716162+1002531152
1350+1002168951+1001629747+1001033834+1000662495+1000441594+998381144+995368326
1337+994923228+995682203+995786106+996003709+996885333+998509728+1001146121
1323+1004186917+1006388667+1007134454+1007843407+1010435808+1014118110
1312+1018185033+1022864260+1026731196+1029202549+1031888020+1035653124
1300+1039474278+1042314991+1044099999+1045645360+1048208558+1051113705
1288+1052888633+1054307954+1056008369+1057052677+1057717168+1058798591
1277+1059444525+1059048317+1058203149+1057397546+1056855610+1056196394
1265+1054602048+1052599814+1051558144+1051514152+1051625215+1051314918
1254+1051155813+1051937113+1052987261+1053922956+1054729596+1054918091
1242+1055017002+1055648334+1056411548+1056919101+1057043446+1056584783
1231+1055920951+1055979355+1056719113+1057219883+1057295338+1057576527
1219+1058239040+1058969754+1059462235+1059371991+1059154199+1060017265
1207+1061781548+1062605521+1061865858+1060966430+1061323827+1063036960
1196+1064313849+1064129404+1064516380+1065503320+1064210417+1061781548
1184+1060966901+1061062515+1061345117+1061637138+1060828803+1058751774
1173+1057229209+1057434096+1057792340+1057478276+1057128697+1056738236
1161+1056436605+1055579662+1053796633+1052357530+1050997556+1048341005
1150+1044559038+1040834252+1038590488+1037791290+1036656737+1033993403
1138+1030256936+1026991472+1023897641+1019434510+1014245470+1009484853
1126+1005302723+1001208387+996519929+990798560+983842410+976581050+969993884
1113+963953835+957720580+950556153+943619314+938854552+934962372+929096311
1099+921925101+916210138+912209061+907754503+901821466+895409889+889437476
1086+883883596+877634987+870440321+864247385+859755994+855203561+849544741
1072+844089395+839644822+834798201+829699875+826388347+824549551+822115595
1059+818628571+815074099+812072962+809695904+807735966+805678625+803252959
1045+801149742+800402731+800637856+800627776+800182678+799525629+798565348
1032+797744390+797682594+798310818+799669944+801292456+801595122+800896248
1018+800780946+801227551+802140261+803431375+804412662+805156847+806082086
1005+807427459+809223394+810969214+812229524+813244347+814292423+814950131
991+814848112+814201048+813161262+811508795+809500343+807995489+806650210
978+804504414+801565166+797871372+793735306+790178338+787470682+784925146
964+782578844+781067254+780161939+779393451+778667117+778791650+780723375
951+783330660+785829472+789066441+792871674+796984285+801307339+805310771
937+809472177+814133601+818748206+823371855+828436362+833454052+837385515
924+840217091+842627308+844941252+847015266+848331532+848592938+847805233
910+846567719+845681009+844681635+842602439+839285447+835370375+831921879
897+829464750+827307179+824819435+822456319+820424694+818228878+815376295
883+812199097+810420589+810730603+811407341+811367117+811722818+813385648
870+815265798+816212702+817597263+821158988+826248836+831392943+835839683
856+840229148+845569475+850614766+854437710+858406664+862932909+867369004
843+871516375+875412230+879313171+884135395+890897680+897139224+898626369
829+897061132+897587619+900732789+903749281+906028653+908694531+912298175
816+917089878+921696759+924119881+925825101+928563136+930932187+932562988
802+935075412+939294281+944438859+949175077+953440104+957204361+961731266
789+969750564+980387979+990161481+996161307+999157734+1003186694+1008727103
775+1014921171+1021859234+1026971219+1028575078+1028250746+1027731889
764+1028571781+1031529492+1034726661+1036816219+1038074551+1037136313
752+1034109364+1033214270+1036353882+1039259218+1038601132+1035947218
741+1033587681+1032821642+1032209432+1029558533+1026033923+1023783847
729+1023683523+1025449690+1027434403+1027600102+1025869260+1024040072
718+1023131790+1023155717+1024409904+1025805109+1024176098+1018882118
706+1012873061+1009769151+1011644873+1015253981+1015358921+1013248639
694+1012728180+1012427492+1010248067+1008543883+1009125760+1009993725
683+1011139675+1013928767+1015774534+1015458773+1015014241+1014258281
671+1011008265+1006023452+1007786510+1016712113+1024315421+1030719367
660+1035099130+1033463242+1027144642+1023812861+1028347301+1036316108
648+1037853274+1031327055+1026423631+1026826150+1028218529+1029400182
637+1034961880+1053363028+1073741823+1067071949+1040359387+1022868311
625+1018202555+1015402347+1012605060+1014350692+1015573133+1008729835
613+1004579262+1013496669+1024524169+1028332794+1031035787+1033424338
602+1030363100+1025109720
##END=
