##TITLE=Sample description
##JCAMP-DX=4.24
##DATA TYPE=INFRARED SPECTRUM
##DATE=24/8/2023
##SAMPLING PROCEDURE=Instrument type and / or accessory
##ORIGIN=Default
##XUNITS=1/CM
##YUNITS=ABSORBANCE
##RESOLUTION=4
##FIRSTX=4397.6552
##LASTX=599.8556
##DELTAX=-1.9287962
##MAXY=1.3628794
##MINY=0.19722147
##XFACTOR=1
##YFACTOR=1.2692803e-009
##NPOINTS=1970
##FIRSTY=0.22682096
##XYDATA=(X++(Y..Y))
4398+178700443+179129863+179247203+178703061+178317301+178481154+178777163
4384+178747449+178516585+178682704+179172561+179318711+179062817+178928055
4371+179175860+179419990+179269556+179024745+179090899+179409683+179798706
4357+180009894+179803332+179257335+178613639+178283549+178207968+177707604
4344+177064119+176965411+177155620+177293246+177328853+177225930+176988609
4330+176674427+176438702+176457592+176669026+176460879+175529956+174640110
4317+174362674+174406205+174522066+174736072+174872759+174801240+174765856
4303+174901733+175071268+175152484+174968685+174420563+173808271+173576139
4290+173760690+173931939+173829591+173645381+173679673+174188736+174972559
4276+175305572+174853822+174084686+173686001+173747236+173880201+174054597
4263+174382233+174512181+174230166+173980260+174053446+174207638+174085426
4249+173601990+173285484+173505829+173761875+173530694+173166148+173354291
4236+173832033+173799490+173228370+172678358+172518473+172730929+173224742
4222+173850805+174221314+174180800+173843456+173389734+173388924+173949091
4209+174238549+174104057+174273064+174785461+175080014+175173816+175260162
4195+175204104+175206452+175285426+175129415+174966032+174897882+174579439
4182+173950887+173407074+173275130+173495334+173877654+174018919+173799795
4168+173645956+173486740+173082831+172788912+172839170+173133911+173572958
4155+173823322+173587597+172985273+172379590+172280342+172665960+172817064
4141+172516653+172283335+172304502+172181081+171887092+171921372+172319682
4128+172511452+172331257+172300581+172443079+172118449+171468742+171438242
4114+172033194+172224706+171877219+171768613+171983394+172016571+171798667
4101+171603856+171558200+171775281+172168602+172392316+172471372+172543432
4087+172392011+172042774+172009362+172276796+172186575+171793783+171639663
4074+171719764+171859315+172002718+171985354+171713929+171452553+171429895
4060+171642222+172013131+172079860+171643302+171222922+171118496+171209972
4047+171308376+171456357+171782924+172032654+171970515+171742058+171558670
4033+171312919+170892726+170521747+170361921+170409808+170515067+170542222
4020+170636269+170861604+170986129+170871454+170739181+170615255+170294053
4006+170100604+170233804+170152482+169710524+169447058+169569258+169876372
3993+170084379+169874529+169319011+168870948+168803644+168938077+168931291
3979+168879366+168961427+168925045+168616745+168145930+167701636+167624564
3966+167884895+167874270+167297644+166817014+167103725+167731596+167976254
3952+167846353+167359736+166676078+166524117+166333591+165467284+165335727
3939+166365394+167217343+166919351+165464807+164411953+165058819+166056108
3925+165973283+165601376+165620371+164998007+163835738+163748405+164676264
3912+165417237+165777920+165776934+164666497+162680478+161363244+160914476
3898+161584317+163383155+164541738+163413432+162148369+162933237+163115311
3885+162162363+162125219+161702795+161752032+163076980+163225254+162218973
3871+160908430+159949073+160748639+160843450+159908289+160873997+162739612
3858+163814137+162845224+157733575+155380545+158902324+162363338+163524491
3844+162693768+161244260+159495292+157458546+157467175+159206210+160299625
3831+160909123+161678294+162183260+162760250+161862680+158316612+157845350
3817+159368514+159857972+161748369+163991021+164174257+161931840+160709263
3804+161310039+160257467+159724595+161129315+162326322+163684071+164999521
3790+165599651+165718341+165360756+164973964+165144931+164643358+163678542
3777+164367049+165959395+166749111+165887758+164686924+164620993+164919796
3763+165623741+165878413+164755508+164441702+165607235+165829446+163134200
3750+161204439+163319079+164749298+163671204+164843686+167520631+168260499
3736+166311637+164824997+166245718+169101977+171573321+172532725+172723627
3723+173599044+175142787+177409646+180355691+183366634+185728234+190121721
3709+201000183+216350061+233790571+253323474+274164127+291226050+301618682
3696+306786682+308573346+307206522+301636057+295541479+293562187+293002125
3682+291188694+288172022+284790452+279271502+274575656+274709443+273814960
3669+272589930+275000850+277932783+279537597+280593597+281523158+281505760
3655+282045981+284442648+285544245+282914870+282772748+287404001+292317997
3642+295911425+298626101+300896494+302644487+304453645+306886494+307732890
3628+306633876+309109435+313753508+317335290+318961634+319930313+322585444
3615+326062506+328845508+331269834+333522688+336048517+339485264+342744223
3601+345040350+347309287+349858854+351653431+353222932+355674189+357504103
3588+356635565+356151085+358615397+361157685+362042612+362158906+362521503
3574+363088210+363721880+364299199+363424721+361320916+361328359+362467524
3561+362737705+363049351+363983655+364443834+364159940+363702110+363333760
3547+363104951+362998987+363152473+363522396+363616597+363238527+362893845
3534+362969895+362872783+361993915+361176445+361163625+361181047+360835825
3520+360476680+360304268+360161535+359606499+358625517+357626667+356711968
3507+355650240+354248572+352769046+351991374+351713492+350976300+349961695
3493+349347631+349004357+348564418+347844718+346851057+345809639+345063736
3480+344668878+344152559+343277752+342364181+341645138+341347486+341356972
3466+340806936+339497051+338125602+337038045+336252955+335985263+335857744
3453+335156335+334379134+333997589+333611864+332905618+332063566+332098339
3439+332814423+332739194+332110079+331612990+331295568+331563683+332148750
3426+332706792+333589417+334407521+334655795+335101463+336672161+338879582
3412+340525485+341612149+342928539+344911094+347522107+350040540+352050332
3399+354323472+357277735+360092552+362291473+364407323+366795161+369375627
3385+372125781+374715991+376813175+378718740+380902916+383511816+386101885
3372+388381200+390616703+392643329+394212478+395603181+397015203+398202665
3358+398844365+398966225+399009803+399597547+400830889+401966790+402130443
3345+401652537+401604263+402001587+402348898+402339882+401661131+400620980
3331+399673199+398528798+397022904+395804871+395135841+394709308+394660705
3318+394910670+394917808+394494234+393867326+393525720+393846171+394844223
3304+396285266+397892357+399950729+402878741+406261227+409510442+412530025
3291+415375765+418219345+421233997+424259263+427088754+429521909+431057528
3277+431526042+431593898+432131208+433320877+434540507+435380845+435998409
3264+436233112+436127923+436461616+436942011+436612497+436204326+436510266
3250+436574835+435993055+435637056+435500874+434995544+434354923+434002258
3237+433778215+433289274+433037853+433610946+433966710+433247902+432125338
3223+430953560+429752620+429157410+429038321+428399250+427387463+427021602
3210+427164641+426711154+425841231+425588683+425708336+425838742+426298897
3196+426793615+427062786+427200048+426843908+426320874+426529985+426876639
3183+426508571+426067904+425949144+425581733+425033999+425106269+425707397
3169+425808312+425078000+424301385+424043156+423860765+423476684+423235407
3156+423144353+423137543+423310025+423355388+422949753+422285700+421801924
3142+421624089+421114861+419705563+418258790+417851183+417913075+417360128
3129+416271609+415569707+415580884+415443152+414680813+413805161+413358060
3115+413363367+412930401+411595721+410258740+409809620+409909127+409289263
3102+407787830+406776137+407182383+407946318+407206567+405421405+404562659
3088+405261790+406009290+405015911+403217178+402619432+403173318+403414219
3075+402629763+401672683+401619478+402018069+401043944+398254837+395454225
3061+393853497+392735839+390881554+388410386+386437809+385520880+385165092
3047+384434756+383460160+383061663+383141447+383194135+383176737+382971830
3034+382441071+381925151+381650556+381664245+382142104+382886575+383987280
3020+386903998+391868194+395557442+395601349+393981532+393514403+395059813
3007+397847934+401211307+405554065+411161112+417751347+425425687+434959948
2993+447019780+461441012+476616788+489918554+500492450+509797643+519052777
2980+527692509+533198311+533498428+528971448+521539371+513268553+504611634
2966+495371715+486643324+479298545+473628291+469790346+467236553+465797905
2953+465447682+465522019+465956205+466926621+468124086+469516949+471304177
2939+472915776+472884032+470665998+467153717+463201755+459508257+456039178
2926+451724032+446447110+441387892+437352624+434008551+430339378+425875089
2912+421178022+417037846+413821738+411245874+408604830+405626618+402672684
2899+400413138+399194260+398130676+396361199+394641123+393864884+393763687
2885+393764391+393376788+391983315+389602074+386960044+384238066+380910241
2872+376733461+372277131+368277928+364852873+361831106+359086799+356456439
2858+353898889+351371534+348631241+345645539+342680382+339851782+337217501
2845+334956875+333113578+331400170+329514774+327636351+326081220+324801717
2831+323636138+322607609+321759781+320982673+320286617+319681170+318888636
2818+317964193+317328199+317017844+316794669+316402465+315684338+314879172
2804+314254823+313771869+313310986+312680509+311780509+310817888+310029769
2791+309492811+309073018+308492294+307703470+306885649+306082502+305314106
2777+304748620+304368883+303956087+303433922+302823849+302253456+301882688
2764+301614080+301382289+301261838+301168037+301019410+300786562+300414949
2750+300022415+299797597+299710699+299582171+299322297+298916850+298458057
2737+298191961+298061156+297799686+297523306+297390059+297365241+297466837
2723+297519244+297272097+296912998+296786278+296810909+296672871+296410767
2710+296232768+296062094+295890105+295826593+295672260+295320582+295004545
2696+294829480+294652701+294209006+293442323+292746079+292347159+291978622
2683+291466130+290873479+290242955+289574559+288864556+288187331+287581179
2669+286935253+286248518+285656196+285130579+284592566+284160938+283853166
2656+283490123+283058731+282626892+282124309+281561688+281124191+280884111
2642+280762698+280668121+280517640+280388760+280401674+280525858+280722993
2629+280927431+281092259+281267887+281429639+281533231+281621374+281808108
2615+282178242+282597049+282887916+283011889+283038914+283140440+283255021
2602+283137951+282830391+282482727+282192517+282069273+281998740+281797683
2588+281475729+281040533+280556382+280242693+280126186+279913742+279419800
2575+278867980+278437597+277900264+277173825+276523414+275947152+275300028
2561+274752317+274393125+274081291+273733744+273295449+272845836+272574058
2548+272437430+272176946+271699839+271273729+271117166+271146892+271309254
2534+271577087+271819045+272028038+272307117+272686620+273074293+273285587
2521+273383403+273675514+274139168+274514374+274763681+274980774+275259455
2507+275669246+276106063+276332196+276352764+276434450+276637056+276824988
2494+276929965+276927054+276839005+276680658+276458610+276284673+276238934
2480+276231045+276184485+276173848+276253797+276358493+276373919+276241681
2467+276027640+275854243+275825269+275872275+275812191+275678544+275602024
2453+275581103+275545555+275444052+275359972+275355017+275319328+275233134
2440+275133134+274979436+274841728+274742362+274602869+274508222+274520408
2426+274548818+274583075+274718154+274922193+275060465+275195262+275393712
2413+275531749+275653585+275925973+276306227+276636140+276797094+276839780
2399+276988711+277283875+277586176+277855629+278056263+278200029+278364551
2386+278473216+278400546+278108083+277552670+276624471+275378896+274126747
2372+272817190+271127145+269299321+267803241+266825382+266293356+266005236
2359+265969641+266403992+267529421+269468750+271962342+273915430+274221441
2345+273047691+271798876+271238063+271182252+271444285+271790094+272057035
2332+272308808+272724422+273313434+273947738+274663165+275525292+276358704
2318+277114891+277917404+278623885+279097048+279478992+279885778+280244360
2305+280485637+280712944+280986788+281205384+281354597+281473123+281546215
2291+281654950+281829287+281948775+282000688+281987821+281816631+281546121
2278+281307427+281103693+280916678+280784651+280726187+280630108+280428394
2264+280254832+280197800+280187750+280116818+279984604+279922054+279941472
2251+279902871+279782044+279693315+279681152+279680589+279635085+279592986
2237+279619776+279640767+279582397+279501744+279536423+279728886+279832361
2224+279730084+279680096+279768520+279848116+279864928+279813014+279762580
2210+279831328+280001533+280226445+280467511+280592752+280584768+280645698
2197+280827760+280957391+281062674+281292517+281537269+281630273+281609869
2183+281549995+281452156+281344501+281245558+281110761+280918392+280726210
2170+280580589+280444548+280332526+280290521+280211606+279971620+279648234
2156+279354432+279072159+278789980+278508412+278182138+277769858+277328580
2143+276993454+276739662+276490519+276221794+275836304+275349429+274825104
2129+274249781+273711368+273318435+272997773+272517190+271808996+271157082
2116+270811484+270635762+270348206+269918880+269508760+269186971+268923505
2102+268723622+268621720+268610004+268643415+268703664+268809018+268933648
2089+269015757+269059077+269143650+269327637+269569290+269807116+270043886
2075+270307140+270577603+270805661+271020618+271268704+271555133+271911860
2062+272312753+272670935+272972744+273298548+273703925+274082699+274316487
2048+274478919+274682958+274922052+275154689+275375914+275590049+275754149
2035+275810946+275844827+275994393+276220197+276405664+276472792+276437103
2021+276445109+276452858+276350862+276368753+276575023+276761193+276893877
2008+276937033+276890097+276885941+276905382+276899183+276912989+276946119
1994+276911111+276776525+276721019+276846072+277084016+277394840+277649595
1981+277733488+277742692+277797118+277931140+278132830+278269858+278191248
1967+278004091+278051966+278323791+278431187+278310595+278168050+278069459
1954+277994511+277873403+277618907+277239357+276737150+275924024+275049500
1940+274840812+275066381+275099793+274919375+274736679+274665395+274668682
1927+274567931+274156238+273681995+273651870+273811814+274035904+274683662
1913+275283968+275304794+275179906+275531256+276238488+276892985+277422616
1900+277884626+278203457+278387585+278711558+279204233+279576949+280141002
1886+281104539+282027338+282864225+283729921+284564648+285352181+286122526
1873+286768969+286803203+286264884+286699235+288460752+290196348+291349648
1859+292142299+292836335+293606235+294361037+294996562+295521943+295873012
1846+295851551+295943756+297337652+299209477+300434179+301276842+302182148
1832+302682923+302485506+302831761+304134697+305546695+307097459+308702884
1819+310001616+311019508+311870319+312415588+312827258+313742919+315045408
1805+316156843+316793777+316949072+317267081+318227988+319149355+319199719
1792+319175816+320850623+323170277+324659477+325358397+325810170+326300520
1778+327059971+327722380+327473073+326487207+327134284+329612027+332108435
1765+333910150+334770094+335403389+336698247+338229429+339825532+340950538
1751+340689608+340003719+340946711+342854906+344498626+345671484+346916636
1738+348637957+349634271+349385879+350993605+354572498+358048761+360727842
1724+362703894+364474686+365706501+365366468+365536203+369480793+374346421
1711+378245037+380937689+382624800+384566031+387342482+389520529+391063850
1697+394489632+400420041+406597175+411200792+414823710+417956466+420285887
1684+423724959+430644426+438084157+444486884+450108535+455968035+461876326
1670+468422419+477009227+485108127+491313155+497170636+503866483+510202104
1657+515003327+517950124+522196240+530477577+537835317+546179486+558164558
1643+570174190+580919299+590283051+598722265+610639998+626314952+640181922
1630+653165398+666652702+679818615+693290234+708288362+721873858+734023288
1616+747687957+760967559+771686606+780374471+787687740+794489762+800933156
1603+807040601+812672255+817219427+820389375+822241172+823307338+824345610
1589+824820558+824026944+822159181+819472258+816665306+814132692+810017921
1576+804759220+804465442+806234496+805736351+805771007+808566406+812124238
1562+815241309+814974392+810747764+815269861+824093532+832122557+839303588
1549+846931861+854783285+862075235+868765916+875495950+889208658+905999274
1535+920029052+934490012+949774921+961577509+969956757+977574135+984751880
1522+989236784+992835377+997067452+1000822232+1006118407+1011512258+1013746680
1508+1011141560+1007848955+1013401998+1020048538+1023586647+1023781810
1497+1022656287+1024396509+1027718980+1028176271+1026529593+1030001677
1485+1036445164+1040299122+1040635821+1039873576+1039080432+1036332649
1474+1029799564+1023732409+1024978899+1028232528+1026835580+1022714423
1462+1021807074+1020960489+1012930526+1004080933+1007722540+1014151940
1450+1016830222+1015573589+1014298641+1014155791+1013869244+1014777063
1439+1015903995+1013545037+1010883190+1012554193+1015301694+1016520384
1427+1016387583+1015382182+1015058538+1015382370+1012563773+1010359593
1416+1014513058+1018637126+1018612050+1016951659+1016316486+1015214349
1404+1012874456+1011520617+1009995375+1007277929+1005082295+1003687319
1393+1003744234+1003602510+999479005+992215325+988832934+990819786+993905770
1379+995599032+996292716+996537562+996720986+997130660+996614106+995346860
1366+994163953+992037349+990312061+991073179+992590531+992739580+991298396
1352+989694169+987991327+986221521+985698581+985744883+984533425+982203581
1339+980794893+981666365+984080924+986361179+987160334+986619549+986122719
1325+986644344+987659794+988492290+990166111+993883229+997970576+1000342119
1312+1001647309+1003452522+1006643226+1010551844+1013387253+1015116486
1300+1017206085+1020211957+1023699631+1027425296+1030938141+1033485313
1288+1035361999+1036890339+1037848029+1039143921+1041222062+1042591117
1277+1042559842+1042169421+1042168764+1042322697+1042315277+1042503772
1265+1042799804+1041997174+1039610322+1037237557+1036751058+1037822014
1254+1039213421+1040533637+1041581489+1042088745+1042268787+1042864796
1242+1043864280+1044122463+1043056296+1041652586+1041311567+1041504100
1231+1041267237+1041636620+1042871746+1043489168+1043161673+1043123354
1219+1044174963+1045106732+1044092127+1042127158+1041619527+1042334343
1207+1042766463+1042788252+1042464890+1041535281+1040514572+1039625724
1196+1038666438+1038282967+1038437745+1038240610+1037056294+1034782238
1184+1032750398+1032079630+1032115413+1032212150+1032681462+1032855494
1173+1032008909+1031658217+1032080006+1031727717+1030645584+1029568054
1161+1029144574+1029783034+1030584631+1030666246+1030031167+1028875778
1150+1028059624+1028369650+1029354388+1030135229+1030080663+1029631167
1138+1029870003+1030437272+1029832905+1028042249+1026395758+1024745417
1126+1022569788+1020714047+1019468401+1018480939+1017840789+1017178285
1115+1015555462+1013632945+1013581947+1015209747+1016056519+1015989273
1103+1016431067+1016912871+1017028391+1018118788+1020873427+1024132221
1092+1026808344+1028652627+1029930205+1032484233+1036391255+1038582944
1080+1039168715+1040845260+1043757212+1046074753+1046640426+1046941623
1069+1048908847+1052178817+1055299082+1057551912+1059531908+1061692980
1057+1063389060+1063230055+1061393473+1061327730+1063850577+1065279082
1045+1065063256+1065720312+1066423200+1065540927+1065146938+1066599956
1034+1068176852+1068541633+1067628366+1066906788+1067401271+1067329423
1022+1065986008+1065086454+1065431418+1065948065+1065430197+1065025970
1011+1066351728+1068451753+1069324540+1068587747+1068090729+1068408926
999+1068079177+1067551071+1067868423+1068318012+1067437805+1065040152
988+1063510872+1063971074+1064880678+1065375254+1065169666+1064329750
976+1063228552+1061093966+1057841370+1055690441+1056143600+1057122140
964+1056078232+1053918569+1052165387+1050775671+1050027513+1049993797
953+1049555102+1048179285+1047101567+1047510865+1048163507+1047442211
941+1046676960+1047100534+1047443807+1047025211+1046809761+1047666676
930+1048729368+1048662779+1048143596+1048155806+1048273674+1048083864
918+1048227090+1048924531+1048615350+1046322698+1043953878+1043378062
907+1044034085+1044783745+1044148196+1041785387+1039725654+1038805813
895+1038208865+1037153594+1036184727+1036423469+1036963502+1037407174
883+1038416614+1038751246+1036895880+1033490385+1030805904+1030555798
872+1032185946+1033920063+1035627413+1038413326+1041541198+1043142138
860+1043427182+1044055217+1045202341+1046444135+1048012673+1049829439
849+1051371867+1051838644+1051483818+1051497530+1052015399+1051863344
837+1049552190+1046440285+1045097340+1044800462+1044831456+1045469540
826+1045827277+1046846671+1049386987+1051470388+1051801076+1051103353
814+1051609012+1054635733+1057624323+1058323267+1057967409+1057758158
802+1057489268+1057386051+1058027235+1058741675+1058388447+1056601923
791+1055189760+1056986427+1059769711+1059258886+1056485276+1054445736
779+1053674850+1052749186+1051565622+1051438456+1051478183+1050125095
768+1048006850+1046426667+1045155851+1043494897+1042094098+1042427980
756+1044042913+1043792056+1041460334+1040489589+1042042161+1044658269
745+1046281468+1045217274+1042407975+1040457000+1039981113+1041235211
733+1043504101+1043005486+1040432487+1040107058+1040947631+1040265687
721+1039367354+1039750918+1039896586+1038835773+1038695834+1040730209
710+1042880293+1044053057+1044896917+1044449864+1043196705+1044197504
698+1047211734+1047831974+1044591117+1041870665+1042580316+1044463200
687+1044713400+1044140307+1045683299+1048975153+1051244138+1054344867
675+1060768631+1065261143+1062072694+1054125191+1052563603+1060507255
664+1067435269+1068078989+1062848463+1057447662+1056227563+1057294293
652+1058177411+1058122187+1057410470+1056280439+1054872597+1056449681
640+1060404414+1063074056+1063977461+1061389059+1057682929+1059013664
629+1062994788+1061117915+1055158204+1055250244+1055807840+1049652683
617+1045468976+1045579331+1051045687+1064215921+1073544218+1073741823
606+1071211744+1068350602+1062213196+1050129979
##END=
