##TITLE=Sample description
##JCAMP-DX=4.24
##DATA TYPE=INFRARED SPECTRUM
##DATE=24/8/2023
##SAMPLING PROCEDURE=Instrument type and / or accessory
##ORIGIN=Default
##XUNITS=1/CM
##YUNITS=ABSORBANCE
##RESOLUTION=4
##FIRSTX=4397.6552
##LASTX=599.8556
##DELTAX=-1.9287962
##MAXY=1.5612547
##MINY=0.59395069
##XFACTOR=1
##YFACTOR=1.4540318e-009
##NPOINTS=1970
##FIRSTY=0.84412074
##XYDATA=(X++(Y..Y))
4398+580538025+580357165+580370652+580802838+580175240+578457524+577739783
4384+578471912+578506920+577262916+576743989+577552365+578516062+578644861
4371+578091787+577268532+576215717+576124508+577179537+577245043+575638007
4357+574354363+574257046+573460805+571648970+570942871+572060044+573214972
4344+573063176+573536354+575512775+576689961+576758665+576968916+576827942
4330+575499944+573707457+573001687+573664907+574546249+574603311+574138249
4317+574360184+574982903+574700177+573911765+573559843+573638590+573987273
4303+574160385+573724018+573370990+573735824+573173979+570729914+569539897
4290+571397480+573060265+572197492+570937296+571477538+572690265+572706375
4276+572292268+572932860+574106070+575020781+575508429+574760477+572812956
4263+571109875+570247471+570037835+570512694+571340992+571897467+571550259
4249+570427183+569785812+569770153+569801471+570787304+572767209+573235714
4236+571114589+569353749+570040868+571074990+570881792+570300885+569477957
4222+568765668+569091027+569367318+568472694+567899042+568648347+569469020
4209+569543299+569510505+569825493+569423600+567426807+565822189+566529395
4195+568047845+568586243+568619160+568650643+567831076+566207685+565383322
4182+565293015+564697064+564480294+565959556+568204110+569162231+568223458
4168+566545751+565232264+565018118+565886917+566683978+566715502+565813048
4155+564807416+565183934+565511301+564386462+564050609+565350569+566881522
4141+567961925+567450828+565013117+562757291+562392210+563368901+564254630
4128+564345511+563524960+562224878+561368746+561417445+562524083+564102260
4114+564498741+563604855+562837226+562267305+561604003+561433514+561907553
4101+562657063+563025956+562733228+562540234+562595288+562330024+561906324
4087+561694023+561827495+562038361+561622736+560842523+560734261+561403467
4074+562212990+562688177+562758438+562333262+561044617+559642176+559495176
4060+560244440+560891181+561146443+561142753+561505907+562161585+562432506
4047+561883450+560505522+559516205+559582654+559739697+559342847+558677249
4033+558238955+558661016+560040747+560782920+560000533+559047003+558733163
4020+559056226+560011151+560947833+561136768+560529872+559585442+558756611
4006+558220222+557859937+557443780+557006593+557200406+558193946+558601044
3993+557470753+555945498+555580663+556487667+557861208+558569356+557811074
3979+556967732+557339371+557823618+557650752+557068164+556495004+556539030
3966+556692138+556524601+556743748+557302396+557386841+556598142+555486503
3952+555014267+554881451+554827546+555556436+555896060+554868456+554722276
3939+556110862+557004256+556393056+554133786+551817987+552289402+554118495
3925+554184944+553620475+554188470+554087136+552929544+552828374+553588952
3912+554043356+554489520+554776346+553616909+550837893+548396861+547537983
3898+548504754+551166941+553662165+553196652+551346981+551686195+551716243
3885+550815962+551438723+550828178+550056327+551839508+552539622+551323164
3871+549768968+547854241+547788571+548101099+547734379+549449020+552593773
3858+555058457+554131244+545919797+541174773+545321140+549944909+551886444
3844+550999937+548610720+545647442+543143036+543787359+546289469+548089621
3831+549289149+550089531+550237391+550869867+550508107+547273416+547018606
3817+548036044+547338021+549616311+553107288+553518814+550468795+549254387
3804+550442478+548245271+546025517+547148061+548563169+550552297+552770902
3790+553878319+553734148+552336216+551115741+551544648+551502671+550646703
3777+551712390+553599036+554169654+552873712+551551657+551884354+552234472
3763+552376594+551987368+549935029+548619452+549211878+548421047+543101100
3750+539984633+543952354+546776544+545336431+546168336+549180231+549703790
3736+545361436+541417327+543561448+548281016+551319393+551004774+548848314
3723+547664076+548112864+549466114+550632520+550676505+547642022+542718393
3709+543056582+547170361+549899407+549183634+547120186+547627634+549360722
3696+550304988+550633667+549783725+546677014+544154202+545047842+547453538
3682+549145716+549381915+548335618+543727755+539215323+540500484+540561318
3669+538692995+540478594+542715564+542523104+541453769+540727092+538847824
3655+537122320+537419229+535550538+528461593+524344945+526004698+528365178
3642+529117886+528376369+526776877+524216761+521330180+519007249+514133097
3628+506849684+505730133+507451743+507061124+503543543+499179340+497339057
3615+495829215+493521860+491511580+488300665+485297829+485025473+485012356
3601+483343216+481561962+480477542+478727524+476945162+476529251+474952673
3588+469932669+466393649+466558194+466790581+465834058+464818260+464247355
3574+463551996+462657249+461446449+457602279+451486542+449565297+451081739
3561+451738893+451023079+450309191+449628057+448429677+447633108+447608471
3547+447269995+446431613+445753143+445342478+444375584+442432368+440931503
3534+440890347+440986925+439986909+438659771+437783307+436673390+435323009
3520+434672742+434623264+434253428+433214838+432011785+431002915+430252913
3507+429763706+428524088+426621741+426099003+426818137+427376498+427277132
3493+426374678+424853768+422899976+421473759+421746647+422259096+421287037
3480+420244716+420365358+420857311+420814351+419959366+418871872+418120927
3466+417702228+417425405+417003385+416404933+415956391+415834315+415576799
3453+414925016+414544891+414684061+414842292+414572151+413499127+412004247
3439+411001566+410696786+411053914+411361974+410839768+410350111+410172858
3426+409659179+409114305+408735369+408485354+408703435+409587155+410726546
3412+411051290+410435130+409967403+409735303+409329434+409494389+410452019
3399+411000787+410456405+409607693+409437122+409843236+410483911+411321227
3385+411795512+411751773+412163626+413390127+414390553+414560796+414867790
3372+416146146+417778106+418795380+419331523+420337073+422116647+423863262
3358+424791418+425460460+426970056+428759673+429534639+429668357+429949567
3345+430223521+430693871+431919183+433511461+434554970+434873811+434841345
3331+434741036+434650073+434698814+435191464+435653205+435635988+435946385
3318+436716145+436918034+436609031+436860070+437832867+438876910+439367879
3304+438970373+438024631+437267496+437655943+439274539+440311284+439893200
3291+439652204+440620451+441917172+442638069+442831882+443152281+443985457
3277+445078896+446142409+446916515+447372640+447915916+448469973+448437466
3264+447915219+447667255+447980316+448602830+449185131+449604486+450158461
3250+450904241+451427676+451447599+451370656+451936272+452750633+452706853
3237+452140990+452238634+453039549+453930361+454731317+455576053+456144334
3223+455703909+454703360+454358447+454446950+454288350+454485934+455421059
3210+456243864+456516219+456913192+457681354+458049796+457711320+457181080
3196+457094175+457915627+459328235+460774538+461953856+462339064+462173823
3183+462204239+462091100+461579757+461544257+462380754+463185850+463394052
3169+463703956+464574189+465439135+465674105+465289471+465008179+465379081
3156+465896326+466078620+466289159+466674695+466807265+466745161+467243263
3142+468292963+468815086+468400404+467728821+467698446+468685180+469972883
3129+470594660+470452743+470084260+469965381+470355181+471018975+471276983
3115+471205533+471320599+471506624+471591561+471432427+470852258+470221545
3102+469887577+469848183+470396255+471258208+471399633+470960397+471085670
3088+472084170+473082587+473404175+473418030+473491858+473720392+474114086
3075+474238252+474069527+474123309+474174099+473788850+473468410+473513256
3061+473462671+473275499+473244262+473567899+474258995+474689582+474415710
3047+474107404+474491464+475135787+475295986+475234292+475429950+475640489
3034+475484348+475138492+475140132+475255690+475074831+475159850+475650327
3020+475764655+475310211+474808296+474454202+474470845+475269669+476210656
3007+476568358+476639808+476743232+477090932+477853314+479058621+480444543
2993+481327156+481723268+482253467+482844417+483273652+484007175+485099219
2980+485832373+486213236+486534127+486446894+486091775+486093250+486466612
2966+486670263+486544088+486511089+486382208+485576579+484555165+484107975
2953+484139294+484310561+484760374+485506891+486099522+486521542+487232970
2939+487819329+487372919+486399179+486217171+486760529+487117001+487003247
2926+486511253+486098088+485979291+485506973+484658917+484220459+484389636
2912+484868594+485327589+485443722+485430727+485759611+486301124+486739582
2899+486946226+486987055+487153280+487403007+487594607+487936650+488260697
2885+487970018+487342871+487409894+488147762+488561501+488430898+488155018
2872+487671386+487223582+487573906+488456232+488886368+488796594+488892845
2858+489559673+490331032+490314553+489258704+487815885+486950981+487061907
2845+487527297+487996253+488785034+489684946+490255482+490477744+490622695
2831+490931902+491361956+491739663+491960777+492315282+493022282+493558303
2818+493583390+493468078+493659964+494291456+495055929+495554277+495742351
2804+495965474+496483048+496972254+497254079+497578946+497869379+498050689
2791+498190105+498133576+497929310+497968294+498536862+499411810+500013172
2777+500086836+500084459+500469462+501044343+501449637+501504035+501469396
2764+501796067+502068094+501850792+501768355+502357379+503166492+503573755
2750+503753876+504218241+504863876+505252404+505434658+505729518+506099436
2737+506294233+506414260+506740315+507007629+507131836+507536475+508129516
2723+508776544+509405044+509651861+509579099+509522980+509855881+510627158
2710+511245246+511489357+511662510+511938924+512310317+512632725+512922215
2696+513313121+513644178+513827948+514042422+514293297+514590166+514852683
2683+514825669+514875557+515361853+515809944+516113576+516562036+516768762
2669+516521453+516416348+516869276+517650760+518356080+518782281+518881442
2656+518713577+518542679+518735467+519307848+519920771+520398745+520562880
2642+520427932+520519919+520916195+521256066+521600773+522094571+522513434
2629+522663426+522767015+523081756+523533332+523972855+524319940+524551302
2615+524857764+525391037+526019619+526631844+527134333+527490641+527896755
2602+528459380+528994334+529252178+529440744+530136267+531233682+531796675
2588+531566788+531510054+532039474+532539380+532781196+532938321+533074457
2575+533331563+533842701+534478046+534878299+534950282+535079819+535506102
2561+536011377+536370801+536587980+536702555+536818646+537217300+537867279
2548+538321109+538472536+538448391+538269786+538236213+538657495+539391182
2534+540067438+540596038+541132304+541594620+541992577+542450342+542746596
2521+542899703+543292003+543959569+544477839+544542116+544371217+544220200
2507+544300218+544785489+545241697+545409685+545749186+546250649+546436264
2494+546464139+546758261+547143798+547313302+547332938+547250337+547077799
2480+547062140+547339169+547712366+547985746+548020508+547815175+547771600
2467+548010792+548049654+547899210+547974924+548141600+548240105+548376488
2453+548370216+548063673+547723639+547507771+547115021+546555143+546301890
2440+546315664+546235359+546092213+545938736+545572999+545034561+544635907
2426+544302350+543909968+543741037+543669669+543303563+542827802+542478094
2413+542167820+541945271+541919446+541862548+541397650+540715819+540379392
2399+540234893+539880265+539489113+539000481+538352428+538094092+538108398
2386+537555489+536159484+534102144+531597287+528878161+526035729+522989687
2372+519665796+516092506+512358361+508937359+506535598+504880478+503172354
2359+501878503+502398618+504950903+508686688+512797351+515484667+515025098
2345+511931791+508727927+506892398+506178511+506436273+507533811+508536040
2332+508786219+508951009+509735322+510994576+512207467+513135131+513981998
2318+514990705+516232209+517533193+518582032+519369706+520263797+521341167
2305+522103507+522263871+522246695+522613497+523307503+523820936+524109934
2291+524463414+524732736+524796152+524987915+525417601+525757840+525800390
2278+525585056+525313766+525293598+525494954+525628672+525785059+526223270
2264+526764579+527224025+527642683+527761807+527622842+527819074+528460445
2251+529086813+529393603+529606273+530052519+530594729+530971287+531358832
2237+532019347+532669737+532994030+533256711+533762519+534349616+534795945
2224+535189310+535669580+536263646+536885956+537372170+537637310+537964104
2210+538715951+539581839+540155982+540609853+541204780+541975401+542733314
2197+543300202+543644171+543972236+544670751+545742463+546838607+547629028
2183+547953772+548234285+548993674+549883133+550474944+551064459+551901325
2170+552849731+553636504+554184535+554765483+555476214+556129104+556695540
2156+557196635+557570078+557992549+558546974+558976619+559170022+559234012
2143+559360638+559496078+559430120+559354325+559359613+559211589+558948498
2129+558603462+557934093+557021637+556194036+555459038+554651195+553636299
2116+552390121+551125293+550110027+549212411+547973202+546385597+544894038
2102+543704431+542605376+541355100+540011975+538670121+537402095+536330013
2089+535328029+534124116+532691914+531331777+530204479+529062669+527875685
2075+526876366+525872086+524634231+523373337+522130890+520798629+519651982
2062+518889313+518101762+516888338+515537137+514484815+513648564+512719301
2048+511573679+510267899+508952854+507806453+506869852+505938212+504912903
2035+504058698+503385762+502509093+501396880+500389772+499622225+498879028
2021+498064135+497225097+496226843+495235887+494532042+493835864+492927671
2008+492008739+491213276+490486640+489696916+488832832+488127676+487614079
1994+486856452+485577399+484424316+484053537+483917606+483302552+482344840
1981+481538883+481041355+480624582+480115125+479572833+479014308+478239998
1967+477266012+476585206+476321541+475961297+475196948+474336922+473762123
1954+473308826+472699797+472052195+471456244+470775889+469840969+469013983
1940+468952002+469123843+468804797+468189251+467572229+467005793+466565859
1927+466187046+465406013+464307573+463644804+463066438+462441874+462540338
1913+462727716+462136519+461311050+461136708+461461247+461628415+461509291
1900+461284733+460755312+459870896+459329259+459086050+458294686+457612527
1886+457833437+458082672+457894106+457667458+457605682+457536568+457353700
1873+456949840+455602903+453416641+452870413+454353446+455704401+456119615
1859+455973190+455661276+455426593+455283488+455037368+454422150+453416805
1846+452039533+450916498+451497979+452734236+453064391+452835160+452719314
1832+451930697+449885860+448610250+448952662+449421905+449964771+450547892
1819+450676363+450495298+450100334+449125815+447758545+447206661+447628066
1805+447946046+447416011+446032057+445004125+444938906+444511721+442689187
1792+440988278+441968413+443894945+444511803+443916753+442993640+442186740
1778+441915368+441586607+439803713+436738896+436061123+438067509+439743085
1765+440199579+439438673+438567538+438749791+439009767+439335495+439409937
1751+437495047+434684835+434301759+435339283+435858004+435541459+435057992
1738+435321861+434768173+431808339+431052188+433494859+435835377+437025558
1724+437082210+436686056+435514322+431716064+427678614+429197966+432751744
1711+434788096+434736199+432692264+430587946+430188800+428662438+425243773
1697+424751410+427259464+430448120+432271228+432129024+430974958+428183193
1684+424318691+425534902+428860105+430529572+429785268+428157613+427229211
1670+425903017+426045712+428378113+429259414+428222136+428378851+429514963
1657+429301678+425829845+419628105+419689266+421092773+420033317+421479170
1643+425668129+428323347+428343802+425960119+424533411+429095362+434723450
1630+438098992+440181296+442451347+444925091+448631484+453023685+455728627
1616+458114401+463283781+468833082+472821833+476021434+479686998+483433482
1603+486698958+489918072+493296359+496308296+498978763+501894244+505045228
1589+508370635+512036609+515785676+519301658+522526265+524807712+525424651
1576+527121625+532408326+536984748+539612624+543290282+548387351+552894536
1562+555614728+554606595+553162669+561001697+570441366+578153686+584239786
1549+589525217+593451372+594998107+594491643+594899602+604098111+615967047
1535+623979310+630578761+637973469+644366604+648629268+651705850+654585380
1522+658685385+665668855+673731211+681909864+689455713+695249370+698902965
1508+699504492+701298331+710830028+720230303+726490130+730004186+733907590
1495+740291788+745905898+749089471+752431357+759135872+766717139+772986148
1481+778429564+783639405+787645618+789125864+789300082+793310477+801355699
1468+808154497+812301479+817200349+823613489+827496806+827447943+830652586
1454+840291930+849941195+858139155+864791445+871203191+878150054+884969595
1441+891110625+895171933+897653301+903365957+911798641+919279148+926067534
1427+931939406+935988498+940501053+944464880+944917439+948147170+957064469
1414+964586788+968646784+971325983+972858125+972767121+972981677+974889394
1400+975820993+973503513+970711257+971278021+974740672+976275356+973154174
1387+969073272+969912556+974167103+978077885+981091175+982582406+981512907
1373+980529165+982100906+984374114+986088755+986913609+985309648+982553301
1360+982493780+984873650+987303040+988375162+988507650+988017296+987118491
1346+986231737+984900214+982866403+980211144+978370573+978989480+980874897
1333+982295293+982836397+982951012+983240092+984017805+985162239+986798502
1319+988895359+991160122+993596153+996056697+998852233+1001784766+1004753783
1306+1009065966+1014309257+1018617176+1021618660+1023799142+1025826803
1294+1028366299+1030465862+1031731715+1033611967+1035223225+1035888618
1283+1037998183+1042138442+1046030368+1047732384+1047435351+1046202702
1271+1044505687+1042939849+1042030386+1040715669+1037828719+1034956035
1260+1034061411+1035409496+1037999740+1039778576+1040291231+1040591379
1248+1041125431+1042159103+1043307389+1043471770+1042636175+1041561265
1236+1040869063+1041089276+1041560938+1041706707+1041923887+1041670634
1225+1040989910+1040825775+1040635897+1039934184+1039925166+1041221272
1213+1043135958+1045266593+1047091996+1048283489+1049004223+1048996516
1202+1048399991+1047819534+1047487002+1047139630+1046761596+1047235635
1190+1048917236+1050337796+1049789970+1048173793+1047972109+1049417347
1178+1050263927+1048858863+1046794718+1046648128+1047145123+1046167120
1167+1045034164+1045129513+1045882631+1045418922+1042887624+1040226544
1155+1038741954+1038322435+1038036060+1036788653+1036076610+1036278130
1144+1035161244+1033261972+1032111963+1031332693+1030597038+1029105397
1132+1026763650+1024696061+1022183375+1018934788+1016682076+1015333991
1121+1012723414+1007981710+1002262331+997068232+993171878+990220898+988107726
1107+986566074+983533026+978861583+974887016+972277505+970421685+969231913
1094+969267249+969723825+967948433+964593429+963129253+963201400+962596430
1080+961072322+958170697+954452662+951583913+948933983+945753280+942575856
1067+939649225+937658703+936732269+935351636+932441320+928665895+925274326
1053+922364256+920128188+919386385+918233097+914657388+910767102+908681149
1040+908190057+908553908+909146498+909553883+909668580+908947929+906063357
1026+902538233+901007239+899638904+897124495+895843065+896492225+896934371
1013+895878564+894655507+894380692+894687481+894843089+894110960+893342840
999+893555592+893892961+893941579+894022744+893778756+893279055+893249622
986+893226912+892284245+891207777+890386202+888791260+886572982+884615254
972+883188627+882127327+880864015+879011884+876989962+875656388+875018624
959+874281002+873401382+872916684+872233091+870730627+870132954+871902526
945+874891465+877868435+880503608+882347048+883846642+886423769+889801155
932+892745249+895509958+898423061+901546047+904989677+907886465+909785082
918+911805446+914401102+916154850+916486071+916604130+917068085+917609024
905+918325084+918921036+918865532+918282124+917033733+914775529+911973598
891+910051206+909286283+907995915+906675706+906989873+907939837+908582685
878+909044836+909099356+909530599+911254341+912479530+911864066+912271615
864+915471585+919201098+922032625+924408561+926890093+930662156+936036459
851+941080033+943613052+943643633+943757839+946758502+952453204+956947066
837+958398125+960200490+963682244+966659869+968896265+971614899+975160765
824+978674985+980254350+979405884+979030309+981342706+985677681+990504157
810+993323633+994319837+996721352+1000207122+1001709422+1000006504+997321894
797+998019016+1002930593+1008612587+1012909767+1014645479+1014098882+1015754002
783+1020367153+1023101037+1023851612+1026560244+1031789515+1036521709
772+1038016957+1037979326+1038070412+1036093253+1033530556+1033516044
760+1034955215+1037015178+1039117938+1039292813+1037367387+1035803681
748+1035102132+1033106773+1032001201+1034809855+1037503565+1034804772
737+1027976295+1022315289+1020997375+1022691274+1023032087+1021569878
725+1022324635+1024158565+1023859237+1022612076+1020915635+1019646584
714+1020730922+1021597999+1020519646+1022171651+1028035406+1030877346
702+1026717000+1020986471+1018201839+1017477662+1016267149+1015218966
691+1018253407+1024169224+1025729241+1020909240+1014837078+1013222951
679+1018034425+1025941419+1033549248+1038432951+1035382768+1022442612
667+1012198462+1017717551+1027091509+1030979090+1032857538+1034036651
656+1026222546+1010683045+1002271349+1008094194+1020589908+1029847118
644+1030625979+1028470830+1028981107+1028159450+1029769724+1027949813
633+1008449682+988564220+990935318+1015078279+1031475183+1017388380+998183888
619+1003305922+1037386982+1061971352+1044596691+1035432451+1057780179
608+1073741823+1070517832+1068138371+1061103537+1037732632
##END=
