##TITLE=Sample description
##JCAMP-DX=4.24
##DATA TYPE=INFRARED SPECTRUM
##DATE=24/8/2023
##SAMPLING PROCEDURE=Instrument type and / or accessory
##ORIGIN=Default
##XUNITS=1/CM
##YUNITS=ABSORBANCE
##RESOLUTION=4
##FIRSTX=4397.6552
##LASTX=599.8556
##DELTAX=-1.9287962
##MAXY=1.4066554
##MINY=0.54559618
##XFACTOR=1
##YFACTOR=1.31005e-009
##NPOINTS=1970
##FIRSTY=0.67903405
##XYDATA=(X++(Y..Y))
4398+518326839+519375704+520029829+518895655+517150352+515938104+515664843
4384+516211410+516686136+516473205+515942153+515018862+513773809+513780043
4371+515082787+515603102+515104535+515399134+516332571+515646325+513381389
4357+512147074+512913488+514252676+515712706+517495454+518155175+517028918
4344+515570343+514737593+513626487+511913442+511047934+511130604+511298992
4330+512019316+513110221+513027915+511407004+509597503+509107672+510728128
4317+513139658+513838599+512963445+512316736+512035013+511498546+511026095
4303+510819215+510267097+509709519+510029143+510675123+511293850+512196849
4290+512464468+511743598+511201853+511151032+511150987+511206176+511211271
4276+510994201+510627805+509855750+509083876+509215320+509518428+509023136
4263+507901110+506870171+506879044+507428386+507680900+508386665+509160631
4249+508702194+508056122+508312139+508297580+507203171+505724532+504704876
4236+504226920+504047749+504056621+503868942+503726124+504256175+505252536
4222+506536444+507585491+507299945+505852609+504531848+504162768+504189430
4209+503416555+502469014+502627620+503034782+502801695+502540946+502315686
4195+501578891+500619475+500265774+500813024+501864073+502774306+502729581
4182+501477977+500313865+500229739+500782949+501583623+501813752+500876311
4168+500114948+500438575+500804834+500420012+499651551+498836773+498348534
4155+498828720+499688268+499386707+498320188+498228010+498558325+497777670
4141+496668475+496722617+497699232+498338024+498294073+498202940+497939279
4128+497105256+496800555+497503090+497747414+497060531+496152892+495551181
4114+495739042+496467647+496853697+496516147+495961436+495467965+494905746
4101+494633577+494782583+495228782+495800464+496243023+496254853+495224823
4087+493870075+493128139+492232739+491257671+491039099+491419007+491826988
4074+491850192+491887091+492142880+491853604+490885134+489884769+489425467
4060+489727483+490218361+490138102+489852830+489946419+489993191+489833129
4047+489652047+489241246+489131459+489936410+490737720+490381926+489210626
4033+488546264+488924762+489547129+489825713+489681621+488825303+487653548
4020+487138874+487622018+488469691+488739539+488152979+487097335+486349803
4006+486486297+486887817+486414728+485409132+485283057+485844366+486275823
3993+487102613+487970532+487603909+486214810+484738901+484078042+484585436
3979+485460772+485993326+485870481+485195837+484557500+484111529+484130138
3966+485151158+486099427+485205665+483739628+483592351+483564734+482958974
3952+483010341+483682210+484175681+485177001+486336153+485687307+483812607
3939+482811742+483200113+484317043+484256941+482302984+481363996+482340110
3925+482234828+480562867+480080543+480749409+480846502+480312811+480194652
3912+480528653+481300663+482764925+483470963+481766380+479094238+476963749
3898+476567916+478748134+480955561+480055428+478448803+479745178+480430286
3885+478520190+477266947+475647264+474343110+475412495+476268949+476655181
3871+476441523+474582566+474331553+474329233+472664279+472679339+475167442
3858+478465728+479689670+473175995+467183727+470125264+474321225+476084136
3844+475631749+474610729+473314992+470856917+469488519+470076308+470773064
3831+471560043+472474234+473207798+474591301+474321362+470268901+469806232
3817+471859465+471672241+473049374+475847364+476643943+473914610+471647536
3804+471945365+470651903+470196423+471855461+472247336+472823386+474067164
3790+474682343+475027127+474954193+474594623+475119669+474992457+473467637
3777+473414405+474769926+475556860+474443023+472570280+472445889+473541344
3763+475057064+475560818+473718741+472647945+474419182+476544348+475446163
3750+473364721+476527605+481178546+482476832+485080500+491215859+496888185
3736+496935593+491504407+489859518+494103161+499217864+501078550+499497040
3723+496878767+494070266+492106072+492313953+494716747+497488895+499883500
3709+505106032+513239663+522237437+531187575+540461522+549907588+558198597
3696+565130716+570360938+571701491+567651897+564420538+565740571+567120890
3682+566584150+564650394+562014923+556205420+549745797+548494056+545874282
3669+542603340+544379900+547176344+548712583+550661672+554002772+557569587
3655+562195186+569507350+576475050+577327864+575452209+577158657+579136091
3642+578902641+577158566+575634110+574340329+573139273+572681472+569736888
3628+563184130+561238954+561419763+559290867+554512213+549155188+546738425
3615+546075292+545525949+545811540+545552930+544363385+544883518+546262061
3601+546197545+545804807+546672590+546585143+544239312+542819865+542518577
3588+539396596+535155319+533915362+533811626+533272430+532809215+532545099
3574+532471119+533183936+534901076+536000853+533554199+530232117+529129519
3561+528777182+528515432+529081973+530142987+530462974+530293403+531047896
3547+531941932+531098263+529412562+528960585+530181250+532115052+533131431
3534+532913769+532239352+531647696+532727500+535550059+536515208+534716127
3520+533444958+533691557+534238216+535020326+536049445+536589051+536843021
3507+537781099+538971144+538801573+537394639+536738376+537287946+537753027
3493+537537457+537006177+536863359+537710395+538796023+539425942+539765039
3480+539713581+539491459+539138941+538370616+538064324+539058455+540420119
3466+540958997+540983794+541235307+541429537+541166104+540865135+540757259
3453+540716948+540648610+540354465+540033750+539688284+539212693+539264379
3439+539795295+540172701+540568988+541141672+541591101+541772456+541775140
3426+541837109+542188899+542627136+542618355+542409246+542727413+543061869
3412+542925057+543199409+544047765+544350372+543653070+542989664+542898759
3399+542541827+541969917+541680641+541345139+541243087+541672542+541687557
3385+540599108+539226434+539348141+541406106+542897121+542070832+540527358
3372+539912225+540351099+541376942+542312290+542581456+542252005+542119242
3358+542502881+542459385+541462888+541036753+542067192+542588053+541056044
3345+538871094+538065689+538831602+539870139+539907220+538832921+537782919
3331+537334991+537048490+537197815+537914499+538198679+537548741+536457289
3318+535663941+534816268+533573717+532944253+532597785+531814719+531302913
3304+531135753+531121148+531592007+532218878+532024101+530827322+529364380
3291+528546144+528867086+529551149+529688325+529275840+528212598+526818767
3277+526228294+526414608+526587637+526963814+527576536+527539728+526421296
3264+525113775+524274246+523410376+522399137+521631450+521429211+521554558
3250+521019274+519516976+518141435+517941608+518580582+518972547+518518795
3237+517603740+517034241+517234978+517430665+516155356+514078783+513228880
3223+513320194+513000025+512922406+513742461+514251902+513686817+512857480
3210+512465196+512219735+512248489+512533944+512297673+511230927+509611198
3196+508950658+510451319+512661611+513032966+511825813+511379523+511485670
3183+510768485+509562879+509625666+511657743+513183519+511944472+509892603
3169+510627168+512776539+512169505+509398449+508909528+511833002+513076098
3156+509663202+506652373+509303040+514115226+513226150+507401633+506271600
3142+513446542+518237208+513140750+507030688+508745053+514334936+513667708
3129+506955480+504703466+511810662+518478621+513900112+505380795+505686177
3115+514716437+518471432+509898973+501672845+505170002+514609608+514232293
3102+503685994+498548042+505546180+514130741+510048434+499476474+498101525
3088+508473976+516372200+509175282+498046336+497012986+504303630+507588812
3075+500845373+493783401+495491078+503869033+506615292+498948334+492262540
3061+494211674+501248394+502806518+496271778+490621609+490453676+493404858
3047+494230146+491780944+489850282+489847234+490433475+489840272+487829261
3034+486087552+486337837+488439981+489778987+489199706+488967120+495122407
3020+522567389+576246377+617369647+605361908+567308205+537107956+519495637
3007+509252583+502164359+497411412+495519741+494499631+492062167+489742907
2993+489577157+492561325+496200801+494767068+489732397+487869936+492201664
2980+499009756+499545631+493372964+488823711+489918028+495458046+498866437
2966+495211811+490038280+490188014+498065718+506125779+502588765+493223458
2953+489840045+494805559+503052662+503588583+495488439+489406540+491096472
2939+498753193+502594452+496847327+490084915+489369641+495004158+501744003
2926+499880588+491465142+486872802+489652411+496284972+497548724+490685580
2912+484625156+484641217+488806239+491832766+489741496+485781897+484692629
2899+487584982+491818070+491751370+487131686+483710191+484290973+487551450
2885+489522332+487469690+484283466+483464912+485120720+487253666+487318910
2872+485231553+483498171+484002516+486256941+487795638+487270591+486307854
2858+486423919+487253575+487888772+487216813+485234465+483695586+483585481
2845+484068806+483869798+482771704+481852463+481958200+482543395+482761649
2831+482636894+482306169+481903056+481899098+482225091+482301482+481902237
2818+481328781+481004244+480897824+480799958+480808739+480821296+480623744
2804+480389065+480292746+480393387+480601632+480789311+481037548+481169856
2791+480955743+480585252+480258213+480069897+480185462+480564050+480863154
2777+480943049+481045374+481286013+481350347+481110163+480991686+481184552
2764+481518644+481967755+482340838+482366999+482349847+482525878+482497078
2750+482310582+482361995+482581386+482975171+483460498+483718745+483868979
2737+484047377+484094922+484116443+484324096+484577883+484627931+484493621
2723+484465822+484742768+485118400+485263902+485243292+485310538+485370959
2710+485441344+485717335+485826439+485426694+485021307+485405128+486476469
2696+487199978+487173271+486935453+486825939+486746454+486720020+486899919
2683+487100520+487157438+487234147+487345617+487417959+487560049+487841364
2669+488099474+488221499+488380196+488623474+488740176+488687717+488631391
2656+488758558+489044558+489228597+489307809+489551815+489960114+490190561
2642+490185238+490267954+490535163+490901832+491195248+491342889+491611009
2629+492106709+492697592+493130869+493416278+493923035+494483115+494818481
2615+495126184+495407862+495532253+495687857+496061987+496631485+497390573
2602+498111034+498556551+498956114+499436027+499795142+499894920+499899515
2588+500136286+500666611+501283245+501780629+502175597+502540764+502800057
2575+503071362+503599548+504269097+504730219+504962714+505285704+505707334
2561+505923950+506027503+506433937+507128873+507654921+507908572+508095569
2548+508215365+508384800+508706971+509040426+509335253+509608241+509906935
2534+510211089+510578303+511068772+511403228+511612791+511911486+512090475
2521+511988059+511705334+511605466+512024275+512618843+512846060+512791189
2507+512809934+512951706+512986603+512886280+512998524+513383073+513780088
2494+514065042+514109812+513895881+513639727+513524799+513694688+514183291
2480+514643140+514702424+514392992+513985603+513845150+514078191+514348222
2467+514517975+514732816+514725173+514150123+513412328+513126419+513280111
2453+513454186+513320058+512844877+512295443+511962261+511848198+511805020
2440+511889465+512191253+512416695+512199078+511591953+510957484+510587130
2426+510349721+509984964+509621890+509358457+508968084+508434665+507965126
2413+507637950+507417558+507132376+506689863+506252218+505922676+505598366
2399+505178147+504804017+504936097+506551094+511413328+521536541+537882514
2386+560081076+587113299+616907160+646702022+675114472+702765378+731003889
2372+759992026+788335183+814321726+836732582+853978051+864532311+868976282
2359+866498189+853466744+830764337+803455077+776831198+761328257+765505382
2345+782684788+790675327+783365711+772893437+764896255+761285261+763140032
2332+766729460+766033796+761550651+758798432+759039435+756946481+747654699
2318+732231016+717063441+710562505+712888590+713172634+703222223+684493747
2305+663430861+646882694+635862671+626112724+615387209+603846870+591128315
2291+577661819+564905092+553596702+543887931+536032838+530137481+525950574
2278+522795971+519850931+516888238+514228198+512074914+510456414+509270418
2264+508167774+506964762+505920583+505153168+504461053+503793324+503173869
2251+502654236+502298670+501966489+501652962+501489306+501497040+501686312
2237+501881271+501904065+501959163+502307678+502793187+503108170+503395035
2224+503988829+504787137+505497406+506187929+506987192+507703331+508223100
2210+508817258+509819624+511039335+511902750+512330295+512729540+513349450
2197+514215186+515193438+516082833+516993430+518178652+519538041+520728223
2183+521541136+522245627+523377708+524984197+526583633+527799476+528712530
2170+529634319+530694650+531787193+532874641+534069009+535254868+536214102
2156+536930286+537439272+538018917+538847162+539438409+539468983+539311697
2143+539317748+539490367+539642558+539365066+538529495+537630682+536894434
2129+536018006+534850801+533436632+531807030+530101174+528517070+527025055
2116+525472117+523752384+521754476+519581628+517493771+515563246+513774446
2102+512121914+510442719+508532395+506483393+504697005+503416510+502265501
2089+500679987+498706466+496861887+495563601+494781445+494084189+493280057
2075+492568241+492026496+491598679+491367094+491533844+491979452+492242976
2062+492373737+492799962+493614604+494558642+495342845+496180145+497409000
2048+498845554+500323010+502038694+503879497+505278106+506200714+507147118
2035+508268325+509389759+510377475+511155536+511592636+511678991+511555737
2021+511438579+511367375+510750422+509318873+507803290+506564379+505152531
2008+503304767+501321327+499391166+497300169+494986095+492762154+491047289
1994+489816704+488293113+486110574+483855512+481805099+479975124+478438111
1981+477063253+475713737+474407580+473229683+472260166+471596123+471173174
1967+470654906+469880303+469141279+468693897+468512132+468443112+468355483
1954+468381781+468764419+469356894+469820018+470226178+470738122+471259301
1940+472031994+473212985+474522417+475725521+476611958+477305894+478267812
1927+479617510+480976990+482004062+482787674+483273820+483539710+484118854
1913+484745635+484917344+484874075+484914205+484937136+484921530+484892548
1900+484786947+484478015+483675886+482654729+482008657+481389020+480657094
1886+480377463+480376826+480464364+480850961+481099107+480783624+480647039
1873+481313766+481855329+481316360+481116988+482427284+484115669+485143924
1859+485329283+485212717+485353078+485787357+486497899+487324279+487570332
1846+486580159+484812881+483929537+483753141+483155343+482218084+481259396
1832+479380329+475960973+473381828+472670467+471518640+469679565+468183910
1819+466846815+464930849+462457077+459815418+456840532+454207245+452338506
1805+450952227+449961918+447973383+444660173+442339320+440946672+438755990
1792+436295640+435463618+435580685+435206236+433913638+432381766+431190265
1778+430187898+428886155+426698566+424173382+424244313+426065416+426703935
1765+426483861+426024013+425552244+425600973+425513389+425551835+426185713
1751+425916001+424105772+423354509+424164919+424544691+423629090+422498191
1738+422430718+422308101+420846023+420579223+421701021+422191535+422276343
1724+422301185+422138393+421535044+419636686+417652519+418588913+420523988
1711+421762580+421943798+420872503+419827414+419870955+418816403+416469753
1697+416649151+419146946+422171425+424470211+425786013+426150588+424817543
1684+423688282+427097766+431032341+433014643+433395006+433543057+434286631
1670+435548335+438474402+442163971+444614448+446375266+449310159+452738160
1657+454978754+454789573+453366260+456272035+459505987+461425228+465214847
1643+470400299+474429556+476623560+476847592+477499351+482478651+488093468
1630+492041602+495150025+498381156+501914530+506687861+511587221+514688592
1616+517833095+523609475+529850981+535186621+540056727+545135850+550344733
1603+555573089+560990399+566832523+573007739+579398341+586292561+593886404
1589+602157166+610683581+618903840+626328384+632306775+636181293+637762394
1576+639457331+643932650+648259555+651710987+656841659+663276168+669282403
1562+674175030+677029438+681970156+693987131+705728071+715970033+725505684
1549+734648734+742654652+749407236+754153542+758318701+769978654+782881794
1535+791625780+799733614+809303844+817460087+823419687+828366411+832765157
1522+837402950+843595773+851004575+859747469+869075923+877108867+882196634
1508+881261651+878805123+887565216+897620181+903243915+904580919+906028393
1495+910584471+914607312+915734298+916355982+920441247+925430011+928308942
1481+928869932+929226182+930228593+929549672+925992821+924431785+927770337
1468+930237966+929127269+928717423+931040460+931525286+927024170+924805597
1454+931450670+938658462+942539805+943354674+944745092+948366096+952171639
1441+955207538+957301447+958184563+960248989+964327247+968922453+974993978
1427+981094986+984179841+985863267+987905581+987988387+988722088+994281488
1414+999394370+1000868232+1001106642+1001424764+1000279670+999191085+1000910546
1400+1002298325+1000725915+998351465+997518488+999252963+1000617720+998460297
1387+994485410+993559071+996616354+1001114559+1003985846+1003727599+1002084849
1373+1002326807+1004640926+1006574227+1007563262+1007351606+1004595519
1362+1002215701+1003879199+1006510348+1007620044+1007988759+1007214020
1350+1004908363+1003383999+1003068788+1002439915+1000470671+997033935+995605025
1337+997348963+998501518+998112874+997899033+998650205+999322939+999494102
1323+1000104594+1001038031+1001741521+1003308836+1006701348+1010244186
1312+1011937530+1014044360+1020679697+1030446205+1037766650+1040667056
1300+1041016390+1040821295+1041352893+1042906559+1045135505+1047849825
1288+1050549676+1052907473+1055216132+1056780535+1057240338+1058407543
1277+1061267365+1063064991+1061360363+1058906201+1058087328+1057194476
1265+1056059938+1056095153+1056693088+1056732762+1056548404+1057016488
1254+1057595495+1057624523+1058454133+1060518013+1061855381+1061906248
1242+1062237109+1063839094+1065786044+1066366780+1066000066+1066287705
1231+1066531392+1065253171+1063394669+1062480160+1062245936+1062427200
1219+1063149708+1063876220+1065159536+1067918080+1070628668+1071360367
1207+1070492629+1069673847+1069862300+1070695550+1072161678+1073741823
1196+1073437805+1072223737+1072586720+1073428615+1073265368+1072834320
1184+1072732859+1072820307+1072782816+1072398540+1071871582+1071530530
1173+1071427340+1071371742+1071022226+1069871400+1068115359+1067134786
1161+1067237794+1066747325+1065004115+1063598227+1062940326+1061450995
1150+1059424423+1058031184+1056247025+1053254167+1049949193+1047101929
1138+1044388337+1041144330+1037656727+1034632931+1031589752+1027816512
1126+1023509126+1018976070+1014648301+1010186677+1004899810+999776645+994879423
1113+988587050+981550057+976028421+972239166+968917539+965995931+963784001
1099+961296170+958474294+956343532+954043062+950610239+947166405+944532799
1086+942425514+940396849+938061073+936304213+936110119+935944506+934933723
1072+934146153+932950465+931405899+931077859+931314176+931202705+930776480
1059+929717833+928523602+927321454+925744129+924970481+925031358+924224769
1045+922567823+921470230+921726201+922396660+922335601+921888265+921581700
1032+922285918+923663415+923676609+922798680+922962291+924417044+925768516
1018+925483062+924947368+926089277+927502445+927581884+926905329+926715875
1005+927784077+929439567+930457630+931002514+931954605+933186327+933265129
991+931509453+929276411+927643033+926547806+925913928+925350208+924254798
978+922685026+921426461+920554173+918885944+916128128+912997229+909909280
964+907662225+906611859+905881980+905338097+905429002+905797991+906464263
951+907554213+908288733+908759364+910035856+911988175+913834301+916143870
937+919287418+921762236+923330916+925730389+928881580+931058841+932376190
924+934672928+937727027+939473149+940132233+941196522+942360542+942785767
910+942581026+942123134+941498901+940825622+940209943+939508728+939185328
897+940060164+941263677+940640900+938066715+935706188+934093284+932296295
883+931466048+932775844+935002789+936982771+938757465+940478654+942044058
870+943889002+946811338+950964941+956780040+964201399+970916812+975254955
856+978055720+979691100+979892292+979639961+979404099+978696787+977944705
843+978154087+979935970+982648561+984696426+984868317+983246314+982333624
829+984506426+987757713+988615896+989268792+993353784+997397918+998367936
816+999325122+1001007092+1001547517+1001408749+1003247414+1008438917+1013800127
802+1016550936+1018078213+1019389192+1020724194+1022685157+1023935897
791+1024296059+1026452937+1030536837+1034756230+1038389427+1040432924
779+1041569919+1043624881+1045879853+1047985682+1050150203+1049873121
768+1046975899+1046001332+1049354170+1053670929+1054759878+1052643584
756+1049404582+1048150384+1050851509+1054885089+1057353719+1057589944
745+1056128549+1054396713+1053499948+1053864114+1054210990+1053285106
733+1050953061+1047528063+1044904194+1043871116+1043465365+1044232552
721+1046791541+1048171496+1044199157+1036791810+1031667917+1029886034
710+1030358121+1034522188+1039761555+1039961747+1036376141+1035166713
698+1037918159+1040207618+1037738442+1033317766+1033244150+1037518595
687+1039735531+1037844361+1035534883+1034156021+1032918020+1032186139
675+1033285007+1036752864+1039068530+1037199836+1036477783+1038533565
664+1038389154+1037938815+1038101061+1036280868+1032881258+1033058427
652+1040121718+1047750548+1046144833+1036467228+1028913651+1026532104
640+1025667278+1025440061+1024851863+1024972706+1028876251+1033726247
629+1028835485+1010910277+994723182+988680048+986660119+988495053+996063735
615+999890299+992465754+985958904+994791429+1015079440+1034763874+1048594354
602+1050520193+1038566778
##END=
