##TITLE=Sample description
##JCAMP-DX=4.24
##DATA TYPE=INFRARED SPECTRUM
##DATE=24/8/2023
##SAMPLING PROCEDURE=Instrument type and / or accessory
##ORIGIN=Default
##XUNITS=1/CM
##YUNITS=ABSORBANCE
##RESOLUTION=4
##FIRSTX=4397.6552
##LASTX=599.8556
##DELTAX=-1.9287962
##MAXY=1.4562899
##MINY=0.40302259
##XFACTOR=1
##YFACTOR=1.3562756e-009
##NPOINTS=1970
##FIRSTY=0.57954735
##XYDATA=(X++(Y..Y))
4398+427307934+427993995+428983908+429203205+428766193+428158051+427336236
4384+427036032+428162401+429674496+429898627+428795155+427308242+426489548
4371+426935305+427910100+428253856+428076089+428433688+429080988+429126473
4357+429144623+429208391+428773972+428466956+428379457+428105885+427790739
4344+427189584+426606843+426876372+427382820+427194243+426753715+426619192
4330+426427055+425938185+425436966+425142343+425316023+425860794+426164338
4317+426009995+425836886+425924034+425855608+425495548+425250805+425097385
4303+424896854+425100110+425897314+426664722+427086923+426852113+425655296
4290+424860070+425350961+425598692+424995515+424765364+425379307+426303035
4276+426366144+425422376+425037705+425267725+425162867+424983913+425077038
4263+425060514+424387153+423611000+423845503+425082575+426329843+426642792
4249+425921441+424806542+423874332+423169461+423064691+423899162+424427365
4236+423739634+422888814+422560748+422507088+423193061+424541057+425481353
4222+426053415+426280227+425590957+424497329+423537388+422711838+422624559
4209+423459294+423909402+423252786+422801183+423466062+424284272+424394229
4195+423870025+423254324+423420532+424109714+424100836+423236965+422543784
4182+422771826+423333429+423446725+423249797+423040081+422805402+422664068
4168+422953504+423315762+423206773+422926345+422630756+422229033+422210400
4155+422531610+422301458+421766928+421985038+423008307+423815926+423190952
4141+421620495+421221849+422499881+423369861+422573712+421671122+421969085
4128+422719397+422991914+422781407+422733900+423027160+422756137+421813731
4114+421314095+421450155+421644622+421616276+421462944+421396716+421192009
4101+420802372+420529811+420680111+421262413+421305305+420460770+419896223
4087+420170234+420816348+421347275+421234594+420438840+419701844+419415572
4074+419429107+419740650+420343035+420682792+420472768+420382368+420500674
4060+420227190+419682200+419392543+419506103+419624321+419474417+419398784
4047+419452443+419296562+419293794+419812020+420252987+420156699+419434776
4033+418466530+418473473+419421812+419822436+419490765+419280565+419205987
4020+418913562+418534209+418487273+418831556+419048172+418979790+419164281
4006+419939907+420622101+420187638+419132639+418745156+419087988+419502587
3993+419680442+419359011+418418627+417895523+418565103+419373822+419567102
3979+419736607+419809559+419131848+418138463+417589386+417424671+417436449
3966+417660976+417973749+418165315+418403070+418507533+417994756+417379142
3952+417262594+417159801+416964411+417368067+417548515+416843336+416937867
3939+418014488+418417221+417456533+415569260+414783966+416226185+417428231
3925+416751399+416342865+417256177+417234731+415474554+414646763+416153759
3912+417993921+418821888+419003522+417708087+414371828+412018627+412095886
3898+413494377+415878078+417541439+416279097+415227702+417413596+418294784
3885+416322517+415218122+413969052+414071317+416590683+417339326+416064634
3871+414255368+412557684+413683130+415068789+414575524+414943099+416853005
3858+419178959+419193374+411981535+407653562+412440916+417595450+419756383
3844+418964936+416738171+414138249+411751383+411811327+413335815+414213135
3831+415038201+415994802+416539089+417474903+416620436+411890608+410911331
3817+412962571+413457022+415409424+418596702+420026571+418181619+416556580
3804+416588486+414269563+412876390+414767442+416842853+418887017+420544490
3790+420881653+420508629+420011145+419482635+419368416+418774556+418047888
3777+419363670+421521306+422179637+420411813+418472594+418540405+419253845
3763+420208073+420242791+418506566+418571827+421012836+421599972+417086145
3750+413269015+415288217+416167471+414393011+416626984+420420910+420837486
3736+416936549+413550058+414909831+418906091+422176736+422867763+422335562
3723+422590676+423396142+424751740+426701286+428147767+426941414+425029750
3709+429051939+437223323+445675706+454165796+464849646+477985273+491341207
3696+503388347+513127463+519779281+522092447+521879567+522491005+522331125
3682+519594703+514831607+508727504+497393672+485603053+481525975+475832647
3669+468687388+466839888+465788097+462651315+458986550+455672089+450848698
3655+446752458+446131967+443110546+432787854+426734158+428908055+431431992
3642+431635117+430531644+429583921+428750812+427650591+426249903+421164981
3628+413445639+412962834+415726064+416059536+412244692+406435826+403818193
3615+402766095+400868012+399181095+396441069+393008390+391840710+391078137
3601+388670792+386249384+384102163+380704246+377844508+377661907+377000280
3588+372079194+367792201+367829579+368010290+366081597+363554034+361765269
3574+360639252+360115378+359187629+355109012+349208649+347709848+348770582
3561+348568842+347546452+346880057+345970348+344287628+342853364+342099141
3547+340856685+339150783+338311412+338323255+338395966+337923313+336869545
3534+335910000+334956761+333446468+331878011+330574051+328861315+327374710
3520+327429380+328207929+328252250+327521406+326282136+324342105+322410534
3507+321723396+321612648+321083984+320592742+320023646+319118090+318402518
3493+317771128+316849531+316124422+315923957+315578927+314511271+313143961
3480+312457504+312515954+312506461+311890694+310650919+309349112+308559972
3466+308105887+307379570+306249861+305372849+305071370+304906568+304590719
3453+304077348+303299240+302299329+301376348+300873854+300733113+300735574
3439+300609951+300076211+299410058+299117611+299209065+299328931+299027387
3426+298267033+297618876+297316145+297205002+297417685+297742192+297770604
3412+297745093+297731777+297477498+297319859+297492791+297804619+298177402
3399+298439592+298550141+298420299+297771857+297153892+297272396+297702728
3385+298117678+299128290+300446665+300906353+300649745+300736102+301573649
3372+302766093+303939750+304955899+305602495+306205540+307262956+308647823
3358+310171696+311696579+312891506+313699543+314415664+315206232+316274612
3345+317657150+318767940+319376149+319880795+320492542+321199939+321774396
3331+322108396+322741918+323897820+324674149+324501216+324048933+323904654
3318+323980990+324219712+324730841+325249990+325478077+325754769+326098151
3304+326002522+325611083+325506642+326029813+327014474+327781420+328042006
3291+328315292+328876367+329487388+330122295+330854654+331687983+332573016
3277+333484131+334527703+335542556+336465010+337572877+338639127+339298402
3264+339717857+339865366+339698388+339852599+340610295+341385129+341795421
3250+342174511+342642088+342767294+342716205+342912408+342997929+342933986
3237+343246473+343665313+343617542+343281697+343098546+343362714+343954750
3223+344310635+344483106+345076548+345604905+345382531+345228474+345488796
3210+345498530+345609915+346131811+346298327+345926533+345778936+346233021
3196+346961909+347655947+348369761+348931759+348930199+348779503+349229392
3183+350140024+350843664+350947357+350623817+350508785+351049952+351923515
3169+352811008+353635877+353844165+353578020+353834541+354547036+355015273
3156+355201719+355049508+354743481+355057836+355657562+355691819+355500758
3142+355664814+356092377+356346568+356380979+356623766+357199321+357867298
3129+358414112+358710559+358724139+358573553+358524574+358631410+358626290
3115+358755583+359579924+360635538+360955914+360495346+360120344+360389499
3102+360751186+360588559+360164863+360107643+360708117+361383983+361574538
3088+361758128+362277607+362766652+362974260+363053650+363364599+363775463
3075+363820201+363748391+364001044+364144554+363765333+363330474+363118407
3061+363115924+363555748+364160924+364450427+364591564+364778911+364663198
3047+364185227+363979400+364093707+364014844+363799656+363650674+363513800
3034+363487937+363666715+363826903+363776188+363717936+364015349+364515579
3020+364653310+364807125+365589651+365980562+365208122+364302632+364094212
3007+364744413+365923189+366751837+367581694+368699735+368327413+366617292
2993+367006621+370053707+372651344+374189323+375686739+376633408+377215798
2980+377271039+376524067+376658282+377520352+377500225+377120256+376984547
2966+376802605+376566872+376339269+376361990+376634199+376729301+376846377
2953+377117224+377149130+377348387+378108147+378594205+378294484+378028691
2939+378296506+378485303+378353813+378436478+378875423+379208720+379150665
2926+378853494+378721608+378822950+378565375+377911395+377479481+377407935
2912+377607544+377923876+378141635+378321072+378556278+378906142+379200282
2899+379080174+378830333+378898979+379100389+379209686+379227881+379456978
2885+380146027+380681789+380555792+380267674+380154421+379879575+379550234
2872+379580426+379670869+379570977+379706379+380205884+380579436+380476819
2858+380044509+379721497+379644193+379418788+379086282+379100741+379475875
2845+380033303+380613890+381048397+381255784+381572952+382538518+383762978
2831+384267053+384066522+384078695+384504588+384956410+385580813+386262040
2818+386597051+386917690+387500739+388030831+388382102+388724276+389121383
2804+389522271+389797512+389994528+390364037+390760661+391005843+391313035
2791+391653055+391959324+392308661+392557974+392914474+393590647+394130056
2777+394460760+394957716+395500245+395818863+395890629+395963010+396321400
2764+396828640+397388089+398064702+398684271+399256552+399794511+400123720
2750+400323768+400421639+400476090+400737708+401144176+401544624+401981197
2737+402557917+403342112+404120771+404681670+405206752+405789010+406237931
2723+406596981+407023270+407518160+408112635+408722580+409319296+409970375
2710+410247990+410006104+409907618+410203779+410697571+411378710+412086481
2696+412495279+412546082+412486797+412542698+412785595+413179450+413525272
2683+413725408+414007286+414448473+414760323+414926048+415164594+415311466
2669+415278725+415356292+415560559+415678865+415715385+415817431+416057383
2656+416313332+416492417+416632214+416690312+416775482+417104867+417499909
2642+417706417+417847268+418003809+418132750+418369274+418729027+419103458
2629+419455036+419639747+419673103+419831357+420234266+420799604+421378521
2615+421762445+421912129+422110420+422492453+422871323+423168626+423383792
2602+423466369+423482542+423455075+423393593+423538003+423820716+423816981
2588+423628139+423614208+423704124+423740337+423757520+423830077+423971236
2575+424113933+424117317+423856929+423492562+423281483+423139182+422983477
2561+422925554+422912897+422901427+422989673+423232482+423581204+423815135
2548+423817069+423663517+423358435+423064691+422973852+422989365+423078535
2534+423194160+423207080+423305962+423648795+424028499+424280845+424467269
2521+424641168+424609922+424287569+424050473+424053373+424042650+424088575
2507+424394273+424700146+424697289+424580829+424641125+424870222+425003778
2494+424728668+424309366+424186622+424130633+423917664+423738491+423708651
2480+423787756+423831615+423721176+423500736+423303369+423268738+423297392
2467+423158035+422885298+422606716+422454395+422506297+422546421+422458878
2453+422351251+422177967+421892397+421613420+421476480+421541170+421691162
2440+421684966+421515681+421470503+421582832+421473535+421116639+420975657
2426+421104334+421172936+421132724+421088689+421088513+421132065+421071769
2413+420840255+420662532+420626495+420544490+420458661+420488545+420479536
2399+420454661+420577011+420687890+420663455+420592480+420491313+420334026
2386+420012332+419346530+418267141+416749948+414785504+412375830+409409915
2372+406011251+402799847+400166041+397883111+395712950+393904431+392904938
2359+392789005+393946093+396742196+400569829+404735989+407785887+407837833
2345+405112441+402445807+401481340+401540449+401978032+402565124+403175948
2332+403827027+404648138+405580084+406592015+407661736+408740290+410041965
2318+411633780+413262819+414617626+415499340+416199333+417198606+418400125
2305+419348376+419944565+420502124+421183132+421777123+422222661+422720144
2291+423266673+423705531+423989518+424195279+424454041+424755080+424931133
2278+424888064+424726646+424630665+424696278+424927134+425225536+425442108
2264+425547142+425653143+425884306+426185257+426493679+426947391+427438370
2251+427701526+427940512+428410396+428897156+429155391+429208083+429241747
2237+429471372+429776058+429868919+429954440+430349922+430810929+430938772
2224+430825300+430913107+431371609+431965776+432417950+432676799+432927782
2210+433288678+433733820+434185114+434458642+434582002+434847532+435287444
2197+435702878+436057928+436416362+436734629+436973790+437270039+437691977
2183+438102269+438486104+438949968+439483137+439976401+440436881+441027357
2170+441652770+442112503+442503282+442857849+443141397+443584210+444293168
2156+444950048+445397212+445834619+446260732+446573110+446815127+447002738
2143+447195140+447446562+447612990+447525316+447229506+446864216+446548147
2129+446364096+446181232+445865866+445494423+445043392+444342565+443410223
2116+442575664+441956798+441178579+440074623+438964690+438152017+437544929
2102+436771237+435739970+434691827+433694531+432625733+431479719+430372687
2089+429390904+428466033+427490359+426623147+425955896+425226942+424334460
2075+423455822+422719090+422086205+421433763+420639284+419661061+418733070
2062+418038219+417428363+416817935+416217175+415588949+414898141+414179295
2048+413603850+413146973+412544500+411848814+411333664+410956904+410516201
2035+410033176+409603679+409157834+408618337+408101868+407706870+407351204
2021+406943769+406407172+405798283+405339912+404982006+404551718+404165245
2008+403906000+403589931+403130374+402633506+402112819+401606546+401280369
1994+400947908+400324032+399767176+399569457+399472553+399308498+399037211
1981+398624502+398106232+397688205+397519623+397413974+397151257+396537973
1967+395676034+395156973+395062442+395009749+394937852+394774807+394391279
1954+393954707+393582517+393144363+392597526+392039923+391374781+390702255
1940+390599243+390939131+391175480+391157461+390917861+390624469+390345799
1927+389927245+389196050+388401307+388086293+387875609+387529041+387691338
1913+388032985+387828805+387436927+387563496+387998398+388188734+388105278
1900+387918722+387538226+386958825+386674969+386695493+386441829+386289508
1886+386623068+387018725+387433587+387807403+387947859+387937048+387909185
1873+387765390+386814941+385059115+384705999+386220466+387606037+388088710
1859+388163596+388294427+388467535+388457955+388326245+388136744+387709269
1846+386745593+385805999+386450003+387796328+388393089+388506824+388662749
1832+388138414+386571693+385937709+386719268+387335629+387951111+388766904
1819+389190029+389209586+389091455+388639853+387937180+387921358+388651411
1805+389200884+389032786+388153180+387471162+387737395+388052190+387203611
1792+386134462+387292033+389340856+390206486+390027093+389665802+389570613
1778+390049199+390313629+389059813+386643283+386552181+389093609+391520949
1765+392740135+392521322+392051261+392658921+393433404+394253373+394794408
1751+393397719+391036167+391123974+392741322+393734355+393788850+393679245
1738+394257811+394110104+391940207+391945524+394796605+397555045+399298434
1724+399947667+400113964+399480683+396339902+393006544+394707612+398330011
1711+400884052+401636210+400403840+399062789+399390591+398759113+396210389
1697+395917832+398411402+401913034+404168409+404428709+403617442+401151164
1684+398002516+400164108+404175529+406503637+406705838+406124020+405947440
1670+405422226+406487332+409569048+411281894+411249461+412350033+414448648
1657+415265277+412848308+408297741+410226192+413165036+414022008+417478638
1643+423065043+427037966+428807108+428756129+430042774+436507377+443377965
1630+448372444+452609754+456964711+461357199+466855753+472653851+476923814
1616+481588599+488635284+495307231+500430870+505113278+510411828+515701720
1603+520655547+525912214+531296900+535960455+540080514+544418156+548887200
1589+553241366+557641370+562100394+566389518+570496832+574082667+576725218
1576+580887818+587871922+593995055+599295406+606156765+613929855+621102581
1562+626478214+628924012+634016449+647556215+661003428+672871087+683663795
1549+694470918+704408983+712765342+719246425+726412646+744226330+762837131
1535+776057971+789354752+804026996+816198814+826789672+837688689+847853610
1522+858455719+870969623+884194595+898643147+912213456+922048684+927728784
1508+930199765+937991796+954095139+967316331+976334843+981611683+986586077
1495+994324756+1000831241+1002550898+1002194925+1007342296+1015539609
1483+1021897728+1025027654+1025901590+1025957315+1024446495+1020120147
1472+1017002175+1019968705+1023497761+1022573022+1020150559+1020534482
1460+1019540219+1010933669+1002899928+1007719100+1015132042+1019320834
1449+1019550678+1018379483+1018076247+1018117206+1018277789+1017560218
1437+1013252680+1010660756+1014404274+1018036606+1019651142+1021864855
1425+1023073933+1023111903+1023333486+1020415210+1016266937+1017571380
1414+1020152493+1020261130+1019117798+1017979738+1016515151+1015185482
1402+1014257051+1011249738+1006717717+1004100392+1002912321+1003079145
1391+1003687903+1001340941+996060410+993469102+995506674+999464919+1003015773
1377+1004213688+1001785073+999158079+999892175+1001394293+1002343555+1002660415
1364+1000593398+997865589+997119188+996955792+996600786+996285508+996164214
1350+996626627+996864646+995130046+992491363+990747973+988625934+986379788
1337+987483481+991273056+993460664+992861926+992562293+994222534+996503838
1323+998689425+1001071369+1003059280+1004096173+1005099753+1007037214
1312+1010281491+1014400934+1018193586+1021921371+1025922860+1028866714
1300+1030802065+1032721419+1034974421+1037687990+1039960505+1041944374
1288+1045286214+1049219321+1051691180+1052611349+1052840842+1053207010
1277+1054264031+1055553005+1056125902+1055952837+1055153700+1053629168
1265+1052821944+1053119555+1052539627+1051525411+1051602231+1051451755
1254+1050108111+1049476588+1051942295+1056870545+1060358378+1060274702
1242+1058508109+1056813150+1055479964+1055086812+1055614092+1055497280
1231+1054793244+1055802010+1058394725+1060292896+1060627335+1059935693
1219+1059621733+1060675062+1061635222+1061137563+1060857267+1062096757
1207+1063736694+1064948233+1065697974+1065380147+1064508321+1065437718
1196+1067656002+1068329450+1067772726+1067667867+1068139070+1068169394
1184+1066691095+1064528624+1063194648+1062513289+1061773217+1061546537
1173+1062395599+1062769854+1061300608+1059366839+1058806862+1059456403
1161+1059423091+1057696754+1055118718+1052741609+1051630973+1052088464
1150+1053161129+1053439579+1051593354+1048135141+1044976737+1042449768
1138+1039465307+1035975452+1032828123+1030294825+1028054040+1025800335
1126+1023561748+1021113444+1018410510+1015815598+1013101501+1010132070
1115+1007417358+1005251459+1002933240+1000138368+997883344+996735704+996645876
1101+996859987+996308800+995649591+995580945+995843750+996922392+998236856
1088+998512493+999136281+1001218416+1003260032+1004205602+1004752394+1006274289
1074+1008525445+1010114140+1011825359+1014944035+1018389591+1020588010
1063+1021269721+1021172949+1021435490+1022555003+1024400438+1026009876
1051+1026279536+1026857180+1028877964+1029963726+1030042919+1031058189
1040+1031644622+1030662840+1029983590+1030724366+1031865238+1032166540
1028+1032432070+1034164033+1035933351+1035568237+1033705838+1031598390
1016+1029264964+1027229589+1026907719+1028671588+1030967482+1031612189
1005+1030381489+1029136902+1028757549+1028079530+1026603867+1025584554
993+1025546056+1025930683+1026249389+1026453568+1027002469+1027454160
982+1026918882+1025512305+1023843098+1022344584+1021716137+1023205951
970+1025693280+1025717363+1023356162+1022066309+1021840508+1019829128
959+1017079522+1015904283+1014834343+1013580263+1014840935+1017221296
947+1016398339+1013156787+1010808331+1010256529+1010539461+1010234291
935+1009819429+1009945821+1010166613+1010695299+1011128443+1011356354
924+1012464968+1014227343+1015719881+1017004284+1017743126+1017085411
912+1015280935+1013635548+1013874094+1015562549+1015807687+1014449452
901+1013731529+1014047862+1014713048+1015252809+1015456900+1015617220
889+1015759873+1015487399+1014758578+1014022988+1013758952+1014145337
878+1014382477+1013293726+1012022683+1012201284+1012737090+1012952695
866+1014058321+1015672505+1016552682+1018455688+1023134317+1028089286
854+1030518605+1030827818+1031312293+1033623305+1036902740+1039702446
843+1041504901+1042103111+1042648058+1044749002+1047079879+1046717050
831+1043149321+1038992522+1038248143+1040572866+1041983223+1043414235
820+1046586878+1048629724+1049416644+1052026586+1055686956+1057388508
808+1057097225+1057336738+1059226208+1060338865+1059362005+1058169451
797+1057318631+1055296616+1050580193+1045894269+1046025847+1048689844
785+1048591929+1046446950+1046556730+1050996286+1056313381+1058430498
773+1058297777+1056527668+1053085452+1050205498+1047712192+1045110864
762+1045939358+1051662175+1056742834+1056005750+1053016367+1052495064
750+1052348456+1049664946+1045799254+1043806860+1045017520+1047430314
739+1048044170+1046709139+1045544800+1046128068+1048534358+1050893801
727+1049800216+1045044592+1041791437+1041940418+1041367609+1038995159
716+1036793311+1034409698+1033880221+1039101599+1046069618+1047903539
704+1046894157+1047243978+1046827094+1043640915+1039653753+1036015356
692+1034588651+1038046337+1043305333+1046579231+1047420470+1045567740
681+1043526740+1044121523+1045455059+1044570576+1042837031+1039792363
669+1033866158+1035732512+1046728300+1050005098+1044488922+1043178326
658+1049355470+1051057724+1048483116+1053023750+1062853529+1068737896
646+1067809202+1061634695+1055269369+1049226528+1042466731+1021710688+966230305
633+925026641+950803399+1007922664+1026379912+1014998090+1006715783+1009126029
619+1013240374+998924455+974862433+967747366+980100950+1000553054+1027513401
606+1059486551+1073741823+1053271877+1033246149
##END=
