##TITLE=Sample description
##JCAMP-DX=4.24
##DATA TYPE=INFRARED SPECTRUM
##DATE=24/8/2023
##SAMPLING PROCEDURE=Instrument type and / or accessory
##ORIGIN=Default
##XUNITS=1/CM
##YUNITS=ABSORBANCE
##RESOLUTION=4
##FIRSTX=4397.6552
##LASTX=599.8556
##DELTAX=-1.9287962
##MAXY=1.5174997
##MINY=0.58866227
##XFACTOR=1
##YFACTOR=1.4132817e-009
##NPOINTS=1970
##FIRSTY=0.8356421
##XYDATA=(X++(Y..Y))
4398+591277797+590892321+591415582+592096027+592415880+591490526+589584190
4384+588667271+589220434+590043346+589974306+588862667+588201073+588639014
4371+588547917+587464662+586404265+586137594+587036252+587926432+587758998
4357+587275930+587176904+587318780+587240419+586460568+585098158+584230963
4344+584104903+584120803+584451157+583903056+580990264+578270464+578830543
4330+581617612+584043624+585200558+585732760+586252605+586143625+585069606
4317+583953707+583353604+582908114+581563375+579362872+579117289+581426181
4303+582607240+581804235+581532124+581920426+581619847+580784747+580725871
4290+582454947+584989432+585822634+584643263+583723898+584057794+584279253
4276+583158505+581539505+580580580+579806000+578617814+577664963+577735352
4263+578425751+578878918+579008267+579370716+580489820+582274102+583449763
4249+582791627+581214971+579638525+577902279+577001682+577415626+578153092
4236+578686896+578791279+578565307+578706423+579156047+579256338+579226099
4222+578975793+577696256+576644843+577404239+578366833+578116906+577700600
4209+577539409+577322463+577603894+578365146+578241237+577165615+576462943
4195+576021586+575085731+574373274+575407692+577436967+578068743+577553116
4182+577122597+576927497+577166459+577334524+576871827+576187501+576028671
4168+576408496+576150725+574910073+573963548+574187875+575206181+575783679
4155+575089822+574217017+574186188+574302505+574234604+574034907+573533957
4141+573601479+574751539+575402209+574126131+571927652+571026675+571951480
4128+572599620+571822004+571493590+572833605+574577315+575345484+574900710
4114+573568709+572398953+572462848+573150800+573203097+572796407+572990790
4101+573422110+572875906+571948064+571424171+570875057+570878810+571653938
4087+571778142+571349269+571364958+571342057+570932836+570719770+571478660
4074+572886661+572929299+571162140+569960922+570463264+571096558+570845956
4060+570142146+569378574+569336653+570326871+571042026+570665238+569833301
4047+569026036+568688935+569029200+568950670+568290637+568364105+569250490
4033+569947131+570220085+570192081+569506363+568905164+569336484+569368452
4020+568328510+568096381+569214810+570345259+570810614+570170066+568516019
4006+567811238+568433525+568341753+567417032+566748943+566279244+566280425
3993+566833883+567048172+567065084+567450012+567656710+567396324+566940754
3979+566474091+566572189+567289749+567249725+566028137+565154362+565456712
3966+566247529+566463843+566027884+566173302+567142348+567918910+567635539
3952+566206578+564475056+563360591+563405760+563903716+564164355+564715367
3939+565059554+565113706+565231036+564309394+563447639+564617015+565696939
3925+564862177+564012400+564502047+564611448+563325080+562584324+563569735
3912+564639368+564907093+564608074+562467501+558876583+557663641+558542644
3898+559921291+562327396+564348026+563201339+560561924+560256495+559605614
3885+557800329+557993489+558307690+559195803+561428655+562022811+561517095
3871+559642348+556039875+555610790+556483299+556274703+557564699+560352485
3858+563111254+562824762+553413534+547174977+552938521+559484446+561817843
3844+560721766+559179355+557837063+554989347+553289540+554214008+555045777
3831+556061932+558135491+560120862+561631220+559983878+553746756+552142854
3817+554515093+555992344+558541548+561099608+561010620+558027945+557160792
3804+558618601+556741113+555523109+557211571+558165898+560143678+563138330
3790+564534480+564232762+562945171+561659266+561723498+561569476+560974181
3777+562377458+564103370+563536375+560814213+558760434+558675748+559457033
3763+561433294+562881571+561254474+559209636+559131529+558141015+553346139
3750+550826541+554606486+556694004+554227715+554457904+557101537+557211191
3736+552481305+548135336+550317325+555628967+559300101+559481747+557737235
3723+556775780+557493677+559409249+561026604+561080672+557544244+552387720
3709+553261494+557066701+558842422+558296260+557239828+557640276+558866124
3696+559954440+560162024+557934317+553403285+552399191+555885600+559074593
3682+559885063+558404523+554794458+548231747+545810838+549682090+549836070
3669+547532997+549538317+552366844+552959228+551765096+549922908+547352574
3655+545915600+546273283+542937986+533452573+530159788+534237021+537466417
3642+538160612+537673832+536288269+533510774+530380530+527819686+522856785
3628+516511611+516352444+517983000+516626917+511244210+505173466+503964361
3615+504196490+502213228+500001759+497832506+495636346+494837601+494073143
3601+492094140+489818186+487622279+484819859+482577391+482305787+481303380
3588+476833163+473689128+474515920+475553838+474694445+472666942+470827664
3574+469288121+467842922+466147417+462471813+457833362+456898266+458323347
3561+458845807+458117071+457415623+456819779+455695530+454585747+453693458
3547+452372801+450945147+450287476+450273516+450241675+449622509+448287555
3534+446951420+445969384+444995824+444086539+443402298+442676725+442140517
3520+442090414+441791733+441208415+440899486+440260878+438909476+437736937
3507+437224135+436075087+434102200+433546338+434266596+434323279+433687286
3493+433050912+432079504+430701237+429804604+429643961+429239675+428337264
3480+428038077+428255066+428139212+427626495+426542016+425483770+425358680
3466+425584863+425390143+424697719+423709778+422820653+422221984+421577555
3453+420742202+420188196+419623183+418571474+417995790+418378229+419070906
3439+419460895+419139439+418565274+418245126+417768258+417062043+416609973
3426+416521533+416559364+416806423+417166552+417115563+417060609+417527272
3412+417836496+417333774+416607612+416753620+417634817+418009581+417371268
3399+416625662+416960276+417849191+417725366+416931007+417050951+418101437
3385+418911949+419161665+419458786+420006339+420723139+421993397+423862071
3372+425456568+425963169+425687389+425945414+427404994+429205176+430434187
3358+431367765+432626509+434214384+435782606+436981420+437792523+438448802
3345+439034102+439398406+439554748+440225198+441450709+442352402+442819444
3331+443169241+443712281+444262407+444197669+443644212+442904679+442433715
3318+442900715+444049046+445113955+445502426+445095525+444741764+444949179
3304+445302097+445919322+446800308+447300584+447246221+446381725+444988781
3291+444823878+446500826+448594586+449990567+450388147+449968467+449921527
3277+451223964+453019549+454087285+454736141+455636570+456379518+456374078
3264+456208036+456758626+457829229+458578377+458605791+458386272+458224068
3250+458228623+458753318+459390534+459823162+460476025+461473793+462473037
3237+462885125+462523983+462107804+462399484+462914942+463307209+464202323
3223+464841606+464502396+464333908+464687163+464983651+465205531+465238174
3210+465344623+465948185+466327756+466031648+465587170+465428424+465661439
3196+466097145+466790032+467684303+468051518+467845790+467678441+467721965
3183+468490303+470024785+470975907+471171303+471538770+472065574+472704393
3169+473455270+473641134+473190413+473388002+474640757+475815278+476469154
3156+476859185+477047874+477026492+476925737+477052261+477284179+477320702
3142+477223785+477328462+478116917+479319232+479869484+479475109+478634484
3129+477985670+478241290+478876398+478960283+478984787+479342512+479712595
3115+479889770+479804620+479756330+479951936+479884372+479465620+479560302
3102+480255551+480907908+481228267+480874506+480241507+480188957+480342220
3088+480054926+479804451+480355969+481460776+482212876+482311143+482176985
3075+482113048+482036628+481904326+481867128+482191704+482975182+483625431
3061+483585787+483487351+483803028+483721294+483263910+483343747+483479254
3047+483011326+482698770+483087831+483609784+483805770+484039038+484449481
3034+484441932+484041189+483922130+484090702+484067969+483716655+483469511
3020+483682746+484206218+484702318+484894803+485080203+485754660+486764531
3007+487619116+487912694+487605873+487124619+487076413+487859427+489234320
2993+490410487+490865888+490908991+491145675+491858975+492906129+494046067
2980+495206460+496091874+496360696+496316750+496425138+496522309+496458414
2966+496273014+495658825+494912165+494596741+494337831+493900227+493714912
2953+493986474+494576287+495365163+496132236+496461113+496232147+495962061
2939+496094447+496404009+496656424+496738243+496494010+496051682+495475661
2926+494911955+494839794+495156567+494982344+494132862+493686570+494195829
2912+494950924+495394685+495570385+495605770+495640184+495831868+496269303
2899+496592276+496423747+496450359+497064928+497334213+497065307+497024060
2885+497247417+497528005+498042831+498585112+498660479+498183779+497627537
2872+497506032+497507340+497320717+497368037+497602654+497836133+498424807
2858+499163453+499458254+499296599+498684392+497562167+496590421+496504216
2845+497244549+498319159+499095721+499243121+499243121+499717038+500592794
2831+501289224+501491114+501500308+501684653+502061441+502466908+502752473
2818+503022053+503514020+504127324+504666400+505214502+505728611+505905111
2804+505579608+505144914+505295772+506052765+506989632+507898496+508482699
2791+508606481+508687794+509091827+509641573+510030424+510117767+509998582
2777+510253064+511008158+511369806+511105666+511055394+511373306+511573467
2764+511720404+511990996+512306167+512689492+513117902+513461710+513757565
2750+514123810+514453826+514732769+515099984+515375890+515507349+515827876
2737+516400734+516941160+517314194+517533165+517658888+517888613+518218672
2723+518539663+518831891+519042891+519323394+519641264+519841510+520230613
2710+520881157+521333184+521336348+521260644+521667165+522446764+522996215
2696+523309488+523742368+523981119+524014353+524502313+525093011+525109333
2683+524861093+524808838+525231175+526085507+526758825+526958311+527078298
2669+527365339+527639221+527762581+527842840+527961182+528064594+528308954
2656+528864436+529432739+529680009+529817667+530177839+530588704+530831166
2642+531046257+531290363+531369694+531255021+531394029+531990715+532596934
2629+532979711+533345702+533837458+534332209+534794148+535367217+535886598
2615+536475566+537534698+538457479+538678390+538610826+538378191+538174656
2602+538555915+539334965+540032449+540539768+540932245+541369554+541936802
2588+542632811+543271377+543363697+542892775+542754906+543404986+544226337
2575+544755165+545157216+545539191+545738593+545845084+546158779+546648722
2561+547082488+547472435+547902405+548195898+548254605+548235880+548479523
2548+549126693+549672939+549814013+549793347+549817471+550167816+551048633
2534+552030459+552428039+552349046+552460345+552887953+553303205+553616858
2521+553944470+554360987+554845953+555082806+555038101+555215867+555578780
2507+555764264+555964635+556414133+557021490+557668027+558093400+558067505
2494+557898427+557990241+558286602+558634670+559092728+559487820+559539020
2480+559453026+559444591+559359188+559139416+559132457+559465552+559550618
2467+559270410+559284454+559615230+559675413+559516077+559574447+559607891
2453+559322749+559054476+558911251+558620583+558286138+558212417+558295375
2440+558294742+558159024+557983198+558015715+558061980+557618725+556925669
2426+556364156+555829972+555379251+555115702+554897448+554618674+554373091
2413+554120170+553600030+552988666+552607492+552303750+551839787+551229394
2399+550774076+550723509+550780360+550389359+549473242+548558094+548062205
2386+547581245+546544972+545094544+543304863+540904958+537747216+533774323
2372+529517004+525637697+522042731+518416302+515015930+512681564+511617329
2359+511338259+511862912+513835166+517592210+522087857+524957968+524319360
2345+520955342+518148831+517077806+516764575+516902401+517000879+516583350
2332+516178600+516897425+518800133+520622668+521630473+522311003+523354109
2318+524936796+526550946+527618133+528349695+529209425+530046254+530535016
2305+530972831+531778408+532679090+533233391+533558895+533987600+534375565
2291+534532328+534826622+535377761+535771166+535867746+535895159+535956945
2278+535897352+535764839+535822956+536094012+536558355+537138847+537601250
2264+537959144+538260355+538341499+538293546+538455708+538883021+539362547
2251+539792096+540246949+540729891+541174960+541758952+542427378+542735168
2237+542841617+543193775+543603418+543812646+544055867+544618899+545451848
2224+546379563+547147437+547485424+547658467+548147777+548866770+549550506
2210+550191813+550823800+551442165+551965931+552391136+552818703+553266892
2197+553880871+554751693+555748786+556790499+557738374+558405493+558750397
2183+559053295+559709068+560618818+561464588+562282607+563208720+564057653
2170+564545993+564850579+565469281+566469663+567371188+567948938+568438291
2156+568945145+569462164+570027979+570454154+570588860+570812048+571323078
2143+571630447+571536693+571328603+571196385+571330459+571653221+571601178
2129+570897663+569856750+568830220+567927893+567039189+566115691+565307499
2116+564528828+563430812+561914675+560275643+558796704+557555463+556589664
2102+555708171+554533355+553041469+551563754+550310366+549125470+547748299
2089+546275982+544953217+543795903+542792695+541787336+540462040+538949362
2075+537689521+536634017+535445367+534188773+533019355+531844791+530694183
2062+529651162+528439274+526935748+525723649+524980700+524058172+522843880
2048+521756196+520753283+519577539+518341442+517331823+516502544+515554036
2035+514460574+513435941+512453399+511396249+510425473+509648785+508964502
2021+508260396+507196583+505685803+504437012+503732949+503152626+502599295
2008+502055917+501362692+500517892+499522655+498453275+497595400+497027013
1994+496309242+495137758+494038813+493421925+493032315+492653165+492109028
1981+491381516+490617986+489882840+489247648+488571166+487767740+486992190
1967+486286735+485790846+485468969+484977339+484330971+483787719+483325696
1954+482796573+482327127+481938825+481198660+480004907+478680666+477674716
1940+477481767+477663877+477547349+477157782+476626381+476001269+475445744
1927+474936739+474052336+472896667+472271344+471894893+471380615+471342447
1913+471452101+470944951+470199599+469933814+469954606+469809315+469567275
1900+469362643+468930184+468193014+467696576+467333073+466414847+465720399
1886+465997402+466393000+466498943+466524881+466458413+466215361+465861853
1873+465340785+463953198+461759104+461181523+462662148+464016291+464409738
1859+464217253+463854593+463646588+463621578+463578096+463260184+462494799
1846+461053986+459577326+459904095+461131714+461601287+461513901+461321374
1832+460156805+457740958+456579046+457256751+457838381+458398165+459141873
1819+459422671+459137782+458572557+457600263+456303393+455732138+456007749
1805+456178345+455630286+454293940+453264457+453201195+452862196+451192460
1792+449598975+450507501+452205747+452525094+451693115+450726135+450032573
1778+449812168+449322057+447210415+443880052+443343338+445750961+447781290
1765+448474557+447860537+446980858+446971833+447016917+447150737+446935183
1751+444646703+441667402+441549102+443056213+443782333+443198679+442351559
1738+442457586+441759722+438857981+438565331+441290234+443643495+444749693
1724+444714182+444260299+442960265+438849208+434686445+436479373+440239580
1711+442427389+442528608+440391450+437960040+437383766+435795343+432205944
1697+431463333+434000685+437567732+439628975+439481870+438235736+435181069
1684+431102613+432752780+436561698+438362429+437485744+435586030+434328171
1670+432908784+433364607+435901159+436613615+435271998+435376211+436612012
1657+436231808+431889592+424756173+425393263+427357674+426620335+428643325
1643+433172628+435829588+435810104+433281102+431752693+436620194+442414357
1630+445733965+447642873+449709768+452286132+456212380+460400195+462721909
1616+465304431+471262020+477295693+481204775+484086442+487545985+491225427
1603+494751227+498412576+501930278+504963394+507930717+511302832+514823740
1589+518294080+521831942+525412062+528871226+532044066+534247818+534699930
1576+536289408+541840518+546722359+549555988+553413618+558512237+562870226
1562+565516094+564592892+563647758+571981846+581417578+588872367+594817430
1549+600451962+605046846+607087509+606546450+606515494+615708679+627619683
1535+635354174+641837259+649261640+655397839+659825206+663829604+666756482
1522+669660922+675958482+684189284+693248185+701746670+707481324+710061400
1508+709711772+713248369+725174344+735205750+741142168+743894148+747589405
1495+754815439+761031812+763613490+766022674+773125980+781365976+787464513
1481+792161671+796921164+801074859+802591291+802511243+806619137+814614605
1468+821082170+825045658+829797559+835805842+839024189+838757898+844607436
1454+857568883+867906225+874638562+879821403+886403852+894303837+901366655
1441+907479447+912447535+915765498+920624269+927963753+934581881+941114227
1427+949311036+956801083+962331950+965607738+965170724+966144284+973100906
1414+980537476+985527579+988850181+990147810+989324814+989527337+992200534
1400+994042469+993042931+990131278+988194112+990901893+995105186+995298261
1387+992158107+991880007+995441993+999157157+1001222702+1001462928+1000038606
1373+999471526+1001579330+1004867940+1008264517+1009842776+1007109438
1362+1003618137+1004307270+1006133095+1006070254+1004857902+1003809778
1350+1002694681+1001414596+1001592742+1003402034+1003896574+1001293892
1339+998450310+998172463+999159350+1000201569+1001188456+1002162437+1003629271
1325+1005634253+1007488419+1008979208+1010495133+1012614830+1015470391
1314+1018944485+1022993587+1026829877+1029841821+1033043550+1037496517
1302+1041428965+1042848985+1043717783+1045526484+1046888050+1048430039
1290+1052038586+1056372283+1058683959+1059403037+1060199884+1060997322
1279+1062378542+1065132883+1067353378+1067202055+1065523926+1063311107
1267+1060825671+1058946201+1058379374+1058945273+1060237757+1061778228
1256+1062682283+1062187490+1061070537+1060927650+1062024528+1063376562
1244+1063709573+1062739050+1061885773+1061600166+1060960208+1060477731
1233+1060795137+1061199170+1061430371+1061701470+1061783964+1061944312
1221+1063179354+1065047859+1065815353+1065884182+1066267381+1065869336
1209+1065083792+1065880808+1067756736+1068931552+1069346298+1070359670
1198+1071979598+1072756961+1072408683+1071615884+1071077398+1070768848
1186+1070223868+1070275658+1071205272+1071347991+1070169547+1069687322
1175+1071421965+1073617323+1073741823+1072655657+1072309572+1071985418
1163+1070889552+1069702336+1068394079+1067072157+1066230773+1065181046
1151+1063137769+1059933847+1056243903+1054125471+1054322764+1054803977
1140+1053854879+1051684403+1048813491+1045865821+1043975301+1042308559
1128+1039118976+1035932766+1034622653+1033923398+1030989139+1024554555
1117+1017834617+1014297430+1012864167+1011722753+1010684497+1009067606
1105+1006091679+1001677091+997038809+993817426+991164725+988526280+987582749
1092+987638166+986268334+982775009+978383448+975820833+975681572+974941070
1078+972305830+969956281+968210925+965348870+962533460+960986663+958468837
1065+954384898+951140235+949053434+946644165+944076995+942324639+941179176
1051+939581938+937413908+935425037+933145666+929417597+924899259+922283672
1038+922854633+924508385+924774000+923157194+920483912+918009610+916750023
1024+916718898+916602833+915526621+914672753+914815472+914655040+913729728
1011+912691051+911628756+910909426+910812087+910909088+910563931+909882136
997+909912839+910524624+910847260+911313796+912013220+911719853+910639845
984+910411259+910376001+908663964+906088949+904279488+902775288+900794851
970+898972147+897544873+895715253+893911106+892711154+891218171+889645311
957+888851837+888581666+888964865+889935050+891047702+892560084+894040751
943+894979221+896261415+898263445+900502496+903443249+907204805+910679236
930+913705857+916569599+918825858+920879088+923593195+926762366+929601057
916+931494023+932384751+932979245+934101343+935395683+935694111+934943487
903+933459192+931095557+928988849+928161974+927536692+926757895+926988169
889+927653600+926939752+925241127+924495817+924870749+924773157+923735070
876+923240193+924077275+925155259+926072811+927646768+929368927+930251389
862+932235537+937350731+942791428+945320978+946758880+949856607+953506063
849+955726558+958008290+961915517+965628066+968403157+972545129+977738429
835+980852267+981580117+981431325+981933119+984089424+986097442+987729348
822+990972662+994557928+997198313+1000562837+1004796665+1007332120+1008314367
808+1011301765+1016243958+1019737621+1020927452+1021133264+1021403266
797+1022523256+1025040660+1028360732+1030741827+1030694845+1029399830
785+1030445846+1034456822+1037684110+1038188097+1038826199+1041512892
773+1044750471+1047827026+1049758372+1048607088+1046596033+1047340837
762+1048885441+1048045828+1047480182+1048781270+1048853051+1047804758
750+1046453061+1042654897+1038877905+1039309521+1041117379+1041711029
739+1044404892+1048807249+1049227477+1044506195+1040085787+1039354732
727+1040355958+1042916211+1046749633+1046350998+1040273295+1034337806
716+1033395371+1036046300+1036766306+1035488245+1035607937+1036219807
704+1035409632+1033896406+1032790587+1031816100+1032402918+1034056163
692+1033007280+1031915969+1035276107+1039671210+1038250853+1031215195
681+1026113583+1025297588+1025951801+1028236991+1029818540+1025135384
669+1016299123+1015801293+1025131588+1032008585+1032959370+1028987784
658+1022745853+1020339115+1025041081+1033373693+1039774285+1040127540
646+1038858927+1045209331+1056692979+1052376404+1030420204+1023101386
635+1034626955+1037829950+1032301445+1026848771+1015125402+1005130941
623+1005238824+1006475384+1002238857+989248141+975371926+974390944+982321378
609+995261570+1005115336+998693320+992240600+998532972+1009010164
##END=
