##TITLE=Sample description
##JCAMP-DX=4.24
##DATA TYPE=INFRARED SPECTRUM
##DATE=24/8/2023
##SAMPLING PROCEDURE=Instrument type and / or accessory
##ORIGIN=Default
##XUNITS=1/CM
##YUNITS=ABSORBANCE
##RESOLUTION=4
##FIRSTX=4397.6552
##LASTX=599.8556
##DELTAX=-1.9287962
##MAXY=1.283837
##MINY=0.34594062
##XFACTOR=1
##YFACTOR=1.1956663e-009
##NPOINTS=1970
##FIRSTY=0.48315009
##XYDATA=(X++(Y..Y))
4398+404084381+404007187+403991883+403831988+403645447+403297839+402449232
4384+401688737+401651823+401861644+402206012+402961048+403399634+402934777
4371+401881858+401017823+401251947+402195992+402149531+400374950+398479806
4357+398416421+399649226+400792673+401753219+402289561+401958179+401369469
4344+401108427+400797085+400429587+400548804+400590504+399695936+398804259
4330+399307575+400398929+400462164+399849476+399385940+398945959+398696955
4317+398593416+398228260+397833294+397335512+396351910+395542088+395838474
4303+396807195+397176638+396794533+396587778+396769658+396774618+396481895
4290+396240070+396161057+396187179+396317937+396354677+396224716+396189771
4276+396275315+396171725+395645552+395177954+395454276+395897472+395509859
4263+394688222+394339468+394393730+394528426+394544229+394154298+393749112
4249+393789990+394010229+394144327+394230370+394301033+394343904+394439368
4236+394294253+393515413+392568003+391892677+391462217+391479266+391794646
4222+391982009+391984527+391678743+391291504+391540882+392397788+393169998
4209+393494575+393368877+392829569+392144597+391764736+391755438+391699880
4195+391261394+390734125+390587789+390957954+391878220+392834728+392866109
4182+392240709+392120095+392245195+391978370+391977398+392224009+392083281
4168+392019447+392077224+391379017+390092399+389624451+390867076+392716159
4155+393178747+391955489+390120589+388595311+387869861+387756900+388015400
4141+388748103+389805633+390959624+391771565+391501674+390381333+389452716
4128+389063782+389170761+389537986+389331430+388552116+388179184+388203262
4114+387856152+386850442+385876835+386108790+387048498+387311634+387046230
4101+386715746+386478208+386694036+387341021+387922404+387800968+387039675
4087+386269483+385935759+386320381+386856897+386590147+385768884+385302357
4074+385342288+385374466+385337353+385323195+384748567+383842608+383611601
4060+383646247+383372667+383527503+384273467+384867037+385013598+384698268
4047+384175685+384060904+384106243+383457936+382420671+382073187+382453572
4033+382879994+383146944+383026006+382333357+381395344+380793099+380805438
4020+380857133+380722860+380803369+380835398+380799206+381075827+381044994
4006+380328417+379910695+380248632+380667177+380705462+380578842+380539584
3993+380279439+379590504+378962562+378729411+378693543+378708100+378505955
3979+378017594+377980855+378428288+378599974+378499949+378175870+377624747
3966+377268640+376971455+376544585+376716196+377735615+378560617+378162959
3952+376672850+375111605+374618558+375289846+375511881+374713175+374751959
3939+375832245+376357571+375681921+374203976+373637998+374788399+375314049
3925+374096673+373616986+374702607+375146825+374241115+373895227+375062951
3912+376328233+376641420+375723746+372695049+368252492+365715696+366389052
3898+369507779+373170973+374717063+372779496+371239562+372627951+372580842
3885+370595742+370254042+370300702+370952523+372378199+372005741+370139909
3871+368348603+367966574+369464633+369930561+369700925+371363167+373402304
3858+374147869+372119525+365426787+363372520+368549476+373354248+375019158
3844+373724339+371446442+368927867+366409142+367025171+369826349+371962545
3831+373767933+375070603+375254053+375537404+374264096+369972560+369433352
3817+371673262+373244128+376295556+379306680+379293245+376041019+374031418
3804+374085132+372619626+372278049+374210457+376472825+379315628+381691855
3790+382621344+382518428+381726177+381199357+381517129+380923409+380062041
3777+381643176+384041961+384442734+382306264+380958803+382288567+384041437
3763+385432816+385531346+384023042+383954523+385479452+384968832+380545118
3750+378999725+383578226+387121953+387287058+389319167+392570944+393063443
3736+390181457+389576246+394743257+401461768+406470603+409272055+411823557
3723+416706594+424231413+433590159+443549853+452873305+461993765+475166877
3709+493709194+512296177+528919198+543835933+557037559+568763061+579080134
3696+587378160+592249308+592317453+588289079+585196898+585621027+586414149
3682+585490967+582696444+578102066+569155185+561301627+560424108+557437211
3669+554022049+556786562+560392702+560964837+559485671+557741350+555183766
3655+553666714+554447174+552006491+543215343+540321867+546154034+552198565
3642+555133816+555833618+556631028+558054710+559718523+561627849+560698037
3628+557091897+559138512+564177855+567427664+566813256+563866289+564129351
3615+566584242+567986987+569266003+570774731+572121095+573956244+575018559
3601+575044282+576230676+578221907+578948628+579493096+580977247+580707605
3588+577472403+577025493+580742800+584632291+587122825+588286935+589226619
3574+590568247+591366355+591606186+590975227+589500298+591291329+595658887
3561+598402961+599524749+601051921+602567029+603321517+604088767+605062100
3547+605490017+606078653+607874868+610943021+614687746+617246625+618363078
3534+619547528+620401568+620171807+620264379+621764482+623356859+624772515
3520+626912301+629467442+631745662+632963163+633074080+633071239+633602197
3507+634404193+634629966+634560425+635785502+637781968+638858441+639479629
3493+640264377+640606950+640633570+640558295+640297078+640320159+641409195
3480+643380486+645030489+645844250+645478546+644499930+644944946+646714840
3466+647925063+648262302+648066040+647082339+646241908+647077852+648424366
3453+648462551+647623616+646478997+646084031+647531542+649385933+650103134
3439+649589075+648860010+649886832+652220138+652763559+650966396+649526063
3426+650298149+651429956+650376265+648767786+648673369+649190968+649645505
3412+649835087+649319832+648946700+649791617+650977662+651145310+650472028
3399+649593112+648779950+648803729+649738826+650007371+649315295+648968585
3385+649058316+648930748+649222523+650672178+651841921+651623177+651215798
3372+650975568+650606973+651015798+651941124+651998502+651455978+651054083
3358+650807871+651264054+652354585+652372979+651018689+650344759+651400096
3345+652879611+653386441+653511566+654046264+654162714+653529114+652865952
3331+652338882+651874623+651557873+651232897+651181700+651468341+651286835
3318+650754332+650314949+650465547+651558621+652082052+651144512+649399194
3304+647806219+647522170+648355871+649190719+649386631+648950588+648254475
3291+647796747+647649738+646853076+645337120+644649731+645499234+646972269
3277+648460109+649850890+650829357+652281603+654556135+655450205+653946014
3264+652421783+652521833+652802143+652310766+652191822+653390579+655144472
3250+656430018+658062574+660074045+660725043+660229179+659841791+659405050
3237+658933763+658989944+659510185+660319060+661232472+661334516+660288053
3223+659278579+658912227+658724141+658125037+656699211+655754194+656318951
3210+656758284+655930615+654889486+654775428+654611768+653224078+651862111
3196+651417394+650770982+649060260+646849985+645097688+644391854+644437517
3183+644036918+643030784+642198878+641882376+641502964+640457946+639804854
3169+639827386+638981971+636962724+634546417+632072184+629875967+628600092
3156+628251537+627730947+626546896+625610154+624868478+622938413+620029982
3142+618101562+617902509+617954553+617132617+615795874+614173039+612550153
3129+611289283+610084993+608457871+606399840+604534681+603141856+602257706
3115+602133728+601931883+600809896+599609445+598932674+598196331+597139349
3102+595877432+594615166+593801804+593109778+592083056+591325477+590897809
3088+590294268+589632452+588768143+587490024+586149692+584994256+584320824
3075+584439768+584617186+583577852+581384526+579318619+578094289+577215673
3061+576099170+574995827+574090990+573163121+572416260+571783257+570551550
3047+568755434+567047603+565462804+563639768+561500731+559621763+558534971
3034+557652366+556295584+554808641+553679226+552550560+550658830+548291826
3020+546558372+545673724+544815796+543215742+541109107+539528395+538842352
3007+538199778+536814580+535202513+534072051+533177882+532522048+532272047
2993+531775486+530721944+529557684+528467701+527450999+526666451+526100447
2980+525449499+524393414+522991567+521609260+520294800+519036323+517946739
2966+516806607+515482526+513997926+512466616+511144978+509747966+508122788
2953+506801797+505767548+504594963+503495010+502690771+501829004+500738523
2939+499641661+498493503+497275603+496538663+496201025+495282179+493576392
2926+491706797+490220303+489077827+487903647+486734003+485414409+483770836
2912+482367492+481584091+481206822+480930350+480459412+479647147+478796746
2899+478190065+477607212+476937519+476133729+475071463+474161142+473553264
2885+472844987+472096232+471299570+470228231+469028328+467814467+466693577
2872+465643275+464460670+463366351+462647306+462140027+461506576+460685437
2858+459842464+458917138+457700285+456263492+454926251+453830286+452875797
2845+452071708+451538805+451248376+451033669+450705354+450187057+449545680
2831+448809437+448087700+447419503+446483310+445361871+444736097+444588889
2818+444175677+443468098+442953192+442471885+441699001+440940525+440448500
2804+439853434+439071278+438603530+438480100+438095802+437263348+436471521
2791+435948639+435486923+435024509+434620171+434231835+433732831+433104415
2777+432490056+432018669+431721759+431429884+430934569+430419962+430117219
2764+429749123+429164375+428752061+428637206+428459688+428064024+427539746
2750+426812625+425999862+425455792+425211923+425118155+424967706+424608084
2737+424251104+424020944+423705240+423232108+422864759+422755886+422727571
2723+422696165+422574779+422247809+421952095+421688436+421162313+420587635
2710+420279559+420082450+419733296+419265449+419028659+419121829+419163006
2696+419035438+418961011+418780253+418285337+417888651+417898222+417942789
2683+417730375+417380250+417084362+416899616+416734610+416531095+416347695
2669+416297969+416200860+415796522+415408785+415396671+415607314+415744578
2656+415684932+415479572+415182563+414855593+414605717+414619600+414965812
2642+415341711+415470824+415348864+415156316+415109532+415198440+415415165
2629+415777006+416005695+416001956+416103851+416473393+416978255+417460011
2615+417777534+417994533+418365895+418857222+419136286+419229158+419381950
2602+419591023+419981752+420642969+421296809+421803989+422167749+422425725
2588+422773583+423175677+423524681+423953246+424264663+424214214+424148860
2575+424301951+424539140+424766409+424812421+424662670+424704794+425114117
2561+425425782+425277427+424988842+424935602+425119201+425254695+425096121
2548+424917955+425023090+425127875+424916708+424595322+424543627+424800706
2534+425131265+425321944+425305742+425209132+425176380+425212721+425271545
2521+425284705+425294227+425457836+425724985+425996920+426250012+426280769
2507+426105196+426013919+426039443+426158237+426407290+426635257+426675137
2494+426646922+426786354+427002456+427101260+427036055+426774888+426482963
2480+426371896+426455994+426607939+426593183+426429823+426291138+426013720
2467+425490688+425019151+424812072+424742082+424617954+424450556+424296617
2453+423985550+423507882+423207881+423109077+422863264+422473034+422198905
2440+422048506+421847509+421520788+421272183+421169740+420849201+420159369
2426+419398849+418845956+418449395+418110386+417866492+417569084+417194482
2413+416949317+416698219+416193308+415531118+414932138+414444899+414021593
2399+413655540+413368301+413186895+412980439+412471240+411689010+410895514
2386+410098802+409146980+407752386+405633712+402987668+400112736+397048023
2372+393935229+390963687+388212683+385677782+383253499+381253943+380313562
2359+380226872+380620243+381989413+384784510+388441871+391066080+390837964
2345+387966397+384976559+383499362+383201455+383600609+384149912+384447246
2332+384668607+385303903+386179079+386732520+387106200+387721132+388719888
2318+389983949+391157880+391965883+392465311+392949210+393691884+394689892
2305+395544904+396035658+396508914+397112729+397623747+397923025+397967567
2291+397915373+398031974+398340125+398740724+399052290+399072430+398938556
2278+398932973+399093866+399289080+399318343+399176991+399055032+399067395
2264+399282824+399634071+400088858+400591850+400840355+400927195+401247186
2251+401761320+402238489+402681262+403184229+403669774+404003349+404215313
2237+404444950+404782663+405256094+405903628+406690170+407443362+408073822
2224+408719860+409489304+410325647+411191477+412109250+413139487+414246195
2210+415232613+416174763+417386057+418819186+420348602+422109773+424027374
2197+425841736+427477133+429107297+431059196+433424156+435880144+438161306
2183+440484293+443054139+445709330+448471051+451464977+454489809+457357663
2170+460154180+462893518+465484302+468070649+470634214+472900670+474987116
2156+477033183+478789966+480084536+480943810+481457819+481631598+481302186
2143+480434287+479097993+477242007+474914284+472141596+468742585+464730462
2129+460303731+455612743+450815224+446011225+441207226+436407713+431724651
2116+427278379+423037342+418857073+414635378+410534072+406701137+403018202
2102+399477765+396121775+392903622+389920987+387154804+384376632+381573111
2089+378911390+376461135+374235806+372227202+370270991+368231280+366214401
2075+364335209+362610504+360942728+359198731+357430532+355731948+354190220
2062+352827405+351436898+349922064+348437490+347071908+345763281+344441294
2048+343067636+341662922+340303746+338986570+337769344+336755931+335764478
2035+334681450+333739399+332939522+331962102+330812099+329786922+329002822
2021+328318499+327369419+326152068+325259643+324685564+323889226+322942489
2008+322154028+321448866+320675634+319838917+318973935+318078220+317075252
1994+315821635+314556178+313829132+313509565+313143164+312687081+312157219
1981+311534561+310841613+310062822+309324187+308800382+308212768+307135697
1967+305968471+305444915+305315304+305060642+304700297+304149349+303297453
1954+302520531+302061856+301637528+301013025+300117335+298842357+297852674
1940+297980092+298420596+298313966+297885725+297538640+297310275+297023833
1927+296489286+295438934+294336539+294012386+293950172+293975023+294608324
1913+295057254+294606679+294049699+294325971+295019392+295421213+295541253
1900+295577245+295372509+294823006+294374376+293987236+293311188+293207149
1886+293862859+294237935+294237611+294222581+294241773+294213807+293983622
1873+293243690+291434413+289328726+289518407+291524070+292928310+293284194
1859+293368466+293717569+294253962+294627542+294653813+294264505+293486587
1846+292353359+291910810+293587783+295727469+296879466+297635026+298319799
1832+297989987+296842876+297121516+298702277+300173517+301825590+303367019
1819+304166772+304462535+304427216+303667418+302554579+302365496+303034541
1805+303358195+302578882+301074691+300310307+300626335+300664046+299446995
1792+298630293+300652531+303264327+304285142+304241697+304167918+304472605
1778+305346660+305797134+304516723+302160212+302290720+305022830+307752473
1765+309240936+309235976+309176778+310050634+311015866+311962777+311835658
1751+309220398+306355635+306774579+308701528+309833909+309942732+309879347
1738+310378775+309792358+307583505+308454294+312131621+315620363+317872587
1724+318847614+319251304+318614737+315554087+313592990+317871814+323654006
1711+327662490+329550231+329807909+330372043+332106967+333068111+333592539
1697+337150898+344551638+352492659+357802193+361218826+363665716+364961008
1684+368651097+377814653+386898971+393885852+399420611+405150909+410654087
1670+416476534+425861526+435753175+443128965+450348174+459366092+467705793
1657+473073602+475325950+480663002+491725092+499238868+506470939+518168275
1643+529299258+537304412+542339569+544672974+548840481+558138509+565894111
1630+570108029+572260327+573829872+574811231+576205601+577823202+576696031
1616+573761976+574341090+575932220+575027183+572529470+570703295+569359224
1603+568007127+567301143+566930554+566149894+565531797+566149545+567863557
1589+570158079+573085055+576671205+580864485+585589621+589929113+593344824
1576+599517271+609273027+617346924+624765935+634682808+645557759+655626875
1562+663013732+666893104+676162368+693548301+708388316+721319603+732803329
1549+743877882+753233737+759655935+763613422+768047032+783274087+800443320
1535+811443944+820891075+831879785+840946257+847255843+852508697+856627949
1522+861168339+869236853+878174461+887231611+896473507+902646303+904180305
1508+902560660+906245215+918106759+926869192+930703498+930260427+929748362
1495+933426037+936578388+934564923+930590736+932028028+935842693+937406306
1481+936270511+934372201+931787150+926160716+918514237+916495289+920691909
1468+922307367+918036470+914053908+915485417+916651421+912008938+909098761
1454+916231380+924896506+931740689+937105209+943441614+951110825+958062187
1441+964012251+969047059+973588346+980246188+987598748+992718700+997959390
1427+1004525707+1008116045+1008889925+1010103487+1010146757+1011938486
1416+1018935312+1024327349+1025361050+1025073911+1024394049+1022407803
1404+1021563534+1022733726+1021094540+1016648368+1013953147+1013441979
1393+1016013670+1019385962+1018327933+1013070294+1010012360+1011222632
1381+1014724136+1018123446+1019279680+1017996327+1015839991+1014976579
1369+1015450858+1016569704+1017458240+1016516663+1015364716+1016168407
1358+1016964121+1016127230+1014221343+1012905787+1012270391+1011528515
1346+1011030508+1010758125+1008879157+1004395697+1000469965+999987810
1335+1001473058+1002850230+1003656213+1004450433+1004981840+1005291811
1323+1006152231+1007030100+1007781946+1010038482+1013840285+1018084862
1312+1022778691+1026725959+1029013302+1031503239+1035174533+1038948720
1300+1042423504+1045561996+1047730994+1049137777+1050947851+1053720838
1288+1056833807+1058977381+1059585060+1059484960+1059619756+1059716266
1277+1059471101+1059764422+1060442190+1059777782+1057476780+1055147761
1265+1053152442+1050539973+1048604077+1049207767+1050887831+1051751841
1254+1052359419+1053553540+1055051649+1056527824+1057786551+1058526034
1242+1058755646+1058952057+1059697722+1061091644+1062606203+1063187062
1231+1062697729+1062616074+1063413783+1064026047+1064191053+1064491951
1219+1065342202+1066776602+1067856266+1068071720+1068471422+1069537327
1207+1070835236+1071996156+1072660365+1072427862+1071613802+1071932247
1196+1073521583+1073741823+1071924172+1070160060+1069182291+1069243507
1184+1071219085+1073331852+1073049598+1071274718+1069756769+1068350185
1173+1066966533+1065780488+1063864731+1061037705+1058443681+1056787346
1161+1055483255+1053421037+1050852237+1048657815+1046448737+1043758801
1150+1041519314+1039654404+1036107038+1030575918+1025206713+1021004809
1138+1016428427+1010765004+1005463994+1000469366+994529771+988111511+982210201
1124+976442689+969988138+963533885+958515728+954588101+949947213+944066242
1111+938725551+935169212+931792733+927403391+923064796+919694499+917628094
1097+916555110+915576543+914764976+914958396+915675746+915615327+915327291
1084+916467772+919188616+921765392+922803779+923330400+925329109+928661918
1070+931279970+932997123+935495035+938748981+941189565+942788871+945626664
1057+949887492+953095775+954702359+956476241+958405458+958604562+957745537
1043+958177542+959934176+962187820+964372272+965598496+966073672+966865797
1030+968084046+969245265+970085047+970140980+969535794+969434497+970356035
1016+971816258+973444676+974654450+974815766+974138895+972811774+971600704
1003+971814064+972575382+972299709+971310972+970134698+968528414+966638479
989+965150539+964371076+963949041+962975958+960746640+958282228+956931676
976+955909640+953843633+950728770+947415702+945342716+945118787+945287182
962+944736931+944113500+944236133+944903034+945351988+945692866+946376018
949+946879908+946756079+946480904+946777215+948133550+950271441+952121595
935+953252106+954867763+958141350+961342853+962041858+961805267+963191113
922+965328705+966381350+966198897+965372474+964352731+963245849+961609753
908+959589609+958246834+957619415+956597677+955043636+953942935+953400761
895+952824887+952074137+950788790+949378219+949405238+950907136+951939242
881+951388991+950394771+950262767+951305142+953520900+956547627+960070368
868+964208463+969256730+974812775+979674502+983479396+986628157+988434144
854+988277912+987735637+987216294+985796949+985134933+985792861+986019282
841+985323967+984004323+983214490+985086080+989687088+992411820+989146209
827+983825459+982051078+982463142+982649085+984525361+988563257+992352199
814+994669851+995558986+995830472+996577732+997372849+997244234+997257295
800+998899472+1001400475+1003471467+1005424014+1008036483+1010048651+1009877265
787+1010192520+1014223736+1020012085+1024544399+1027324066+1029164250
775+1032288784+1036227776+1037488497+1036858485+1037258686+1038113822
764+1038157492+1038258987+1039344434+1040549222+1041539155+1043307055
752+1044653419+1043024801+1039151312+1036606441+1037277729+1039309738
741+1039230675+1036547119+1035176428+1037003551+1038955001+1037936255
729+1032801148+1025753275+1022436318+1024764638+1028142114+1029753384
718+1030135439+1027310706+1023259351+1022964235+1024197339+1023176698
706+1020717470+1018467814+1016643183+1015760529+1016821449+1018102409
694+1015856641+1010148452+1006217635+1005086127+1002842253+1002500976
683+1009049845+1017592837+1020357150+1018049966+1014945273+1012881858
671+1010454236+1006938873+1011872484+1022755561+1025126454+1021516974
660+1018074393+1015914568+1016515466+1018074593+1015485055+1011568894
648+1013633206+1020430829+1025404420+1024329443+1015158434+1003746343
637+1001745840+1008173074+1011033100+1009414452+1007354926+1002177945+995610432
623+992528869+992369148+993225581+995771549+1001268371+1006433488+1005787724
609+1003462594+1008754929+1018727136+1025263842+1028755076+1027552382
##END=
