##TITLE=Sample description
##JCAMP-DX=4.24
##DATA TYPE=INFRARED SPECTRUM
##DATE=24/8/2023
##SAMPLING PROCEDURE=Instrument type and / or accessory
##ORIGIN=Default
##XUNITS=1/CM
##YUNITS=ABSORBANCE
##RESOLUTION=4
##FIRSTX=4397.6552
##LASTX=599.8556
##DELTAX=-1.9287962
##MAXY=1.4357718
##MINY=0.53696245
##XFACTOR=1
##YFACTOR=1.3371667e-009
##NPOINTS=1970
##FIRSTY=0.67179614
##XYDATA=(X++(Y..Y))
4398+502402683+503679587+503834710+503719839+503567659+503530082+504011718
4384+504035923+502944540+502009038+501516124+501289859+501786117+502186893
4371+502034357+502659793+504143973+504659353+503413829+501340764+499881056
4357+499854222+500015718+498882836+498006352+499052267+500200082+499497798
4344+498124877+497981033+498719379+498848513+498230031+497890902+498045177
4330+497772732+497370485+498010943+499008494+498849539+497613554+496865090
4317+497146939+497368612+497674176+499100007+500544159+499965616+497913278
4303+496547267+496215315+496200694+496507194+496802729+496685674+496611322
4290+496787573+496987092+497097862+496907704+496301078+495934535+496334108
4276+496546064+495647871+494252574+493816984+494426240+494400921+494034601
4263+495061260+496527119+496222581+494714152+494191194+494490651+494384116
4249+493953830+493476651+493385227+494258012+495107261+494059652+491789341
4236+490742044+491485159+492764917+493032280+491938580+490565303+489997993
4222+491196044+493574762+494442465+493078906+491420302+490672908+490908711
4209+491537981+491830574+491887407+491699299+490793573+489614600+488856017
4195+488421809+488669425+489714627+490258090+489975705+489990148+490147409
4182+489545821+488773509+488526472+488394930+488187432+488218635+488539756
4168+488803374+488757818+488284963+487753937+487837427+488249704+488436029
4155+488356908+488264637+488350712+488260268+487894661+487493662+487068190
4141+486929026+487283846+487279789+486189254+485148687+485428843+485938161
4128+485244034+484260970+484241446+484713231+485095197+485448858+485314463
4114+484523697+483925986+483764534+483594034+483139588+482436992+482217726
4101+482665619+482846015+482562159+482409132+482324395+482170966+482232792
4087+482585071+483233241+483556902+482814188+481740948+481411403+481585648
4074+481461149+481400393+481907125+482209257+481906991+481421254+480968012
4060+480701407+480670427+480298758+479543741+479221149+479000546+478654954
4047+478922495+479146887+478882332+479111940+479497650+479320998+479050604
4033+478693155+478244771+478184015+478088892+477458062+476980615+477217801
4020+477471746+477435997+477533706+477310651+476839980+477278690+478277178
4006+478737596+478875869+478721861+478135339+477834812+477966220+477993188
3993+477799286+477462162+476815954+476092987+476099673+476765584+477234427
3979+478009325+479383181+479290776+477953650+477781099+477480260+476014356
3966+475561025+476433096+477082826+477351839+477371987+476469069+475238834
3952+475599270+477723374+479090722+478899984+478211563+476236029+474015910
3939+473821161+475170857+476932340+477521626+475892041+475028260+476579928
3925+477206166+475207632+474136174+475293172+475434431+473140584+471390557
3912+471465845+472962952+475700412+477725513+477029871+475331194+473220419
3898+471263250+472111385+474104392+472799227+469892024+470951847+473535388
3885+473988630+473479491+471476899+469502970+470401074+471594445+471977882
3871+471572692+469872366+470017949+470469363+468163036+466938373+469435171
3858+473772707+475984357+469426078+462722082+465035854+468700971+470694290
3844+471225495+471097608+470515187+468352748+466343337+465943586+465506614
3831+465703013+467251560+468172620+468572861+468611152+466348240+465850512
3817+466582618+465117917+465448443+467883326+469257048+467625859+466438015
3804+467547183+465794125+463925081+465179921+465415814+465440063+466728067
3790+467777727+468293731+468422152+468145206+468392376+467970248+466416352
3777+466531935+468048076+469277285+469227183+468448541+468425495+468094791
3763+467794621+468433786+468850922+469459465+471504090+473009265+470479348
3750+468370133+472190194+475189177+474402378+477106184+482991464+487731783
3736+487977393+483239170+480562911+483256732+488086915+490916289+489891458
3723+486572290+482623584+480141942+480778166+483873699+486145481+485210647
3709+485704230+489390520+494176796+498920101+503429386+508679201+514560782
3696+520207406+525386569+529258426+530053784+529962449+531846693+533890070
3682+535073857+536089239+537217351+534479802+528818735+528228157+527673238
3669+525333078+526582837+529537468+531733248+533839165+536767764+539879345
3655+543755838+549899210+555832498+555573917+552339130+553423781+556015614
3642+557069686+556282040+555686514+556119474+557406943+559833580+559462758
3628+552633951+549059500+549929477+550649190+548946323+545241757+543869639
3615+544120598+543259314+542659820+541976079+540046592+539371632+539937070
3601+539789080+539873283+541061928+540554617+537712494+536890391+538589825
3588+536550459+529912257+526318282+526165077+526282087+525847032+525373775
3574+524809987+525632045+529756065+534136304+531351104+525251149+523342299
3561+523395210+522453779+522170771+523933814+525433016+525413760+526306782
3547+527723074+526384120+523490735+522285686+523170952+524383312+524000900
3534+523455655+524930206+527047222+528076912+528584492+527762255+525036117
3520+523178842+523192081+523298214+523063124+523009768+522708527+522420170
3507+523965775+526952099+528001625+526459720+524675949+523160432+521858476
3493+521405145+521904299+522733267+523381258+524244415+525469211+525782264
3480+524440324+523082381+522752657+521946601+520431887+520297091+521381609
3466+521456808+520737317+520890166+521600786+522232062+522936887+522776237
3453+521609032+521510209+522311183+521832355+520909958+520900820+521388741
3439+521757379+521110636+519959300+519595877+519721891+519665325+519510025
3426+519898320+521077605+521542615+519816881+517797753+517969323+519406744
3412+520041942+519686543+519274489+519078446+519106261+519704507+520069133
3399+519105192+517937363+518092574+518577420+518151993+517885522+518481717
3385+518769673+517928269+516582629+515719740+515854001+516543314+516485410
3372+515755311+515991694+517157473+517487286+516829487+516748494+517222686
3358+517114190+516628854+515976137+515013533+514495479+514510099+514370133
3345+514171371+513818424+513054002+512644354+513429014+514375304+513395092
3331+511372620+510500504+510511648+510735104+511182239+511823500+512168959
3318+511545038+510893614+511481964+512321897+511777632+510749546+510550651
3304+510210631+509415006+509176795+509505315+509572669+508876045+507697028
3291+506338729+505248059+505468217+506409782+506628156+506634530+506608632
3277+505880851+504970756+504319243+503786256+503148561+502537969+502838139
3264+503838498+504164255+503671920+503023260+502467941+501899070+501265521
3250+501335817+502238601+502495176+501381283+500318385+500519107+501058736
3237+500588378+499290344+498599025+498569873+498016827+497428522+497289313
3223+496867229+496411625+497093583+498111015+497460081+495965515+495784940
3210+496744335+496796978+495439303+494481647+495227749+496628083+496605483
3196+495623043+495588274+496298493+495801478+494187494+494124108+495784539
3183+496514148+495150009+494253555+495977907+497654831+496165212+493341856
3169+493941706+497370173+497475861+493281189+491474684+495171762+498098756
3156+495596966+492707727+495533000+500309693+498775231+493220299+493195871
3142+500221612+503400501+496804601+490640769+494213303+502182213+501943824
3129+494197791+491773205+499746840+506760901+500850837+490562718+490977669
3115+502068100+507133774+498097196+489663009+493901989+503885525+502800072
3102+491519794+487305509+496234438+505985870+500898533+488371038+486379992
3088+497642751+506567489+499367192+487754829+486549512+493840297+497098976
3075+490458679+483950235+486066939+493802987+495512228+487542026+480969617
3061+483022355+490465454+492310115+485465975+479636770+479465511+482089037
3047+482598979+480084484+477944913+477664222+478507320+478608818+477109705
3034+475823306+476651560+478790775+479283466+477594551+476923425+484266675
3020+515195178+574681399+621448807+610847546+571675773+540097630+520861237
3007+508444066+498920815+491834897+487675975+484990400+481769164+478899316
2993+478599145+482277412+486269133+483943192+477897886+475686772+480030013
2980+487147534+488010022+481794661+477101994+478421958+484415200+487547732
2966+482955938+477330086+477612114+485625376+493104492+488253671+477991405
2953+474480162+480007592+489292499+489961441+480813157+474114288+476304452
2939+485047457+489500265+483233687+475603282+474778728+481473853+489161760
2926+486443422+476510970+471467137+475109432+483253701+485016165+477382551
2912+470805506+471365862+477015027+480999304+478049442+472547643+470637323
2899+473821874+479158655+479642787+474465720+470453717+470994461+474692965
2885+477130121+474587098+470034576+468511749+470862429+473655028+473034673
2872+470141111+468610394+469351548+471281526+472307293+470828373+468340089
2858+467362374+468354665+469672758+469191121+467071520+465445234+465311151
2845+466106375+466680550+466175065+465155360+464839276+465492350+466407437
2831+466848376+466830724+466693343+466675691+467076824+467435611+466994092
2818+466087430+465462930+465403244+465642346+465638824+465234660+464723648
2804+464557828+464996449+465581099+465711125+465494266+465178361+464959140
2791+465043476+465183175+465080295+464709206+464422096+464758952+465388445
2777+465622242+465569643+465502959+465471265+465622732+465865222+465927583
2764+465909530+466043390+466314452+466473809+466292477+466023063+466020924
2750+466205911+466460570+466725080+466874764+466823503+466582974+466350068
2737+466213668+466112571+466092824+466272240+466765376+467337634+467538535
2723+467447602+467527481+467803447+467825066+467505594+467451970+467991243
2710+468470160+468483978+468607942+468994009+469144852+469046341+469031586
2696+469183722+469371339+469457058+469463922+469498379+469561676+469624304
2683+469701464+469855338+470105851+470336663+470579063+470968206+471407406
2669+471662645+471698795+471823294+472106793+472199153+472143434+472322850
2656+472721443+473168043+473764461+474389719+474740348+475046581+475598468
2642+476081709+476152406+476029511+476193326+476831065+477621252+478133868
2629+478406981+478639887+478805395+478911396+479166768+479836022+480699624
2615+481184336+481368789+481834021+482488521+482740416+482833088+483262884
2602+483616366+483733911+484159204+484920105+485571395+485984698+486215732
2588+486298419+486516749+487028518+487494152+487579202+487432683+487518847
2575+488012741+488713421+489311042+489643931+489829543+490079922+490680352
2561+491467686+491833248+491766118+491838909+492534151+493602220+494309363
2548+494592773+494805799+495097811+495596699+496104412+496196682+496073075
2534+496413140+497395581+498380517+498823417+498971318+499154880+499323865
2521+499462895+499741045+500070992+500134333+500097247+500311654+500754287
2507+501263248+501587979+501628498+501712478+502017373+502224247+502211410
2494+502278674+502475519+502627743+502864082+503307473+503686318+503748813
2480+503518537+503182706+503019739+503248232+503765395+504149456+504217567
2467+504134657+503986444+503779704+503740299+504038151+504263970+504115267
2453+503903356+503820891+503659350+503312465+503051075+503013721+502974851
2440+502803771+502642186+502609824+502625782+502596808+502371747+501891002
2426+501434016+501222551+501130191+500810274+500275548+499967131+499850255
2413+499559757+499066843+498481034+498023736+497842092+497781335+497722942
2399+497557032+497263727+497396561+499185815+503963488+512665349+525884965
2386+543355507+563686626+585202602+606511169+626394975+644314658+661457883
2372+679309767+697328809+713790968+728544866+742012277+751929440+756578112
2359+755964042+748040778+732830205+714416627+696851630+686347811+688334667
2345+697806968+699441144+690894004+681780266+675398906+672826732+675613002
2332+680714603+681690848+678428781+677327725+680471534+681919831+676456501
2318+665861302+655861050+652750004+656141340+657323789+650613107+637713587
2305+622956880+610923235+602826840+595923548+588126967+579175260+569118353
2291+558783563+549414275+541236931+533801633+527231987+522021399+518132915
2278+514985584+512001222+509127227+506677813+504756928+503312777+502228126
2264+501211853+500016699+498613646+497386131+496810529+496623358+496311954
2251+495876632+495458515+495223514+495281640+495398294+495332679+495199220
2237+495170781+495169221+495250304+495628837+496215270+496847750+497459635
2224+497937795+498318468+498802289+499401827+499898485+500373257+501147486
2210+502107059+502987823+503723583+504141789+504382540+504972361+505868058
2197+506627265+507291927+508123703+509015744+509794208+510626073+511489497
2183+512059482+512563629+513406013+514360772+515231150+516162863+517110401
2170+517897512+518511582+519069130+519681907+520418247+521134929+521475039
2156+521509540+521721095+522102258+522219179+521971876+521567354+521229607
2143+521134171+521153294+520977757+520505481+519846078+519100244+518059722
2129+516619939+515229055+514071211+512821943+511413006+509970637+508600392
2116+507320946+505805652+503976949+502180876+500568408+499157688+497796224
2102+496220397+494520383+493031255+491799906+490568824+489378173+488266910
2089+486814869+484965617+483209126+481791675+480649298+479622417+478514408
2075+477373814+476291748+475203798+474320137+473952881+473728087+472843401
2062+471477836+470453539+469875397+469451174+469058510+468657421+468223257
2048+467939669+468094167+468721966+469512286+469849722+469763780+469978634
2035+470651988+471469500+472225052+472937945+473676870+474359096+474922840
2021+475572436+476471075+476913262+476227248+475112463+474251179+473465405
2008+472582635+471612899+470457194+469022537+467459191+466027967+464974741
1994+464315472+463266035+461353129+459231165+457127789+455193933+453744165
1981+452444928+451071340+449814716+448761223+447800045+446941391+446343368
1967+445596642+444213826+442712217+441615531+440855655+440256518+439494770
1954+438533949+437839109+437529043+437309108+437272200+437556457+437369151
1940+436425179+435655007+435338433+435132450+434752579+434327999+434177691
1927+434516286+435479603+436362194+436454109+436196107+435959055+435906635
1913+436043837+436233550+436490170+436603035+436599068+436863444+437204222
1900+437357517+437634998+437922554+437833002+437673823+437461377+437076247
1886+436985179+437106558+437414975+438091985+438396523+437962270+437808530
1873+438881993+440610803+441177266+440540641+440843530+442099039+443045329
1859+443080276+442631759+442540246+443154583+444595302+446797056+448759084
1846+449508127+448992257+448021540+447335481+446930381+447015163+447542400
1832+447173138+445007178+443212130+443141032+442710390+441234902+440100281
1819+439612672+438347223+436147609+434364195+432656959+430542752+428549833
1805+427560127+428095967+427589324+424351149+421677744+420449070+418899141
1792+416769822+414970807+414238969+414158332+413438039+412149367+410914095
1778+409426483+407895097+406269301+404384969+404447419+405827292+405478045
1765+404308388+403770676+403717453+404090459+404012586+403828089+405114043
1751+406570764+405705334+404397851+404574325+404491058+403011959+401567317
1738+401821085+402933774+403282309+403302368+403336289+402756364+402727881
1724+403630041+404449380+405088100+405910782+406602680+406763820+406786464
1711+407068894+407405749+407378603+407792307+409209401+409658497+408482556
1697+408542376+409599702+411112411+413317508+415636807+417088402+417012802
1684+416970857+419637264+422138787+423122252+423324268+423853109+425142183
1670+426542294+428140899+430354867+432340252+433762160+435726417+438537069
1657+441135053+441865776+440209357+441822405+444928280+446693953+448665074
1643+451915240+454866305+456780592+457258350+456711902+458454039+461724531
1630+464296616+466056406+467928391+470165850+472893593+475555854+476769685
1616+477440365+480391252+484166648+487022723+489104882+491348804+494095357
1603+496901730+499406596+501896262+504488095+507104310+510157274+513605889
1589+517039036+520605553+524625267+528904988+532841079+536037709+538495459
1576+541656430+546572152+551153025+554964527+559532563+565071626+570435911
1562+574783654+577769577+582268743+590925228+599585278+607926035+615823713
1549+622940120+629997375+637430756+642312602+643895650+651297561+662159053
1535+670745777+677796480+684381325+690870869+697569560+703789512+708655845
1522+714347446+722625753+731994462+740995647+748733657+756549940+764735932
1508+769294205+768006424+772754498+781629625+789198604+794233120+798998490
1495+805114493+811069043+816499566+821187019+826201921+832674527+839454880
1481+845377693+850317174+854491208+857113842+858089506+861060006+867799707
1468+874573730+879116758+883354267+888394400+891100657+890360439+893782220
1454+903511052+911821231+917286790+920916470+924824211+929750141+934995320
1441+940535231+945482646+948789155+952819567+958421794+963154713+967497064
1427+971777187+974450102+977556824+982119554+985026579+987832328+993537168
1414+998514449+1000220079+1000419064+1002002558+1004833180+1007431476
1402+1009040824+1007779163+1004278485+1002617697+1003219018+1004788337
1391+1005729233+1004083245+1000386434+999606455+1003644891+1007984388
1379+1009025668+1008418017+1008345894+1009415613+1011489168+1013031653
1368+1013873502+1014501123+1013306593+1011170989+1011191940+1013388790
1356+1015632177+1014794963+1011191940+1008432370+1008580984+1010346702
1344+1011000266+1009327443+1006413821+1004484601+1003739480+1003921080
1333+1004580705+1004438778+1004873565+1006336884+1006908340+1007181052
1321+1008250681+1010016132+1012640103+1015199173+1017274511+1020022134
1310+1024325793+1031014499+1038202805+1042069091+1043152182+1044585992
1298+1047200157+1049389786+1050404321+1051614006+1053693891+1055521390
1287+1056081167+1056739545+1058509809+1059858837+1060678667+1062044633
1275+1063300142+1063803754+1063991772+1064115959+1063477997+1061376984
1263+1058877110+1057451502+1056597706+1055391498+1054736775+1055991571
1252+1058549481+1060285423+1059691323+1057729295+1057617857+1060271783
1240+1062975009+1063999439+1063658527+1062921073+1063470598+1065255750
1229+1065870712+1064553867+1062771656+1061882379+1062579091+1064480318
1217+1066259408+1066982420+1066707212+1065981615+1065745722+1066351947
1205+1066881145+1067418100+1068913423+1070139512+1069514923+1068921714
1194+1069773995+1069847811+1069126315+1069885166+1071562624+1072861728
1182+1073741823+1073704647+1072716590+1072379155+1073070519+1072643844
1171+1070455462+1068996066+1069365150+1070105011+1070875095+1071065788
1159+1069257723+1066237656+1063125050+1060436890+1058655838+1058100519
1148+1058659493+1058291212+1055989788+1053274972+1051318204+1050004302
1136+1047614084+1043727561+1039869210+1036117661+1032017355+1027798567
1124+1024125560+1020880209+1016836068+1012510924+1009058475+1005287581
1113+1000098745+996072434+994793211+991603847+984214595+977622082+974159738
1099+971261361+968797593+968420486+968546278+966744008+963257950+960175923
1086+958387739+956066880+952531165+949201655+946705437+945270290+944286958
1072+942414081+940187632+939029298+938347117+936741335+935019301+934821298
1059+935588439+935096149+932473248+929699682+928618730+928541793+928115653
1045+927058326+925624605+923654821+921800666+921443350+922092724+922043067
1032+920528308+918827848+919145046+920732730+920615676+918588568+917516710
1018+918639740+920112064+921064282+922265498+923123305+923137659+923073203
1005+922728011+922093169+922461540+923575656+924431859+925289220+925553820
991+924864061+924672744+924878414+923936448+922616216+922354916+921668188
978+919133992+916229285+914160366+912567154+910912696+908908768+906671176
964+904597086+903097215+902027229+900759507+899345666+898450148+898324089
951+898918011+900143921+901564002+902742128+903824328+905482530+908058806
937+910852520+913005241+914794584+917073363+919972454+923152368+926290471
924+929233602+931819863+933351293+933916686+935000758+937414690+940082167
910+941365669+941069332+939940061+938654063+937716198+936308776+933959746
897+932535832+932731161+932863995+932005653+930880750+930682657+931277559
883+931534046+931436158+931782419+932753627+933512834+933512120+934017515
870+936347111+939684199+943104018+946915387+950858698+954019267+956153445
856+959023918+964559550+970709251+973553692+973278305+973828543+976847274
843+979587854+980234731+981140413+983378451+984899183+985395395+984985391
829+984272453+985994131+989382569+992270426+995577202+999231488+1002022438
816+1004423711+1007540240+1010167420+1010614868+1011213603+1013708395
804+1015633960+1017245537+1021062879+1024966340+1026760943+1029372879
793+1034309240+1037409543+1036677616+1036985721+1041127304+1045980309
781+1047950806+1046087111+1044380054+1047197483+1051787404+1053431877
770+1052745239+1053215776+1056117452+1058646299+1057538691+1054902506
758+1054713596+1055738740+1056224611+1056990593+1058064591+1060061120
746+1061588360+1059639081+1055324189+1051869690+1051837596+1053205256
735+1051646635+1049109853+1047687990+1046422674+1046755919+1047508084
723+1045555060+1042613445+1041294996+1041078271+1041558169+1042456005
712+1040057585+1034600495+1033504833+1036848874+1037441548+1035506622
700+1035076916+1035503502+1035749201+1036454294+1037573758+1038099391
689+1037007652+1035900133+1037700976+1041420698+1041333955+1036060604
677+1033325016+1036371205+1040150658+1040272438+1033418090+1025234773
665+1027419142+1033791542+1037319233+1034056854+1025814965+1023957333
654+1031594602+1038984122+1040286970+1037593461+1040078624+1048824482
642+1045173317+1027828255+1019070272+1021378918+1023087044+1023332387
631+1023141694+1021239130+1018145780+1013868242+1007915475+994635861+980798520
617+985831342+1008423188+1028195555+1027445174+1015944561+1013961494+1007793695
604+991968473+991955279+1006682343
##END=
