##TITLE=Sample description
##JCAMP-DX=4.24
##DATA TYPE=INFRARED SPECTRUM
##DATE=24/8/2023
##SAMPLING PROCEDURE=Instrument type and / or accessory
##ORIGIN=Default
##XUNITS=1/CM
##YUNITS=ABSORBANCE
##RESOLUTION=4
##FIRSTX=4397.6552
##LASTX=599.8556
##DELTAX=-1.9287962
##MAXY=1.414664
##MINY=0.40366253
##XFACTOR=1
##YFACTOR=1.3175085e-009
##NPOINTS=1970
##FIRSTY=0.65199995
##XYDATA=(X++(Y..Y))
4398+494873412+495558578+496295409+496552375+495665662+494757054+493874458
4384+492385189+491446857+491411796+491189394+491037431+491457308+491986756
4371+492249422+491551498+489913840+488967320+489447637+490328016+490417321
4357+489971386+490413113+491703144+492371843+491869991+490549468+489002517
4344+488257271+488742837+489640135+489911895+489079019+488354176+489232700
4330+490365385+490210074+489634028+489045586+488163850+487672449+487598616
4317+487270397+487044783+487598480+488599832+488688910+487782066+487387705
4303+487594499+487775551+487968230+487783016+487206155+486862102+486426572
4290+485659974+485380976+485605097+485803069+486081117+486474030+486577268
4276+486247420+486007013+485763393+485276832+485208655+485556373+485514164
4263+484504035+482976719+482201569+482553630+483303943+483559461+483162159
4249+482804941+483060368+483711649+483819186+483263000+482996217+482707267
4236+481580780+480365306+480060385+480808300+481616656+481472972+481364576
4222+482144069+482821046+482715862+482017712+480946690+480163805+480446422
4209+481057529+480713974+479999718+479929505+480211624+480591870+480990347
4195+480941488+480551515+480474064+480890773+481022423+480279123+479668648
4182+479808984+479538220+478557137+478215707+478655987+478362648+477339445
4168+477363016+478410739+478646532+477989505+477854508+478197023+478167526
4155+478120250+478648205+479083780+478704666+478185396+478215390+478510901
4141+478699146+478539764+477923318+476928934+476093976+476231507+477012674
4128+477428750+477183502+476647538+476368541+476085290+475254269+474378233
4114+474003643+473932841+473945328+473923658+473837836+473902983+473965822
4101+473748532+473691800+474059334+474462335+474768161+475104795+475446360
4087+475584524+475257888+474787071+474730430+474701114+474187771+473413572
4074+472806038+472834540+473248580+473325851+473121047+472903984+472785725
4060+472920135+473190175+473283008+472836214+471904985+471385398+471715880
4047+471969543+471722349+471704886+471903401+471789576+471398970+470910555
4033+470755154+471153496+471277138+470602468+469731544+469365278+469531808
4020+469645678+469519502+469452230+469551894+469721094+469604600+469423321
4006+469797369+470247014+469993396+469344829+469017560+469024346+469125956
3993+469250096+469275475+469389934+469635996+469582884+469152060+468613020
3979+468248608+468262633+468515210+468734762+468508877+467574345+466701431
3966+466528477+466473781+466403930+466914785+467439710+467262322+467185685
3952+467674869+467657180+466890581+466619455+466258527+464997948+464908191
3939+466546166+467888404+467688306+465926010+464457506+465268622+466816568
3925+466731380+465861724+466098693+466360002+465218269+464349381+465064904
3912+465892397+466303451+466512552+465199313+462716021+461642285+461265930
3898+461406447+463327491+464957322+463382775+461570669+462918517+463517953
3885+462051847+461883643+461845143+461844691+463048719+463547224+463119023
3871+461453497+459406096+460561537+461835507+461213632+462298859+464798257
3858+466458083+465229670+458195372+454605635+458612670+462992350+465404976
3844+465347521+463335544+460708930+458477853+458153796+459118050+460108408
3831+461214265+461927888+462158569+463482801+464008947+460497612+458591904
3817+458806977+458544990+461101617+464832594+465973513+463335951+461116410
3804+461161334+459615514+459112033+460971279+462043341+463243434+464761069
3790+465589422+465826119+465032829+463886391+463807673+463532656+462714574
3777+463144086+464584179+465885384+465702839+464421359+463680411+463168561
3763+463704434+464709857+464198324+463762206+464303327+463197108+458171440
3750+454875539+458225457+460939792+458872712+458881262+461646311+462310938
3736+458719256+454983528+455775190+459543491+462932859+463686881+462735520
3723+462352786+462388209+462667207+463755691+464865620+463100927+458486313
3709+457500162+460192827+463210861+464241166+462836994+462537955+464285638
3696+466119865+466942291+465769659+462357989+461017605+463697557+466803448
3682+467606873+466253687+464133675+459314575+455180188+456546132+456260937
3669+454063519+455839160+458736402+459634425+459045982+458234867+456551878
3655+455508815+456881183+456008902+448898601+444798416+446858981+448941308
3642+448723520+446623324+443870128+441024233+438528953+436455358+430473669
3628+420474404+418062456+420437488+421408710+418387056+412622657+409335262
3615+407544465+405454946+403917540+401163349+397528823+395967576+395351176
3601+394052640+392647879+391110157+388456037+385641178+384627024+383569846
3588+379057724+374884974+374509976+374690847+373738717+372417018+371087357
3574+369612564+368690519+368408920+366014684+360737411+358112629+358208426
3561+357985119+357341190+356762700+355603324+353611908+352277814+352402474
3547+352305863+350787639+349203636+348710131+348508336+347457718+346155653
3534+345811012+345526336+344240264+342901781+342383235+342096321+341540927
3520+341046132+340623315+339804305+338507013+337066603+336085655+335908878
3507+335805481+334621539+332765099+331763001+331471313+331186185+330984187
3493+330704986+330098244+329497948+329216259+329005529+328289418+326992217
3480+326171872+326068521+325669568+324803146+323869406+323197699+323115882
3466+323176549+322763685+322245569+322105460+321902556+321065993+319976038
3453+319415215+319193560+318702950+318356725+318396831+318035518+317297126
3439+316731734+316331176+316223526+316274331+316155959+315979431+315462469
3426+314505046+313824155+313697233+313784796+313962342+314391832+315057590
3412+315439645+315000496+313971412+313225013+313174412+313367249+313475419
3399+313533553+313687574+314146968+314703991+315173971+315670462+316135918
3385+316533084+317030163+317823974+318762147+319465523+319951540+320673691
3372+321889301+323309172+324702260+326124189+327500312+328729811+329848652
3358+330999523+332381053+334003668+335630808+336954520+337829877+338599756
3345+339693737+341087504+342618553+343923785+344561969+344773943+345012043
3331+345315064+345641496+345938703+346240343+346428498+346071008+345485122
3318+345337435+345414728+345378853+345410589+345883238+346804921+347476809
3304+347302973+346575982+346171555+346600683+347462468+347992143+348176928
3291+348666112+349437213+350097859+350838897+351764742+352698866+353706506
3277+354623236+355029495+355323535+356141527+357178935+357990797+358634591
3264+359375991+360188192+360615533+360719337+360926425+361064974+361046290
3250+361317981+362045741+363036642+364002028+364608408+365042852+365479942
3237+365441148+365250980+366014752+367449235+368215381+367973142+367309623
3223+366767846+366782368+367506102+368626934+369552485+369761993+369425585
3210+369191647+369119466+368923349+368875598+369184997+369552711+369844557
3196+370243080+370820031+371310596+371699912+372214680+372497591+372457372
3183+372798169+373464243+373739961+373846095+374330620+375055982+375744383
3169+376221398+376538850+376872883+377039684+376927352+376739198+376667016
3156+377103948+378192320+379059307+379184917+379288654+379656594+379915912
3142+380098774+380174597+380031728+380142069+380501142+380398356+380154103
3129+380298601+380286431+379926363+379671704+379568421+379476877+379649672
3115+380248158+380839541+381120122+381312032+381480055+381443998+381310539
3102+381296333+381454675+381692458+381731591+381524888+381422011+381602113
3088+381762310+381819991+382270224+383006874+383400420+383478279+383374090
3075+382951545+382523254+382530175+382760902+382775695+382713761+382962267
3061+383457152+383950182+384295547+384513199+384701128+384678191+384500893
3047+384301971+383992074+384022883+384449455+384655797+384534190+384186111
3034+383797133+383675165+383761077+383884402+384097077+384265010+384184527
3020+384217191+384555227+384870282+385225555+385636745+385676918+385570739
3007+385937051+386489255+386677863+386679717+386821546+387248254+387960112
2993+388691061+389314294+389903414+390443449+391097581+392055682+393067801
2980+393814268+394235909+394305986+394179042+394220346+394338197+394221251
2966+394038841+393880410+393534049+393112906+392930044+393071827+393375934
2953+393559564+393550154+393655610+394058340+394568290+394959936+395130040
2939+395210659+395209618+394852310+394522824+394767665+395007665+394640539
2926+394126608+393972700+393974102+393784952+393415655+393005867+392727186
2912+392668147+392764962+393169049+393839603+394256493+394333266+394504275
2899+394853350+395153792+395434554+395747346+395907045+395850449+395731738
2885+395823169+396217892+396612252+396932328+397304883+397450919+397231277
2872+396963228+396901384+397058866+397263805+397409434+397660473+398108851
2858+398374141+398081345+397532443+397111164+396781180+396509828+396426088
2845+396762858+397493943+398214352+398701184+399041347+399372009+399723210
2831+400129922+400805225+401821144+402734956+403129316+403364883+403709661
2818+403796658+403775395+404091445+404593432+405084472+405567142+405901242
2804+406126992+406514160+407048630+407596039+408040617+408255328+408385349
2791+408532697+408661858+408933572+409419047+409899591+410158728+410317205
2777+410707585+411284808+411638814+411729657+411925819+412359539+412851845
2764+413211959+413437799+413734441+414201955+414595864+414685530+414835728
2750+415481671+416270076+416680316+416825809+417005323+417205377+417455963
2737+417883078+418279746+418462337+418700211+419272004+419939074+420399803
2723+420902876+421664408+422473443+423060709+423346402+423553784+423948688
2710+424531249+425082277+425479669+425843900+426269703+426700120+427042952
2696+427305256+427553671+427877366+428291904+428621978+428850895+429116502
2683+429400114+429588359+429626225+429659794+429837408+430063700+430289405
2669+430705843+431179103+431175257+430702224+430408659+430745383+431341018
2656+431542881+431573373+431995512+432671404+433154707+433316758+433391269
2642+433660314+434085529+434467358+434811864+435070187+435142074+435350722
2629+435920435+436435904+436674729+437069587+437784431+438391829+438724482
2615+439048403+439524468+440133766+440748131+441182168+441514594+442098829
2602+442996354+443777928+444262679+444767245+445320400+445693859+445972767
2588+446327180+446793790+447368705+447973434+448542830+449046130+449270432
2575+449210262+449407329+450130995+451011328+451641708+451894467+451977664
2561+452198935+452605782+453142695+453718651+454099349+454210143+454210686
2548+454359301+454858484+455526187+456025551+456244017+456367885+456659505
2534+457074224+457519118+458050874+458691659+459295302+459651028+459861667
2521+460092620+460396726+460818366+461192867+461466707+461826730+462373913
2507+463045960+463567672+463704660+463660641+463851239+464379059+465001703
2494+465370458+465389459+465417734+465685376+465909543+465801056+465609689
2480+465734281+466021106+466176506+466168544+466043364+465991021+466041554
2467+466010293+465987130+466031194+465840415+465361726+465038303+465074812
2453+465139325+464968090+464701126+464552059+464468997+464253743+463831333
2440+463384494+463192358+463160282+462968870+462560349+462059673+461633735
2426+461276019+460844832+460389985+459862527+459264675+458888636+458640040
2413+458248303+457824853+457488083+457235144+457013059+456620598+455978546
2399+455325410+454803064+454293476+453692909+453005345+452426901+452052672
2386+451484181+450284903+448508854+446384319+443781456+440631094+437393916
2372+434245001+430883457+427451021+424277405+421398711+419026032+417687866
2359+417592951+418368056+419856782+422463942+425898369+428274939+427876823
2345+425195107+422735023+421727926+421586188+421653415+421579628+421589219
2332+421879436+422361066+422974978+423627300+424397609+425591684+427063989
2318+428305703+429210737+430006697+430838352+431693215+432556900+433410225
2305+434070192+434412798+434603984+434896282+435361806+435828642+436128270
2291+436338999+436642608+437141293+437835507+438501582+438847581+438958284
2278+439014156+438995608+439094006+439523156+440059481+440465107+440899144
2264+441422847+441809788+442041464+442295987+442761194+443466900+444221827
2251+444937621+445669294+446403546+446922544+447188151+447558217+448174256
2237+448844538+449451620+450133800+451003773+451845019+452493857+453097002
2224+453777645+454469642+455192901+456071153+457018126+457904386+458875200
2210+460005170+460982318+461634277+462268639+463202401+464353136+465389549
2197+466186414+466996806+468060046+469243671+470388797+471550435+472829337
2183+474267575+475614247+476662513+477714715+479110382+480667331+481942704
2170+482940255+483916272+484940063+486167571+487652769+489156153+490534177
2156+491743046+492770139+493717248+494621151+495453485+496086851+496409686
2143+496708545+497134166+497361997+497194970+496769891+496305181+495748905
2129+494913857+493840890+492659889+491460158+490236857+488934340+487446382
2116+485533527+483212557+480888647+478802928+476803980+474695369+472454565
2102+470194173+468078731+466070146+464003066+461918342+459899081+457848152
2089+455639152+453341572+451117870+449021519+447106673+445354602+443550097
2075+441637965+439894128+438391467+436764531+434854842+432884938+431067404
2062+429515794+428119538+426623347+424906382+423104502+421501045+420132703
2048+418778250+417272378+415671500+414112198+412571264+411104253+409852903
2035+408674435+407312879+405799452+404304753+402884566+401586528+400404938
2021+399236649+397925311+396439525+395121083+394109552+393062870+391879923
2008+390827179+389954581+388960966+387655192+386257443+385100917+384212712
1994+383246557+381928071+380666406+379826020+379057905+378120297+377099470
1981+376171543+375396846+374614255+373769390+372874806+371887569+370771850
1967+369649593+368905660+368542786+368058375+367268205+366401716+365587071
1954+364834293+364095721+363277955+362421350+361584063+360614561+359681115
1940+359292975+359090207+358580800+357980460+357429273+356825630+356194232
1927+355571565+354693494+353637469+352980284+352358726+351559531+351308492
1913+351306705+350847221+350167710+349777375+349570220+349338905+349106347
1900+348822101+348396660+347775215+347172703+346710912+346046488+345501477
1886+345560696+345771449+345779977+345589718+345334404+345139553+344978452
1873+344679006+343572832+341666401+341007678+341995367+342888571+343044899
1859+342799266+342438564+342140860+342025044+341956369+341624734+340873291
1846+339554714+338266334+338580167+339667973+340045323+339855495+339582559
1832+338716318+337001661+336038266+336266459+336419688+336574003+336819681
1819+336738203+336398809+335984701+335311886+334299020+333637221+333667057
1805+333780543+333330061+332166975+331128526+330836974+330507760+329193186
1792+327656527+327927834+329065586+329429748+328988202+328267251+327585364
1778+327312384+326972764+325446963+322906351+322322885+323956879+325390774
1765+325839423+325213115+324386482+324439775+324653287+324882973+324797559
1751+323113167+320790479+320452013+321312938+321715170+321228248+320547628
1738+320728884+320473072+318292348+317741817+319621421+321340670+322144118
1724+322034975+321650929+320926291+318371881+315423856+316416997+318959916
1711+320382636+320310772+318881582+317380459+317046743+315834933+313213862
1697+312869853+314710075+317039052+318449490+318394229+317488290+315112964
1684+311818783+312928236+315763363+317178619+316638245+315208286+314269162
1670+313146951+313092934+314691798+315167388+314013373+313749440+314443790
1657+314391719+311974862+306809220+306383236+307661301+307123618+308253475
1643+311480610+313746206+314234259+312811222+311697832+315240678+320066089
1630+323558492+326169791+328741325+331627573+335681115+339961515+342982671
1616+346508212+352185274+357604874+361786016+365561578+369634008+373520794
1603+377079813+380797784+384675974+388328505+391918423+395764899+399641325
1589+403551455+407626576+411637683+415396076+418984682+422118984+424426653
1576+427810094+433259891+437834874+441562821+446648930+452494219+457389278
1562+460538554+461320716+463621463+472110964+480547851+487687423+493794473
1549+499730152+504986501+508548461+510162820+512014827+521133035+531931517
1535+539452149+546307295+553964055+560695197+566345319+571737027+576647921
1522+582073876+589009550+596271859+604466800+613093153+620170520+624666513
1508+626443829+631267046+642368955+651795521+658494316+663214340+668545110
1495+675999962+682335884+686399514+691298554+699958114+709083877+716465621
1481+723081897+729473283+734881052+738912698+742840743+749659289+758357349
1468+765699417+771425316+778164782+786430479+793289651+797270627+803334021
1454+814636978+825590771+834838094+843703227+853447290+863312507+872797886
1441+881522954+888331638+894451943+902837256+911801646+918901678+925953393
1427+934520844+942185657+948747238+955040090+959452751+962646724+967893528
1414+974152993+979574605+984127963+987606319+989384991+990442712+992583760
1400+994293034+993091087+990770796+990883354+994206987+997064915+995850843
1387+992098783+992210436+996803787+1001401209+1004675168+1006608201+1005885350
1373+1004591202+1005752976+1007996268+1009747525+1010186990+1007825892
1362+1005056998+1005922809+1008041146+1008346338+1007497899+1006955105
1350+1006241573+1005683216+1006000984+1006131277+1004918471+1002047152
1339+999562729+999852539+1001804664+1003123784+1003315513+1003342838+1003124055
1325+1003372516+1005696154+1009600584+1013363139+1016149859+1018267382
1314+1020280219+1023693066+1029083915+1034133742+1036981355+1038698681
1302+1041276933+1044292931+1046482749+1048822312+1051570306+1053659237
1290+1056058699+1059236567+1061242527+1061975965+1063254731+1065679437
1279+1068561161+1070577346+1070372316+1067574467+1063941481+1062346937
1267+1062848924+1061768312+1057918351+1055092725+1055380997+1056954188
1256+1057541499+1057425864+1058325968+1059859256+1060912363+1060976785
1244+1060315732+1060442948+1061508360+1062279076+1062395796+1062115848
1233+1061962755+1062481753+1062866387+1061989809+1060840792+1060572064
1221+1060827673+1061339342+1061564368+1061410912+1062541199+1064856151
1209+1066398126+1067239960+1068206838+1069042429+1069379922+1069269988
1198+1068853233+1068978006+1070335762+1071081324+1070214156+1069813145
1186+1071302731+1073504130+1073741823+1071571278+1069379560+1068256422
1175+1067715799+1068282028+1069670456+1069507772+1067476567+1065640077
1163+1065446177+1066441828+1066034393+1063347202+1060902500+1059594147
1151+1057536251+1055012107+1053646479+1052250541+1049730287+1047560918
1140+1046455966+1045049984+1042618402+1039228809+1034717796+1030196649
1128+1027138034+1025621937+1024011740+1020094281+1014781608+1010050455
1117+1005331697+1000795440+996838713+991672256+984728666+978386954+974485238
1103+970922646+966001573+961793852+959064045+956465887+952768749+948460685
1090+945421343+942561876+938073393+933680367+930805519+927475643+921873069
1076+915772217+911450852+908020542+903779071+898864061+893933036+889629133
1063+887102636+886000942+883437438+878728544+874880031+872894248+871283237
1049+868597041+864208992+859928524+857925459+857854793+858033583+857881485
1036+857365563+855671038+853322336+851765432+850902516+850126191+849538156
1022+849087470+848350323+847685198+847644301+847981523+848158232+847934744
1009+847868513+848624390+850004403+851149710+851432644+851394913+852054790
995+853148432+853506465+853002939+852210055+851280545+850533083+850313395
982+850062130+848730614+845968415+842541453+839726232+837809214+835696667
968+832686731+829475385+827224674+825746760+823999032+822631595+822653129
955+823462118+824332996+825266216+826932873+829864453+833070732+835537149
941+838385848+843043531+848296577+852347224+856133485+861102965+866474542
928+870282337+872066801+873773812+876703763+880125930+883213408+885480405
914+886608521+886839428+886307038+885337265+884951273+884579759+882779190
901+879900633+877057000+875282671+874429075+873342762+871541559+869116673
887+867302984+866519691+865367237+864090100+864014367+864721385+865039334
874+865342717+866311133+867081306+868029183+870848567+874363567+877006603
860+880163389+884487469+888898772+892822293+896704554+901089799+905643700
847+910473206+914797286+916663182+917814008+921581087+927487134+934048895
833+940267101+943010209+941700770+940420738+941884627+945024494+947334108
820+949341335+952783679+957075366+961086925+963676668+965277727+967545538
806+970650932+974163579+977741916+981079211+984536575+988593374+994920519
793+1006108114+1016794625+1018777966+1016761419+1016642799+1017818688
781+1022175612+1029637115+1035948064+1039660312+1041122482+1040543224
770+1040527480+1042702459+1045158380+1047026629+1048522096+1048572947
758+1047095304+1045617842+1045601737+1047791826+1051203496+1053406343
746+1052381014+1048277165+1044500313+1043376632+1042800631+1041555433
735+1042043668+1043838355+1043415448+1042186356+1042736570+1042739375
723+1040986761+1038156792+1033943732+1030688502+1030577844+1031094581
712+1031317073+1033868723+1036997913+1035306464+1029006735+1024128008
700+1023584942+1024709709+1025049012+1025143293+1024813310+1024407051
689+1026999598+1030863040+1030814542+1027779181+1025623113+1025057246
677+1026214496+1030084181+1033144424+1031352994+1027058501+1027314834
665+1034432148+1041598231+1044686613+1042900702+1037606397+1033243410
654+1034437124+1039384707+1041762453+1038677418+1033094388+1034094021
642+1045129427+1050415318+1038691895+1025002234+1024310236+1031291105
631+1034616457+1033064077+1028939055+1024254409+1022856299+1025928215
619+1029013340+1028133504+1029558035+1032469980+1029545910+1030544819
608+1040229436+1037262750+1013141099+996604820+1003952045
##END=
