##TITLE=Sample description
##JCAMP-DX=4.24
##DATA TYPE=INFRARED SPECTRUM
##DATE=24/8/2023
##SAMPLING PROCEDURE=Instrument type and / or accessory
##ORIGIN=Default
##XUNITS=1/CM
##YUNITS=ABSORBANCE
##RESOLUTION=4
##FIRSTX=4397.6552
##LASTX=599.8556
##DELTAX=-1.9287962
##MAXY=1.2846202
##MINY=0.3426359
##XFACTOR=1
##YFACTOR=1.1963958e-009
##NPOINTS=1970
##FIRSTY=0.48776996
##XYDATA=(X++(Y..Y))
4398+407699506+407477757+407274042+406840482+406307855+406842425+408344578
4384+409038673+408305096+407336292+406919821+407033884+407487098+407256954
4371+405769822+404381333+404018070+404192963+404382604+404233392+404063182
4357+404237278+404240716+403770264+403093681+402732136+402858057+403048494
4344+403200246+403325918+403412480+403572602+403517825+403316851+403376162
4330+403463596+403315854+402963925+402587409+402396547+402424372+402895198
4317+403685844+403898900+403254476+402497857+401868180+401128873+400792288
4303+401166313+401281049+400551607+400250344+400847887+400669880+399746438
4290+399624678+400014271+400049046+399882671+400243369+401216233+401465558
4276+400422622+399510988+399394234+399245994+399076232+399200110+398897278
4263+398019820+397773808+398698670+399556798+399345884+398544053+397804398
4249+397583146+398079081+398609019+398774920+398863550+398377654+397379033
4236+397199456+397555546+397074358+396080595+395727843+396060517+396301697
4222+396504714+397316285+397962951+397148864+395484073+394598021+394787039
4209+395078138+395214571+395758084+396543997+397034377+396891916+395900943
4195+394996060+395413951+396509796+397023641+396736428+395923612+395318820
4182+395289849+395318047+395188565+395033475+394942627+394840272+394634689
4168+394590997+394532533+393850569+393048091+393419276+394654766+395022938
4155+394196471+393297540+392865699+392968578+393810962+394582353+394006606
4141+392898805+392682311+392469703+391438675+390802845+391253767+392037987
4128+392402770+392323556+392143581+391984804+391817333+391435063+390937335
4114+390977515+391551692+391844112+391627469+391319356+390709283+389609079
4101+388676221+388560165+389190689+389482436+388983736+388627995+388551098
4087+388424355+388706736+389107888+388753368+387993784+387507415+387401821
4074+387755918+388216829+388096812+387504874+387064464+386573162+385873786
4060+385827354+386391244+386470109+386116187+386050474+386044620+385753795
4047+385387542+385070361+385008460+385248244+385154483+384268331+383317165
4033+383198045+383549277+383650312+383571123+383637658+383400564+382489552
4020+381751067+381755526+382159369+382596715+382947947+383043702+382430714
4006+381640616+381573708+381673074+381499376+381629282+382098862+382140113
3993+381485850+380939048+381071994+381408031+381394355+381092096+381079840
3979+381528247+381529318+380773297+380100799+379689583+379297474+379034573
3966+378833748+378413813+377718548+377419079+378089783+378923200+378624553
3952+377143224+375483416+374986434+376071393+377010902+376989156+377544177
3939+378625449+378919613+378174801+376644300+375583529+376197289+376928798
3925+376021822+374956916+375090359+374627605+373483260+374370084+376752036
3912+378074364+378076431+377166266+374329406+370374108+368892555+369858942
3898+371966061+374636622+375565021+373539831+372369580+373672178+373346554
3885+371484176+371545554+372308500+373909995+376061255+375854800+373735873
3871+371720772+370895725+371333619+370052917+368872951+371711057+375043852
3858+375871490+373436006+366683205+364577381+369303796+373765466+375675049
3844+374950041+372975368+370738243+368247235+367909379+370068062+372534161
3831+374593602+375970881+376523686+376761228+374808825+370410925+370372962
3817+372466505+373686850+376814287+379801479+379293513+375281619+373166578
3804+373809209+372799902+372691817+374876905+377141381+379594900+381418244
3790+381957323+381901773+381404244+380954493+381384142+381495864+381347076
3777+382559400+383996612+384053183+382318295+380945326+381471850+382421921
3763+383512534+383737472+382452809+382492989+384034201+383494798+378888600
3750+376661837+380528729+383692385+383672582+385702704+388694430+388093325
3736+383802762+382983419+388611804+395617018+400770392+403249818+405441731
3723+410512553+417801967+426446090+436331360+446545342+457281490+471958962
3709+491068187+509553115+525173135+537989175+549285501+560957670+572746817
3696+583107122+589684680+590443043+585379420+579948074+579183982+580223032
3682+579867814+577001111+571966932+562892885+554334228+552327571+547772612
3669+541719610+542118919+544165631+543911947+542063768+539617448+535537823
3655+532067898+531062527+527385051+518478848+515038615+519139164+523378512
3642+524914269+524843574+525110262+525782136+526354022+526556442+523462360
3628+518530013+520300522+524527665+525511115+522421068+519785531+521394673
3615+523339902+523386434+522667678+520630531+519244833+520992375+522423111
3601+520988639+519332815+519203183+518748225+518472172+520008078+520387508
3588+517207736+516436968+520230774+523630104+524663574+524506142+524077440
3574+523968881+524528960+524240949+520549623+516178102+517570775+521941250
3561+524861161+526513945+528337911+529303078+528327051+527284514+527039000
3547+526044390+525807196+529103050+533910148+536971399+538082189+539121837
3534+540862902+541978526+541584149+540723705+540149278+539752211+540608122
3520+543120205+545522384+546718467+547347795+547834389+548233399+549367106
3507+551369728+552483109+552187576+552616876+554036502+554786445+554877168
3493+555292718+555643751+555439339+556112957+558122304+559279179+558885948
3480+559047864+560672798+562113100+562328970+562168101+562144536+561868234
3466+561486163+561393447+561233873+560996480+561223262+561824242+562376449
3453+563185031+564505265+564684767+562871163+561543007+562139903+563583393
3439+564835722+565377816+565263229+565245892+565870836+566980929+567566615
3426+567257531+567530994+568607259+569114129+568964719+568747503+568889540
3412+569181885+568891931+568194698+567879785+568525155+570006807+571175290
3399+571107136+570345933+569860286+569749137+569561714+569098386+568745709
3385+569038004+570086669+570870490+570584771+570754558+572129495+573365384
3372+574552251+575986673+576466043+575967442+576087559+577451237+578622808
3358+578432246+577793700+577832759+578338335+579001541+579999738+580816141
3345+581067633+581593286+582436542+582607575+582134682+581720576+581523438
3331+581532455+582110868+583013559+583267094+582954224+582675480+582238706
3318+581570767+580996291+580689398+580725070+581063050+581463255+581909345
3304+582386572+582551926+582399028+582099509+582033497+582542061+583344864
3291+584351331+584951365+584535665+584230865+584927053+586112275+587388767
3277+588610358+588669893+587224610+586621885+588384573+590751629+591513578
3264+591134198+591497935+593009080+594755875+595460980+595066454+595408470
3250+597299943+599492728+600175663+598999508+598106481+598767396+599870564
3237+600710383+601243857+601223182+601051103+601064554+600981504+600643325
3223+599921530+599626644+600808279+601954143+600756317+598200592+597539677
3210+599323538+600977369+601108296+600398458+599325631+597879501+596756654
3196+596434018+595949617+594813667+593898221+593422937+592585709+591882298
3183+592223167+592223715+591000281+589834938+589069102+588546937+588727435
3169+588792550+587896036+587166569+587391407+587695859+587167267+585718147
3156+583887056+582358922+581348719+580569282+579793582+578739636+577553468
3142+577026271+576563192+575192539+573551413+572110115+570924644+570006459
3129+568569695+566521637+565156016+564976066+564939847+564327955+563539451
3115+563049918+562356421+560830629+559515775+559182278+558694390+557742475
3102+557175522+556897077+556328778+555579782+554984331+554263981+553374243
3088+552988286+553035266+552724787+551821398+550838197+550461705+550445813
3075+549777376+548558027+548039050+548171572+547717909+546656989+545527864
3061+544155169+542499346+540915762+539708968+538868302+538100573+537307286
3047+536844656+536789754+536481517+535419550+533854400+532368463+531102383
3034+529757238+528459124+527365920+526032832+524462998+523077349+521750837
3020+520467071+519347662+518151629+516759554+515171585+513733127+512819226
3007+511963017+510729021+509345863+508142009+507333427+507037147+507009247
2993+506482349+505202369+504034236+503297943+502481839+501824761+501602463
2980+501171170+500188218+499250303+498793950+498243786+497170261+496069584
2966+495172522+494113495+492765709+491364965+489899256+488322198+487092836
2953+486378813+485762239+485076314+484529289+484137553+483563326+482714788
2939+481806268+480731348+479384160+478160627+477357725+476712504+475878713
2926+474852567+473710888+472291810+470510291+468618868+467054265+466243741
2912+466043812+465892259+465618398+465147448+464556730+464223782+463889439
2899+463150107+462281941+461523927+460864756+460183714+459370699+458765135
2885+458596992+458317750+457401407+456243287+455538083+455178680+454528776
2872+453304794+451679411+450262077+449620193+449455189+449233190+448754668
2858+447878381+446929605+446240692+445392752+444042626+442547472+441612099
2845+441353383+440969070+440114106+439393507+439120941+438958078+438511142
2831+437730260+437046528+436882171+436945891+436537466+435579922+434594578
2818+433961862+433821569+433858735+433571920+433083582+432590961+431994165
2804+431414059+430804559+429972213+429327191+429199652+429033202+428504660
2791+428117956+427982594+427772054+427431583+426883013+426294687+426032434
2777+425800770+425207910+424570809+424236167+423989258+423602754+423127170
2764+422605005+422129621+421781179+421592310+421510605+421183187+420587288
2750+420197096+420121718+420075535+419828377+419429367+419097216+418802580
2737+418471126+418199706+418053284+418037790+418003863+417671886+417015754
2723+416471992+416227549+415958047+415826348+416061125+416163007+415864609
2710+415554404+415495043+415365934+414892817+414450688+414343201+414325116
2696+414241418+414213818+414262517+414396010+414526440+414352268+413842732
2683+413260858+412906113+412902676+412927087+412776481+412704939+412642714
2669+412203126+411550307+411228419+411372100+411663100+411841780+411897005
2656+411845242+411709358+411583587+411619407+411886344+412112328+412048085
2642+411886867+411872220+412037449+412319481+412517292+412591250+412802313
2629+413066908+413096476+413047627+413242574+413705005+414096018+414194861
2615+414251407+414532866+414986554+415384368+415708074+416187693+416853938
2602+417517593+418023542+418386183+418718135+418951990+419126012+419572800
2588+420290957+420894579+421153992+421160967+421152498+421277347+421593406
2575+421995306+422317543+422545619+422604457+422466007+422308475+422250136
2561+422289294+422382359+422483693+422661700+422926295+422992108+422751974
2548+422543427+422522702+422390977+422027290+421816501+421906626+422060421
2534+422258655+422427496+422340161+422178245+422176551+422088619+421802850
2521+421672172+421905629+422307728+422594094+422697720+422733142+422806627
2507+422902132+422992656+423149938+423313797+423379709+423457777+423612917
2494+423712308+423770249+423923247+424035292+423919211+423714550+423633891
2480+423578790+423410398+423244497+423156863+423116459+423058219+422896702
2467+422662198+422480454+422401539+422294227+422067545+421721394+421269177
2453+420778846+420272225+419855131+419589788+419293508+418879153+418448508
2440+418112869+417915133+417782935+417569032+417236782+416914669+416588397
2426+415998426+415097329+414270538+413857952+413754052+413506670+412899338
2413+412302218+412007258+411859665+411567146+410946810+410220856+409696598
2399+409321626+409032370+408850377+408581847+408024807+407326802+406712619
2386+405978468+404799026+403260355+401455395+399187954+396575110+394047234
2372+391453222+388351219+385130694+382540618+380840130+379767228+378996884
2359+378682767+379035046+380260797+382604088+385582911+387721766+387664797
2345+385630191+383537594+382450418+381980714+381780885+381584942+381360228
2332+381370317+381701048+382224882+382852766+383510442+384298697+385270290
2318+386150861+386704887+387091242+387648655+388384798+389151032+389922772
2305+390558427+390906023+391130886+391460222+391780068+391964029+392122855
2291+392276675+392368718+392456601+392636352+392880072+393023679+393013017
2278+392962699+392974755+393069414+393186217+393230408+393115946+392921597
2264+392980784+393386793+393777309+394015549+394332455+394664182+394799394
2251+394849763+394988885+395342185+395889510+396383153+396787344+397239039
2237+397762823+398358049+398944782+399404024+399794440+400279539+400921546
2224+401694830+402571242+403506217+404453672+405369292+406279457+407349246
2210+408575320+409747813+410916818+412309292+413897634+415500175+417109292
2197+418826444+420718813+422859437+425175527+427521309+429894743+432287257
2183+434729392+437326318+440042514+442836529+445692072+448459583+451153459
2170+453961822+456894387+459849072+462732614+465421509+467792750+469835974
2156+471680417+473488939+475187608+476380602+476888917+476871530+476441581
2143+475632751+474405481+472586447+470007954+466810246+463198881+459126979
2129+454653775+450016812+445276821+440281551+435115349+430094073+425242136
2116+420476687+415886007+411459385+407074986+402803528+398812708+395090942
2102+391553660+388083809+384658747+381513251+378643136+375800048+373050074
2089+370489964+367983611+365544216+363346848+361339842+359329274+357317859
2075+355332251+353378877+351630039+350122332+348601870+346926791+345272537
2062+343741015+342203515+340664270+339248182+337928022+336581084+335188161
2048+333840750+332600801+331394007+330121823+328934534+328002274+327141556
2035+326166899+325199939+324405058+323756997+323181375+322681704+322221116
2021+321671600+320853951+319808450+318943721+318314891+317486381+316390113
2008+315312578+314311391+313292818+312232246+311117868+310028525+309047292
1994+307959195+306725174+305815981+305323658+304931249+304470188+303804865
1981+303004703+302290431+301646854+301027166+300545778+300008194+298977688
1967+297794135+297243772+297118723+296825557+296328974+295729762+295078089
1954+294495741+294015998+293505316+292826865+291942482+290835453+290042540
1940+290222216+290699269+290684448+290276919+289838676+289593062+289511083
1927+289239115+288371870+287417864+287151849+287019875+286974937+287678473
1913+288349053+288183749+287771313+287946555+288529302+288933244+289016219
1900+288973399+288779449+288381162+288188358+288085055+287666292+287662257
1886+288271682+288750728+289072815+289361199+289595678+289816157+289901200
1873+289469284+288008781+286390098+287005477+289244470+290865021+291531366
1859+291952172+292487066+293066375+293581043+293931378+293859214+293247970
1846+292213529+291864439+293542133+295596318+296634172+297307367+298083018
1832+298054446+297095582+297131253+298300009+299466648+300928771+302247785
1819+302742175+302711735+302369521+301411180+300207524+299890419+300281159
1805+300236819+299194556+297573930+296691715+296790010+296585423+295235496
1792+294284479+295966532+298212725+298989197+298775668+298552224+298701186
1778+299389427+299703244+298386074+295923438+295711926+297987139+300203265
1765+301182405+300787979+300577564+301392771+302043996+302441062+301824787
1751+298944309+296036006+296284808+297763097+298472985+298440029+298212899
1738+298231058+297134143+294343864+294374827+297290902+300176461+301930381
1724+302408530+302348646+301459157+298302002+295809300+298972806+303824843
1711+307214782+308585957+308344603+308341863+309445878+309753269+309500058
1697+312151737+318214926+324637768+328760288+331286669+333140876+333847924
1684+336022475+343225750+350986263+357034656+361625287+366146791+370439472
1670+375024173+382776317+391140003+397262828+403034769+410401778+417417629
1657+421991968+424026773+429339796+439329837+445549985+451883624+463212532
1643+474357504+482559598+488068265+491453147+497020701+507277529+516093657
1630+522014087+526374548+530300079+534131101+538998432+543800399+546275167
1616+548676350+554236032+559558172+562451030+564049012+566066629+568225935
1603+570215105+572706911+575465504+577673185+579675807+582354588+585836121
1589+589898259+594221305+598685392+603721713+609361257+614260623+618088656
1576+624950189+635145638+643569781+651688975+662193907+673119372+683067265
1562+690512442+694278697+701866509+717672258+732008262+744477455+755689534
1549+766701586+775717444+781272343+784634906+789873547+804407586+819301477
1535+828957523+837588520+847719950+856144940+862295241+867751247+871663426
1522+874789841+881141017+889594404+898941067+908148035+914063483+915625744
1508+913083819+914043654+925346158+934895490+939197362+938885189+938589755
1495+942173619+944747628+941684883+935956659+936232962+939871827+941482713
1481+940746172+939721371+938019912+932597982+923533600+919207715+922870195
1468+925784775+923432964+920275261+920717565+920349493+915245716+913052133
1454+920128093+928314942+934099064+937856103+943492060+951421339+958479961
1441+964153184+968720000+972299878+977842572+985409658+991659400+997117698
1427+1003001461+1007582226+1011117167+1013622923+1012862168+1012774385
1416+1017243952+1021377831+1023213107+1024334260+1025546185+1026502135
1404+1026627383+1025356968+1021933824+1018253110+1017048358+1016980304
1393+1017188951+1016848081+1013546797+1007748028+1005711280+1009319755
1381+1013776269+1015662461+1015204414+1013217187+1011822222+1013590440
1369+1017083631+1019451185+1018726401+1014725144+1011909806+1013452438
1358+1015496659+1015409574+1013920847+1011776587+1009094568+1006841600
1346+1005775747+1005118320+1002795006+998589884+996545065+998104237+999922076
1333+1000651144+1001064751+1001541331+1002081182+1003206421+1005083545
1321+1006709277+1007805919+1009994918+1013475256+1016730705+1020192111
1310+1024847308+1029380446+1032501879+1035361059+1038887629+1042745106
1298+1046833150+1050282201+1052271221+1053394965+1054577297+1056187386
1287+1057684083+1058726122+1059500228+1060033802+1060615004+1061390306
1275+1061775715+1060953184+1058977316+1056799576+1054529869+1051931946
1263+1050025029+1049539681+1049917816+1050657048+1051640996+1053044729
1252+1055045109+1057105871+1058524052+1059206389+1059546063+1059977804
1240+1060620485+1061383032+1062090578+1062724789+1063729263+1064878117
1229+1065294613+1065345430+1065826493+1066722061+1067639649+1068187471
1217+1068340918+1067725638+1066780251+1067356172+1069588116+1071878947
1205+1073012755+1072983660+1072720310+1072512560+1072389006+1072982364
1194+1073741823+1073075428+1071725202+1071278116+1070808909+1069501229
1182+1068920326+1070145305+1071079333+1069614122+1066741690+1064066745
1171+1062382624+1061454674+1060316083+1059289190+1059008104+1058338621
1159+1055900621+1051961240+1048127578+1045685891+1043819029+1040916307
1148+1037041094+1033071622+1028942128+1024477842+1020162119+1015689264
1136+1010972091+1006466653+1000615971+992771386+985734586+980553088+975131557
1123+969215212+963673017+958228469+953604459+949800590+945044258+939648533
1109+935437334+931922421+927625730+923222125+919952526+918199753+917942382
1096+918242499+917932418+916839861+916170976+916861882+917947962+919044305
1082+921284917+924285188+926413705+927495201+928568726+930648021+933769155
1069+937100331+940462595+943575658+945611709+947046829+949124331+952170436
1055+955489854+957788258+958571730+958840062+959274294+959929230+961340237
1042+963559028+965819071+967505683+968064765+967445301+966830520+967534778
1028+969636292+971445363+971226951+970103905+969893763+969973376+969822720
1015+970406712+971215791+971057463+971060452+972062834+972871116+973013901
1001+973088033+973155390+972702824+971925330+971607079+971385778+969940196
988+966719820+962628288+959232545+957200878+955879049+954828442+953788993
974+952182691+950288429+947997896+944937941+942326268+941006831+940577979
961+940771480+941265198+941437377+941036324+940351795+940087350+940616241
947+941238993+942054051+944135637+946987244+949049301+949880003+950955222
934+953678592+956725394+958166592+958573324+959328000+960574900+961728536
920+962524861+963479515+964337220+963673914+961624611+959918070+959296514
907+959202653+958416889+956017549+953229612+951549078+949902522+947643276
893+946309192+946013858+945518546+945118490+944862314+943878466+943193837
880+944073163+945571355+947213528+950264515+954827545+959175551+962534427
866+966456072+971873517+976626461+979401943+981939384+984574373+985400591
853+983878286+981480341+979866566+979512544+979501683+979383311+979472190
839+979095450+978323237+979250988+982372322+984321287+982237309+978290156
826+976191332+976234875+976354543+975881251+975934260+977461647+980394262
812+983167053+984561619+985736279+987519543+988981167+989995008+991712508
799+994551959+997178280+997712750+996812898+997640013+1001736825+1007821164
785+1013410091+1017091403+1020666499+1025181203+1027632654+1027124489
773+1027340210+1030114396+1033946365+1036922821+1037087128+1035614344
762+1036566806+1039347071+1040366491+1039601652+1039385034+1040889603
750+1042813957+1043798205+1043853306+1043190498+1042170281+1040672288
739+1038740062+1037546769+1037474530+1036696937+1034781052+1033453344
727+1031960234+1030418001+1030760564+1031202469+1030033289+1028064794
716+1025751743+1024094027+1023330084+1022004768+1020175072+1019387316
704+1020189520+1020478178+1016766376+1011087972+1007960461+1005917435
692+1004388953+1004953216+1005723236+1006698516+1008042565+1008140412
681+1009793744+1013725552+1014789611+1013696955+1015218862+1015528046
669+1010271320+1009698189+1018395795+1024547191+1026720447+1027398898
658+1026101979+1023732133+1021975773+1022329994+1022531866+1019991535
646+1020178062+1023729941+1025974041+1027679087+1026939058+1020565364
635+1011041341+1003512715+1003128502+1008259582+1009167704+1002234928+997997622
621+1002060955+1004575579+999734254+994488987+995432182+1003148231+1011091261
608+1013720271+1016662651+1024018500+1027037104+1020097552
##END=
