##TITLE=Sample description
##JCAMP-DX=4.24
##DATA TYPE=INFRARED SPECTRUM
##DATE=24/8/2023
##SAMPLING PROCEDURE=Instrument type and / or accessory
##ORIGIN=Default
##XUNITS=1/CM
##YUNITS=ABSORBANCE
##RESOLUTION=4
##FIRSTX=4397.6552
##LASTX=599.8556
##DELTAX=-1.9287962
##MAXY=1.4380828
##MINY=0.35983133
##XFACTOR=1
##YFACTOR=1.339319e-009
##NPOINTS=1970
##FIRSTY=0.50763303
##XYDATA=(X++(Y..Y))
4398+379023245+379343183+378992760+378269353+378132593+378495254+378753331
4384+379051461+379155822+378598769+377631481+376778924+376285645+375916264
4371+375544392+375352981+375302024+375476612+376245147+377035666+376818977
4357+376154804+376185289+376822538+377461032+377693119+377181505+376077368
4344+374934602+374497264+375495170+376875764+377033129+376566374+376303313
4330+375897929+375053249+373954408+373247645+373533047+374707544+375983109
4317+376495747+376043812+375528860+375516532+375118714+374359970+374328106
4303+374651825+374592947+374473588+374462996+374273589+374010661+374293348
4290+375020049+375046573+374330642+373986095+374252227+374580931+374489966
4276+374320050+374949110+375667311+375132421+374133179+373807457+373832245
4263+373903763+373952183+374022054+374278039+374091479+373427173+373507680
4249+374203184+374278617+374086985+374395084+374269450+373292393+372999069
4236+373757212+374075681+373622054+373377996+373497400+373290658+373018251
4222+373593305+374532556+374565755+373586852+372656769+372512221+372773814
4209+373040102+373322767+373194085+372601429+372555301+373237899+373763665
4195+373969984+373947821+373600915+373288944+373121366+372791994+372258572
4182+371791506+371999583+372929043+373351116+372813445+372219609+371683918
4168+371080649+370996381+371281360+371298962+371462579+372427063+373555477
4155+373692993+372930534+372354967+372279534+372246334+372180201+371882761
4141+371121169+370668811+370999452+371222905+370821504+370549319+370950720
4128+371602766+371987100+371915026+371605592+371564382+371661088+371563469
4114+371476620+371353456+371091040+370777912+370353837+370120504+370425532
4101+370880961+370866297+370552345+370479938+370458465+370174487+369678582
4087+369003906+368480409+368658758+369364608+369665676+369497274+369830740
4074+370650164+370910066+370407909+370010402+370001212+369764474+369230853
4060+368805219+368660738+369028183+369705017+369915520+369724821+369967989
4047+370461246+370438950+370054927+369642601+369195695+368863541+368637552
4033+368424935+368240134+367994696+367822044+367933770+368141803+368168238
4020+368236885+368771285+369175112+368696385+368118104+368097922+368086596
4006+368130009+368562919+368553395+367825559+367735506+368590222+368899745
3993+368302283+368017593+368251682+368197900+367890223+367719418+367524603
3979+367233771+367061053+366996878+366971556+367134906+367256669+367010652
3966+366923247+367187154+367272401+367406802+367706178+367586842+367284617
3952+367355378+367226629+366609095+366489024+366319287+365476320+365696458
3939+366999393+367874958+367780143+366361811+364940630+365329303+366060899
3925+365653289+365538336+366352465+366284708+365167176+365066352+366319042
3912+367753397+368889242+369235503+367526361+364218201+362443282+362466691
3898+363401536+365448773+366683305+365063037+363756364+365312258+365937268
3885+364419736+363293793+362225259+362907300+365327700+366055892+365096437
3871+363162685+361303943+362273189+363209503+362709103+363771718+365953111
3858+367647700+367088133+360855480+357281276+361309039+366001375+368393849
3844+367698078+365138604+362394462+360051988+360270834+362382268+363779840
3831+364716820+365561033+365613637+366003445+365400887+361687877+361074549
3817+362641991+362869027+365127923+368510560+369729405+367666904+366252153
3804+366706403+364936513+363846195+365118222+365984953+367385062+369331920
3790+370546738+370869278+370275977+369694804+370211291+370046004+368906487
3777+369422018+371151432+372027020+370633409+368613119+368318304+368791423
3763+369636303+369648609+367847099+367428386+369283500+369525934+364713994
3750+361217962+364742477+367770219+366947969+368305687+371208441+371258997
3736+367524581+364948217+366983171+370948384+374098734+375002559+374931665
3723+375772829+377085377+378903709+381478381+383675172+383576330+383837255
3709+390949301+403011450+416776932+432737203+452750515+473893732+492312476
3696+507311379+518140107+524005917+523819936+520260486+518309444+516189421
3682+511414442+504177117+495405572+481832835+468777364+464207458+457628833
3669+449082788+446544564+445507405+442475769+438479515+434552954+429050428
3655+424110830+422695523+419268694+409142101+402706733+403949899+406076018
3642+406184296+404487771+402333614+400452843+399271403+398827479+395401095
3628+388399551+386912861+389137467+390173557+387615084+382931382+381320170
3615+381192089+379576827+377521780+374765577+371969120+371512646+371234809
3601+368726759+365677433+363682399+361675794+359763426+359228358+358218769
3588+354092008+350627551+350533871+350558459+348936967+346568614+344609005
3574+343341428+342469512+341164486+337542708+332197013+330116510+330577168
3561+330434200+329627170+328933579+327844975+325938013+324210402+323220506
3547+322051439+320563903+319463927+318741120+318255140+317707656+316703341
3534+315627620+314693354+313341532+311680743+310396299+309093632+307564640
3520+306583223+306101782+305574591+304874503+303937456+302520480+301008712
3507+300378406+299890089+298465904+297310677+296968844+296253759+294912128
3493+293660195+292605836+291492576+290441977+289692357+289042581+288248234
3480+287769018+287683549+287124026+285945546+285111080+284875610+284424655
3466+283424389+282238188+281029023+279754770+278636927+278015878+277611517
3453+276914456+275994965+275048460+274362235+274118667+273892521+273610590
3439+273480528+273315820+272872674+272086339+271410038+271168606+270922456
3426+270445932+269928955+269345223+268785767+268667387+268900074+269193999
3412+269478667+269386655+269004280+268900542+269107150+269598671+270402586
3399+270995197+271194151+271430020+271557412+271556811+271981176+272757788
3385+273549064+274268978+274718131+274873739+275184641+275905156+276827562
3372+277852861+278718813+279044825+279250277+280090462+281503810+282957279
3358+284312216+285598773+286887556+288279320+289436772+290057955+290485034
3345+291390729+292964469+294309304+294630732+294619027+295038875+295528505
3331+296002269+296733687+297293187+297134064+296274921+295338452+295076080
3318+295475901+295796506+295651313+295441277+295600334+296188962+296809900
3304+296767042+296243545+296428481+297412724+298057205+298281436+298686509
3291+299399970+300545740+301888328+302817587+303397381+304036165+304490770
3277+304888722+305792570+306625501+306883912+307077614+307538494+308075632
3264+308358853+308430860+308541185+308788692+309210521+309709340+309992161
3250+309948236+309840470+309779545+309607516+309202087+308993187+309669576
3237+310750882+311139444+310637732+309951707+309753955+309851574+309705713
3223+309276831+309259096+309998547+310367728+309757649+309228522+309411944
3210+309882971+310381991+310854732+311070085+311042048+311020174+311208781
3196+311717458+312421217+313047206+313294647+313304148+313544001+313981962
3183+314276109+314318143+314379514+314626509+315039348+315774816+316481824
3169+316719518+316690791+316650760+316835584+317235182+317431800+317379930
3156+317499089+317770673+317840922+317965688+318373854+318675722+318834957
3142+319238783+319699953+319680883+319395636+319396215+319636535+319758408
3129+319657674+319710656+320040161+320246725+320408563+320675741+320825829
3115+321053266+321610341+322032569+321922801+321789802+321995297+322256645
3102+322617704+323132701+323416412+323479518+323764208+324254083+324631318
3088+324892043+325158553+325407351+325509243+325581695+325955948+326593820
3075+326982181+326840370+326744265+327001429+327022902+326724282+326640193
3061+326787366+326669365+326296580+326317007+326690905+326666339+326242775
3047+326113046+326438257+326750161+326615960+326143643+325858953+325815450
3034+325542843+325194134+325430137+325899740+325811089+325323328+324948207
3020+325229715+326353389+327344686+327378531+326936832+326777620+326991772
3007+327357481+327781846+328157413+328567470+329265888+330215286+331318911
2993+332484507+333542961+334513364+335505774+336729670+338277375+339721498
2980+340481554+340519916+340510660+340745105+340772052+340578172+340378795
2966+339999735+339429976+339068584+339249959+339574769+339427417+339063711
2953+339122211+339719139+340630508+341609500+342256629+342312214+342156028
2939+342297550+342568777+342594478+342452667+342140385+341554338+340970004
2926+340585915+340272743+339889877+339642192+339792125+339852984+339276216
2912+338631469+338629911+338885340+338903787+338733293+338359462+338150962
2899+338540926+339026484+339235740+339373924+339290791+339097422+339432246
2885+340068449+340164399+339794795+339581022+339615023+339628263+339417827
2872+339020209+338644642+338332960+338099449+338131826+338435296+338680000
2858+338611553+338350383+338052320+337699962+337330047+337099919+337228134
2845+337683740+338067674+338221300+338413868+338816515+339447644+340283401
2831+340975923+341298709+341649576+342173140+342540874+342847393+343162590
2818+343250797+343446969+344118174+344909405+345389978+345547699+345709359
2804+346093136+346522197+346858511+347170615+347434678+347598763+347723863
2791+347889817+348124953+348418321+348792197+349183940+349504278+349943129
2777+350517694+350848557+351046776+351586561+352214931+352380129+352192390
2764+352124900+352451290+353106340+353851666+354488892+354937534+355211410
2750+355298281+355455913+356043295+356800948+357353662+357732366+357974310
2737+358184078+358509912+358810557+359097116+359689705+360494466+361214647
2723+361909772+362520674+362903072+363221563+363533690+363776235+364037138
2710+364256296+364368045+364605116+365066820+365555893+365839871+365887935
2696+366037868+366457404+366783795+366815526+366753799+366764369+366922624
2683+367171555+367299370+367327541+367447256+367632458+367778897+367968705
2669+368279096+368540244+368681566+368841712+368995050+369147697+369434190
2656+369721728+369824777+369827224+369727380+369508889+369460069+369695271
2642+369990686+370215408+370440819+370788282+371167030+371377577+371532317
2629+371812556+372129868+372400272+372602119+372802274+373112265+373379420
2615+373593127+373955254+374385204+374664554+374675457+374634647+374788808
2602+374888407+374803761+374834869+375007454+374968603+374654006+374402115
2588+374389254+374470295+374462106+374316446+374078217+373867136+373836874
2575+373923166+373935984+373843371+373740924+373723567+373687386+373493795
2561+373282959+373155478+373076261+373055967+373006324+372932025+372943840
2548+372993595+373072323+373146555+373147178+373195620+373322166+373426683
2534+373463933+373405677+373378975+373546576+373773768+373849958+373813465
2521+373847688+374021920+374131399+374046976+374012708+374168159+374333535
2507+374340122+374226993+374157434+374152583+374152227+374204029+374247109
2494+374069895+373661173+373305366+373297845+373531089+373534160+373188744
2480+372827085+372636120+372624682+372766738+372870209+372792750+372683271
2467+372635719+372596200+372586809+372542729+372396044+372315960+372424371
2453+372560241+372579311+372531113+372475283+372483961+372590548+372641148
2440+372470788+372229934+372260086+372551540+372791660+372765358+372548180
2426+372454233+372535385+372596356+372601629+372596823+372643173+372736320
2413+372795198+372843351+372926840+373068339+373252028+373343906+373325793
2399+373323390+373358593+373439767+373601939+373783291+373933180+374022543
2386+373871008+373339723+372428376+371035856+369154351+366920888+364278526
2372+361227419+358247830+355838889+353826165+352112706+351062219+350561174
2359+350513599+351390011+353342010+356344696+360214204+363150602+363125658
2345+360604412+358467389+358053082+358435213+359003837+359567565+359847493
2332+360018009+360680669+361888766+363164354+364191187+365127990+366317440
2318+367832658+369436749+370776933+371732027+372624393+373760461+374893748
2305+375651245+376033042+376311413+376803045+377459697+377916172+378150795
2291+378489513+378957246+379318884+379607045+379940467+380165255+380163875
2278+380145006+380275624+380428094+380468547+380470862+380645539+380995827
2264+381266054+381395782+381544202+381702190+381769346+381906195+382223061
2251+382508419+382696981+382918609+383162267+383329868+383413758+383513891
2237+383716383+383988923+384210463+384375794+384576417+384804454+385055143
2224+385282868+385422565+385619138+385903027+386128305+386383756+386728660
2210+386994124+387159144+387336180+387545036+387751978+387954203+388206939
2197+388536355+388842051+389066350+389309162+389593630+389894163+390217839
2183+390466970+390791892+391438219+392055663+392303682+392408578+392562783
2170+392797317+393134433+393551877+394121391+394744888+395187878+395557080
2156+395951561+396299491+396678440+397072253+397364643+397582800+397714175
2143+397721696+397751869+397941099+398146439+398113907+397764375+397194727
2129+396613376+396191436+395853965+395413423+394779334+393960288+393054371
2116+392231230+391533679+390738843+389750861+388740093+387740184+386766844
2102+385905430+385023145+384035652+383066228+382144112+381266276+380443981
2089+379606466+378738600+377864859+376934865+375928636+375033000+374367625
2075+373708169+372984784+372357727+371691484+370801165+369913828+369305685
2062+368797765+368139355+367467994+366981792+366612122+366195945+365645390
2048+364951644+364284734+363789096+363336939+362909881+362592192+362253697
2035+361876839+361603831+361331491+360818096+360183830+359742665+359400431
2021+358910802+358314875+357796117+357435927+357127205+356865211+356716235
2008+356506445+356086552+355564324+355071112+354623204+354278301+354022071
1994+353509188+352708477+352215732+352126258+352051113+351901024+351669939
1981+351441234+351343082+351221253+350976238+350763554+350480066+349814179
1967+349078444+348945245+349165315+349075440+348680648+348189750+347688060
1954+347380206+347244224+347078938+346792223+346253772+345422021+344788199
1940+344905444+345277317+345291158+345064789+344823958+344622067+344490447
1927+344295543+343698014+342952377+342720491+342594946+342413526+342815328
1913+343300975+343159898+342814393+342943232+343331771+343493208+343504512
1900+343525451+343409608+343178011+343213614+343413435+343273538+343232261
1886+343700506+344205267+344608404+344856779+344877429+344957513+345247744
1873+345379698+344539646+342879858+342691830+344276785+345605376+346109647
1859+346354729+346615721+346884434+347107220+347209912+347001079+346375579
1846+345329497+344593807+345512563+346973152+347610557+347749386+347900387
1832+347444024+346007801+345385750+346205508+347098631+348015674+348962112
1819+349449494+349560842+349590571+349352654+348914270+349121724+349949849
1805+350501138+350279644+349491060+349182004+349733895+350086386+349308818
1792+348517297+349942773+352122408+353070203+352961191+352699131+352701601
1778+353203025+353547817+352581330+350631111+350911351+353544768+355871778
1765+357040066+357097632+357073778+357903193+358853281+359837992+360358818
1751+359048896+356980899+357074290+358634011+359941463+360513980+360745066
1738+361331780+361221211+359663871+360365538+363462239+366341450+368133614
1724+368807355+369121262+368862362+366346746+363707321+366024295+370080606
1711+372775883+373643149+372796044+371847603+372245288+371645156+369479317
1697+369979761+373424636+377504290+380169705+381121105+381236281+380005887
1684+378024271+380263608+384297512+387165731+388369289+388968175+389896166
1670+390579743+392623619+396241458+398677368+399806204+401901928+404571749
1657+405960086+404660311+402256444+405452433+409031464+411278011+416353301
1643+423038602+428164271+431295862+432856518+435998123+443812571+451777264
1630+458010986+463262199+468244344+473450742+480036755+486620409+491433306
1616+496564404+504008448+511162640+516648032+521440323+526892871+532474035
1603+537564457+542554256+547539827+552114095+556465266+560948212+565163691
1589+569036892+573119038+577643640+582291606+586817543+590730219+593485131
1576+597671193+604944655+611409573+616992650+624121698+632222972+640261942
1562+647104519+651168285+656995554+669816446+682837114+694966063+706624874
1549+718492140+729097237+737729619+744517901+752524027+771340813+790066099
1535+803079781+816423324+831718532+844406802+854449061+864248508+873879108
1522+883314960+894083608+906374460+919829174+932361414+942190590+949446027
1508+952891236+956624473+969335174+982001905+990756850+995255639+998497823
1495+1004697454+1010785738+1012787781+1012376745+1016507578+1023438584
1483+1028535948+1031054056+1032315202+1032246399+1029185079+1022818914
1472+1018040997+1020292350+1023414107+1021045620+1016796051+1017177715
1460+1018678913+1013962234+1004995095+1004862118+1008454367+1010020808
1449+1008907237+1008746668+1010896552+1012358321+1012304204+1010627305
1437+1006048142+1004350682+1008280269+1010482490+1009414935+1009820008
1425+1011228461+1011941321+1012311503+1010177372+1007917920+1011146841
1414+1014804066+1014418753+1012254805+1010893526+1009604788+1008650273
1402+1008774349+1007600074+1003903419+998822165+994245049+993869794+995331029
1389+992626272+985947869+982598343+984866697+989241321+992371444+992335129
1375+989294458+987463309+989155518+990814349+991411944+991665081+990248618
1362+989069270+990765928+992403843+991533261+989432331+988345729+987943237
1348+986810529+985194689+983700433+981959715+979973871+979248639+980107560
1335+980708983+981093495+982300525+983244270+983484857+984819612+988173321
1321+992660184+996271036+998045131+999230798+1000899776+1003473514+1006593757
1308+1009569541+1012440652+1015100549+1017745048+1020767561+1023777969
1296+1026648724+1029549030+1032060997+1033636517+1034974387+1037353198
1285+1039948031+1041444067+1043223592+1046170715+1048074228+1047755225
1273+1046276100+1044632668+1043708860+1043173659+1041447004+1039270595
1261+1039200636+1040688394+1041542420+1041931293+1042517585+1043476996
1250+1044953806+1046386469+1047052423+1047132351+1047542141+1048429901
1238+1048563946+1047501465+1046575699+1046464262+1046769201+1046962436
1227+1046412727+1045851001+1046664172+1048671912+1050897720+1052761802
1215+1053849650+1054239324+1054423748+1054196067+1053480981+1052796070
1204+1052549252+1052873684+1053176309+1053007551+1052544802+1051980495
1192+1051471640+1050977204+1050531544+1050711784+1051889440+1052970791
1180+1052923795+1051968835+1049821265+1046871649+1044777305+1043946777
1169+1044081445+1044808012+1045339386+1045655096+1045361816+1043471299
1157+1040655461+1038331211+1037055557+1036266062+1034648798+1031999760
1146+1029692332+1028403861+1027054687+1024995590+1022918425+1020990346
1134+1018725108+1015758136+1011824721+1008089526+1005774978+1003495232
1123+1000751935+999574723+1000051180+999503962+996777755+993898900+992154978
1109+990651821+988922318+987038299+985474439+985490460+986806613+987710572
1096+988332555+989964150+992983637+996797158+1000238718+1002675295+1003752196
1082+1003607292+1003666571+1004717570+1006599364+1009643150+1013944076
1070+1018579492+1021804764+1022291278+1021540056+1022607611+1026052820
1059+1029929626+1032154633+1031516093+1029338439+1029233944+1031493664
1047+1032801182+1032786318+1033104875+1033456633+1033091524+1032478797
1036+1032386942+1032859037+1033927927+1035054493+1035756940+1036995477
1024+1038079321+1037175450+1034862949+1033471408+1034608121+1036416929
1013+1036002778+1034417823+1034252092+1034966109+1034333266+1032796821
1001+1032202073+1032528108+1033238654+1033728817+1032482892+1029626200
989+1028198343+1029812492+1032193262+1033200469+1032968338+1031401096
978+1028157934+1024916907+1023680862+1024091275+1025291985+1026746454
966+1026834750+1024831104+1022171831+1020264580+1019436544+1018870012
955+1017489597+1016344250+1016756621+1017229517+1016530809+1015964633
943+1016585638+1017603081+1017317278+1015230055+1013230949+1013294589
932+1015398101+1018237526+1020675705+1022330264+1022568803+1021440546
920+1020272947+1019379669+1019368543+1020772189+1021665556+1021085139
908+1019660754+1017471617+1016050881+1016965788+1018526355+1018655861
897+1017575489+1016507756+1016003885+1015127073+1014014926+1013881326
885+1014327520+1015221777+1016484258+1016587863+1015302774+1014636643
874+1015539000+1016803083+1018014028+1019040283+1019434675+1020738544
862+1023763639+1026626472+1028250323+1029516631+1031427531+1034222541
851+1036625563+1036408385+1033988630+1033133625+1036086178+1040434723
839+1042619588+1042513224+1041494445+1038879942+1034525077+1032038389
827+1034815686+1039868191+1041600186+1041845045+1044815667+1049040759
816+1052920235+1055227752+1054416271+1054256770+1057837181+1060774959
804+1059891472+1058573539+1058204248+1057978792+1059963034+1062133390
793+1059275185+1054132961+1052415474+1052552545+1050709202+1047421536
781+1044871475+1044943393+1046540274+1045323454+1041914204+1040813183
770+1041888926+1042064537+1041105572+1040244247+1039500234+1039573043
758+1040313050+1039920794+1039444783+1041069791+1042551408+1041273440
746+1040505395+1041677622+1041956482+1042533072+1043450294+1041521503
735+1038028408+1035891964+1035788893+1037086888+1037530768+1035654937
723+1033971629+1034353115+1034767979+1033600736+1032210440+1033431800
712+1037497746+1040770993+1041083498+1039790844+1038192271+1037578209
700+1038658492+1037200729+1031412133+1028778404+1032562998+1035833397
689+1034322319+1031197536+1030438392+1034677636+1041591908+1044027239
677+1040789418+1039033302+1044106189+1051582365+1052558954+1047096125
665+1045114376+1046629371+1049655266+1051153527+1048103155+1048262033
654+1057027926+1065407082+1063138550+1053388325+1048077610+1051924865
642+1062734546+1073741823+1073026293+1060024983+1047102000+1045067113
631+1055191081+1063544602+1054929310+1038640601+1031217118+1031103099
619+1038222800+1046940985+1037845231+1025216862+1029825487+1042507972
608+1054670387+1060544519+1058092365+1059058363+1056858189
##END=
