##TITLE=Sample description
##JCAMP-DX=4.24
##DATA TYPE=INFRARED SPECTRUM
##DATE=24/8/2023
##SAMPLING PROCEDURE=Instrument type and / or accessory
##ORIGIN=Default
##XUNITS=1/CM
##YUNITS=ABSORBANCE
##RESOLUTION=4
##FIRSTX=4397.6552
##LASTX=599.8556
##DELTAX=-1.9287962
##MAXY=1.2825617
##MINY=0.34215811
##XFACTOR=1
##YFACTOR=1.1944786e-009
##NPOINTS=1970
##FIRSTY=0.48873249
##XYDATA=(X++(Y..Y))
4398+409159675+407973923+408179362+409524569+410358725+410327463+409855632
4384+409361995+408920528+408816811+409297848+409450343+408865613+408367286
4371+407847700+406726868+405471406+404897006+405477843+406620556+407501718
4357+408368683+409036995+408810673+407511598+405619859+404635579+405290393
4344+405955587+405149625+403937226+403511952+403588200+403968614+404183983
4330+404079167+404641991+405507833+405277769+404246358+403763449+404027346
4317+404265869+404495135+404689147+403996133+403127871+403456663+403845086
4303+403202197+402866719+403239423+403399802+403432961+403199553+402744089
4290+402986105+403324128+402745137+402088925+402335257+402759908+402144764
4276+401052100+400708139+400528748+399586908+398742847+399159937+400374107
4263+400914151+400260060+399310860+399145965+400197461+401622683+401731391
4249+400187082+398847313+399260985+400028224+399424034+398728151+399210686
4236+399847586+399643869+398691425+397715578+397627030+398466650+399275855
4222+399181195+398484489+398282368+398895042+399680495+399872736+399216050
4209+398017049+396802680+396319073+396783468+397554126+398256121+398861859
4195+398983515+398438581+397790827+397365079+397094870+397397140+398003676
4182+397519096+396242925+395897416+396432246+396934641+397172315+397028777
4168+396852031+397000334+397112335+397030549+397007869+397001357+396794222
4155+396450884+396145171+395831723+395538909+395430476+395446369+395266579
4141+394580801+394093327+394630078+395110466+394662563+394382074+394951559
4128+395607097+395627432+395149139+394715432+394379280+393768976+393282849
4114+393361018+393347819+392734596+391912167+391601289+391917856+392375939
4101+392697495+392799691+392851687+392714661+391886444+390850492+390502638
4087+390605332+390386945+390032429+390191710+390487094+390102439+389357979
4074+389261222+389846027+390092808+389689565+389237744+388673374+387802317
4060+387338645+387769633+388397301+388470555+388383479+388307331+387690092
4047+387032907+387351045+388175994+388123699+387002094+385921930+385714870
4033+385953342+385890244+385646432+385353468+385006837+384965120+385152021
4020+385266367+385150699+384847755+384838598+385028019+384793888+384332262
4006+383913225+383202448+382499280+382410508+382794140+383312078+383580142
3993+383358136+383012728+382865048+382809759+382316496+381204846+380459812
3979+380724482+381268768+381280893+380929272+380760635+380885135+381125879
3966+381229496+380932865+380342521+380280745+380860136+380900954+380194817
3952+379564977+378981770+378391102+378377230+378243472+377486936+377698563
3939+379030647+379938181+379470991+377745269+376989731+378187584+378785163
3925+377800534+377297715+377624386+377126458+376268350+376824687+378564704
3912+379940401+380174607+379264254+376822815+373818553+372159972+371443406
3898+372529133+375367852+377062411+375964982+375108047+376564408+376910191
3885+375458196+374813911+374311466+375162363+376987735+376500311+374363737
3871+372119728+370993956+372275341+372460271+371748421+373782026+376461813
3858+377354476+375186839+368330835+366452744+372227038+377427106+378825183
3844+376457496+372505306+368786748+366530114+368111948+371989813+375034594
3831+376377606+376382846+375994947+376149488+374267330+369481483+369722326
3817+373119352+374930303+377655624+380824282+381728972+379569843+377690579
3804+376926583+374272045+373356453+375297418+377511213+380396114+382889300
3790+383624528+382938950+381662679+381235035+382139226+382240648+381768917
3777+383149354+384970584+385210055+383598281+382236980+382624155+383301525
3763+383823131+383429893+381995339+382530742+384643364+384137626+379501455
3750+377796691+381025554+382434859+381894515+384897031+388809377+388953638
3736+385491691+385103892+390046276+395983145+400356942+402535981+404570833
3723+409190338+416640004+426560975+437826878+448756006+459446012+473789506
3709+493111288+512166103+528190583+541060327+552629224+564935047+576434333
3696+585758323+591884064+592225980+586239460+581287870+581470654+582183677
3682+581024098+577467266+570696916+558940893+549668649+548486964+545273845
3669+541083331+542352092+544260722+543546252+541171056+538323954+534125855
3655+530871967+530429303+527106403+517412005+513402479+517713501+521811600
3642+523006458+522591090+522050272+521130413+519987201+519447730+516249481
3628+511405026+513595942+518336854+520593487+518923480+515052776+513958416
3615+515019443+515941747+515879571+513616900+511633769+512722290+513968596
3601+513192599+512386961+512272640+511031324+510101685+511223739+511128979
3588+507611668+506321300+509304131+512004327+512390155+511907521+511777631
3574+511670994+511580725+510987562+507850590+504458628+506177089+509758621
3561+511747541+513238756+515121688+516190050+515856418+515718594+516525678
3547+516881666+517223482+519344687+522226469+523776867+523678014+523673923
3534+524951166+526138341+525939039+525710896+526864487+528308198+529469773
3520+530963185+532510987+533855895+534792571+534556194+534076105+535402550
3507+537207139+536675852+534981044+535504346+537728845+539214771+540230139
3493+541473101+541799248+541312323+541302143+541928490+542991113+544410722
3480+545609024+546169303+546425041+546499492+546159373+545919004+546266658
3466+546898643+547389910+547313014+546927036+547362864+548946095+550518798
3453+550962410+550501982+549573689+548473940+547939310+548020149+548574639
3439+549692102+550827281+551630124+552047938+552145043+552255123+551861661
3426+551004775+551059366+551581521+550950584+550176882+551132021+553208066
3412+555136856+556723281+557493789+557101075+556277423+556175178+557088600
3399+557747182+557171035+555714849+554105420+553659113+555162205+557183859
3385+557762651+556932562+556253621+556682762+558132910+559719485+560318187
3372+559956411+559686601+560675072+562681407+563841386+564017383+564001465
3358+563427364+563274171+564620327+566302909+567029505+566513787+565832750
3345+566694675+568297717+568781100+568910191+569432446+569472716+569307446
3331+569345820+569136289+569311189+570182894+570215379+569006099+568467677
3318+569209093+569852755+570313084+571209340+571878700+571858341+571747862
3304+571818471+571635487+571466825+571654898+571516525+571213631+571463881
3291+571854649+572086634+572634238+573415325+573543868+573278499+573966422
3277+575449754+576844612+577933633+578258083+578130738+578691915+579930037
3264+581159527+582272050+583251141+583685571+583769154+584569303+586434720
3250+588232921+588674288+588190156+588164458+589014956+590341102+591324783
3237+591397088+590851730+590277329+590296940+590972388+591462058+591197887
3223+590725233+590983217+591907667+592298983+591599334+590615702+590034066
3210+590184615+591336011+592146389+591129773+589554825+589027032+588772691
3196+587632772+586324690+585757774+585293703+584682826+584442606+584274443
3183+583713665+582950043+582590313+582582130+582025394+580862272+579686774
3169+578598552+577769960+577510031+577516068+577278344+576532138+575525951
3156+575003547+574499805+572964677+571205947+570269421+569573165+568823415
3142+568711439+568718924+567775812+565927960+563253712+560810501+560151969
3129+560283706+559944734+559636052+559361302+558745384+557923180+557015147
3115+556450377+556063402+555054870+553642197+552243347+551199087+551058368
3102+551321891+550905175+549642651+548602383+548515308+548536715+547979031
3088+547267505+546711717+545994353+545134424+544871550+545170102+545095651
3075+544523995+543885972+543052989+541805785+540538122+539611527+538726897
3061+537861978+537214524+536424555+535349157+534113430+533081845+532661436
3047+532240179+531612685+531147067+530094473+528278008+526816583+526053261
3034+525310946+524086497+522411599+520626521+519173779+518162103+517291745
3020+516336257+515309363+514090352+512398937+510652083+509609520+509001437
3007+507964612+506334025+504756083+503711124+502943061+502189220+501659530
2993+501277694+500563473+499492217+498395712+497639226+497394116+497237380
2980+496785185+496111683+495297063+494354749+493470070+492841078+492218824
2966+491279703+490121271+488727161+486957902+485334601+484432007+483911499
2953+483261450+482338347+481235654+480319288+479692542+479043641+478210109
2939+477225130+476038855+474749485+473792251+473393449+473285864+472984367
2926+472225836+471205927+469924691+468241160+466639266+465395006+464210127
2912+463286276+463040318+463138223+462843313+462066318+461407836+461199702
2899+461157986+460666369+459586630+458611232+457867271+456758041+455649510
2885+455238083+455006596+454373364+453619572+452923615+452305452+451892030
2872+451399415+450504057+449491134+448723571+448078512+447247924+446185999
2858+445188795+444415642+443556212+442391842+441084459+440038602+439614401
2845+439456766+439170090+438987655+438702825+437931369+437105721+436618546
2831+436220543+435737559+435311911+434883968+434255875+433432073+432512863
2818+431782525+431439811+431365409+431408373+431208823+430601039+429945551
2804+429334374+428692459+428309725+428285373+428188318+427721552+427047501
2791+426391015+425771804+425171954+424824150+424819709+424754540+424359630
2777+423924301+423740369+423745010+423842315+423703643+422974452+422059284
2764+421471660+421204195+421154644+421208187+421092269+420670513+420206741
2750+419819816+419253349+418620216+418391275+418509613+418382168+417754748
2737+417061112+416798886+416812060+416644645+416260090+415912136+415788683
2723+415807520+415728703+415475660+415144173+415016903+415189857+415253429
2710+414984193+414686614+414604553+414549413+414338186+414206874+414221794
2696+414077957+413851435+413840507+413898017+413710193+413241955+412711966
2683+412345224+412162715+412125913+412139436+412063912+411984471+411954082
2669+411897396+411816557+411657376+411395325+411132477+411035071+411186518
2656+411385271+411424417+411390685+411422970+411473968+411490560+411512491
2642+411583100+411777336+411973818+411852436+411490335+411378559+411742581
2629+412291033+412581053+412542305+412534920+412788338+413248292+413802733
2615+414314808+414740481+415098439+415473040+415939406+416385214+416819770
2602+417333317+417870367+418353301+418714278+419103250+419716373+420297510
2588+420415274+420229246+420391821+420972609+421480342+421782987+421949054
2575+421921110+421810781+421901649+422245860+422544163+422620860+422626648
2561+422578694+422435331+422460481+422705790+422777496+422610580+422597906
2548+422795760+422852097+422715171+422602297+422489373+422311080+422177198
2534+422096809+422047707+422182088+422516269+422743315+422725900+422651249
2521+422601099+422630441+422753844+422792666+422802247+422900251+422889472
2507+422723954+422705540+422909233+423037626+423099003+423359581+423657186
2494+423677695+423526348+423504442+423623753+423624451+423454541+423355989
2480+423363424+423282186+423112426+422964821+422798904+422606838+422513475
2467+422441569+422281788+422125900+421843066+421328247+420956790+420942469
2453+420848008+420338827+419767720+419583538+419700953+419569866+419001952
2440+418535361+418434812+418252303+417623910+416825733+416277031+415865405
2426+415361887+414970421+414801134+414489558+413907697+413353956+412946496
2413+412637415+412264311+411698419+411230331+411009198+410697796+410123122
2399+409520453+409080059+408599745+407953389+407435151+407069109+406504888
2386+405602269+404331911+402688750+400803423+398650681+396111164+393347944
2372+390549020+387733954+384991692+382367194+380036160+378442150+377691602
2359+377430774+377686462+379021241+381724705+385148952+387372153+386773351
2345+384066219+381938477+381324905+381279746+381493119+381871362+382087903
2332+382088951+382144266+382327274+382481491+382762079+383468790+384391668
2318+385312849+386289495+387009678+387262872+387572777+388399846+389395554
2305+390053761+390455507+390807678+391028012+391096499+391096400+391054633
2291+391089788+391363790+391821524+392225814+392432675+392440510+392242207
2278+391948544+391913365+392239737+392517456+392553833+392615135+392776612
2264+392925140+393150913+393468802+393612290+393614361+393892080+394372743
2251+394631924+394836939+395278829+395711464+396034417+396454751+396978628
2237+397538757+398030273+398282818+398446365+398904274+399717970+400654047
2224+401547758+402377448+403225077+404043114+404741242+405646056+407024448
2210+408443882+409553686+410628610+411895899+413469400+415353778+417149634
2197+418724657+420383587+422224403+424271107+426695206+429371949+431917804
2183+434318998+436818796+439539900+442456712+445407058+448311695+451225863
2170+454201208+457176903+459958985+462589072+465253839+467768456+469953483
2156+471943750+473718398+475140253+476193894+476815899+476873784+476400032
2143+475593745+474487010+472838310+470323543+466955234+463115618+458958837
2129+454441727+449633699+444624973+439571237+434655974+429823994+424899001
2116+419998059+415338334+410854183+406490791+402326300+398307318+394416929
2102+390785197+387353665+383918141+380540725+377497490+374891256+372514238
2089+370050045+367448776+364938849+362641496+360498186+358453129+356445771
2075+354444576+352595102+350997075+349419308+347622105+345740321+344082314
2062+342658613+341214728+339671242+338126683+336658820+335331103+334120276
2048+332880158+331520030+330131010+328908406+327943238+327068139+326139173
2035+325298880+324678347+324204969+323769042+323349232+322973010+322663654
2021+322344443+321720766+320724784+319786238+319022566+318058994+316869350
2008+315760295+314724567+313562543+312294556+311113195+310104464+309071706
1994+307746283+306294838+305296586+304839800+304544915+304196038+303669866
1981+302967472+302191999+301423961+300761587+300153429+299328629+298110542
1967+296902934+296365360+296254781+295893005+295267307+294621200+294021051
1954+293581905+293278762+292867161+292224971+291322627+290082184+289171407
1940+289423103+289982883+289952219+289627744+289382135+289193887+289003992
1927+288611078+287620760+286593616+286449754+286572783+286725951+287430990
1913+287982536+287731414+287297083+287498081+288118339+288588773+288822904
1900+288897580+288729866+288395061+288300749+288253843+287852721+287902197
1886+288720759+289457459+289881985+290204165+290566814+290953565+291178116
1873+290926844+289612225+287904093+288410031+290793386+292663793+293517659
1859+293956930+294415188+294974019+295440286+295655006+295496174+294898046
1846+293855857+293351666+294911719+297060194+298226585+298930127+299631947
1832+299384667+298187288+298179928+299391154+300498738+301847413+303103500
1819+303556219+303552177+303305895+302335237+301010738+300537335+300717649
1805+300501332+299401958+297795697+296899690+296922145+296712091+295497072
1792+294621674+296196847+298340632+299075536+298794598+298417752+298454429
1778+299153280+299404952+297912987+295407377+295307951+297595223+299710091
1765+300574835+300066203+299691753+300345320+300924286+301338432+300743074
1751+297711740+294424294+294437418+295917331+296548568+296302436+296050041
1738+296228010+295116384+292119607+292073125+295020776+297919799+299655775
1724+300098838+299940704+298757547+295119104+292397675+295727686+300631173
1711+303875754+304987280+304365823+304074980+305230418+305676500+305307264
1697+307678045+313507353+319883643+324052225+326475675+328006960+328229266
1684+329878640+336767653+344222683+349929961+354179357+358400534+362542420
1670+366952095+374384595+382436356+388176418+393434296+400389002+407107731
1657+411411269+413263587+418170142+427674496+433756524+439913802+451028208
1643+462079042+470170798+475536709+478621436+483756809+493988582+503142562
1630+509642404+514813754+519584157+524326417+530291279+536164226+539710578
1616+542910475+548599040+554065750+557514048+560016540+562924471+565780654
1603+568432946+571530996+574858038+577589372+579903091+582701241+586282873
1589+590581471+595223531+599970979+605162989+610822862+615962426+620314466
1576+627415405+637436001+645549563+653339174+663925837+674923128+684359892
1562+691165123+694987174+703847492+720361642+734782182+747111557+757687691
1549+768015622+776684124+781961412+785015450+790206661+805165175+820223838
1535+829585702+837730751+847854491+856908271+863572135+868926619+872767433
1522+876396370+883286680+891538566+899712507+907845431+913916880+916319372
1508+914263586+915381250+926672952+935845594+939832316+939938902+939911956
1495+942261754+943670435+940599480+935753778+937230722+941874629+944168737
1481+943584706+941254869+937287109+931186419+923547207+919720066+922704893
1468+925370658+923487327+921278148+922880841+923628644+918743022+915319872
1454+920878149+928416562+935227831+939897485+944071232+950833300+959631492
1441+967956431+972661415+973851334+978585858+987064989+993398115+998881142
1427+1005299197+1008715360+1009625738+1011300986+1012504477+1014765652
1416+1020060056+1024323524+1025625518+1025189391+1023900870+1022074425
1404+1022211650+1024539591+1023970331+1020011254+1017483712+1017551277
1393+1020024228+1021984605+1018469439+1010717753+1007096400+1009014861
1381+1012617251+1015601080+1016185810+1014812358+1015761160+1019667741
1369+1021830713+1021175923+1019324528+1015523336+1011801185+1011978630
1358+1013768647+1013892998+1012848988+1012536114+1011987811+1010329330
1346+1009029232+1008369752+1006707778+1003144110+1000351000+1001174252
1335+1003341415+1004101195+1003604588+1002893611+1002761775+1003848500
1323+1005931831+1007579733+1008164363+1009898692+1013929326+1018632713
1312+1023071330+1027298470+1031461638+1035366923+1038573805+1040813023
1300+1042357932+1044184476+1046944952+1050701733+1054216898+1056000030
1288+1056818991+1058180266+1060027969+1060930263+1060514395+1060114994
1277+1060399425+1060703217+1060055114+1058787751+1057682063+1056285558
1265+1054626578+1053296640+1051835464+1050164907+1049949538+1051641951
1254+1053493047+1055035759+1056946735+1058404817+1058997531+1060182759
1242+1062078964+1063319082+1063391737+1062407606+1061855711+1063244531
1231+1065016186+1065029858+1064272674+1064724469+1066042432+1066822670
1219+1066638938+1066386743+1067090534+1068406800+1069409094+1069353406
1207+1068856101+1069943425+1072433441+1073741823+1073480646+1073485835
1196+1073354498+1071269970+1068400313+1067677759+1069183246+1070813084
1184+1071689331+1071803802+1071165579+1070139233+1069410192+1068996620
1173+1067487340+1064457903+1061654713+1060512998+1060512798+1059661203
1161+1056775677+1053332269+1051260914+1050063910+1048059721+1045327788
1150+1042834777+1039676997+1035591373+1031947266+1028084597+1023092487
1138+1018011157+1013266752+1007785322+1001329941+995255198+990071173+984848026
1124+978572186+971504430+965102143+959810334+955144671+950885695+946478415
1111+941402174+936279027+931869951+927934227+924283633+921740323+920520465
1097+919281344+918103901+918080049+918330946+918556994+919933439+922182139
1084+924024751+925229939+926388820+927992112+930153686+932304980+934025138
1070+935787511+938460960+942470037+946319034+948169431+948868731+950094578
1057+952336990+955768922+959272610+960765123+960318716+959423009+959039077
1043+960028497+962453045+964848052+966078689+967116612+968948446+970555729
1030+970926387+970583573+970324492+970233973+970542855+971650239+972936165
1016+973822990+974703329+975455124+975455723+975147041+975084865+974539756
1003+973188560+972117204+971990458+972277284+972240457+971138563+969085671
989+967667310+967245654+966302541+964153741+961572208+959581292+958090975
976+955970019+953399164+951670025+950232901+947890289+945518436+944245983
962+943598279+943019737+943043789+943610055+943652570+943075725+942522831
949+942660955+943876323+945473925+946782906+948058353+949478611+950928010
935+952766930+955064831+956643771+957019419+958022212+960729694+962921408
922+962975799+962182886+961462028+961007039+961408935+962040071+961212029
908+958915325+956974908+956203752+955541677+954214632+952685792+951321223
895+950339388+950215037+950489388+949708750+947337196+945082109+944614745
881+945366341+946658455+947966537+948480109+949957253+954303654+959621412
868+964203642+968955532+973852132+977938953+981037452+982959006+983536251
854+983109106+982277969+981047133+979300728+977602526+975865702+974391453
841+974319596+975281871+976743446+979095538+981663200+982822679+981247931
827+977649931+975641850+976724783+978240749+978991946+980043142+981300925
814+981974078+982895234+985394632+988376764+990195025+991426960+992993425
800+994156297+994686436+995789629+997413479+999233237+1001986627+1005754885
787+1009462864+1012268450+1015127228+1018813750+1022758356+1026871624
775+1030459344+1032043973+1031855151+1031664033+1033108343+1035627202
764+1035883090+1033410638+1032963632+1036502550+1040301248+1041791964
752+1042015816+1042025696+1042006136+1042240766+1042763121+1042286475
741+1039931587+1038095562+1038394364+1038662627+1037815822+1037004745
729+1036491272+1035606443+1033036786+1028847869+1026882502+1027848070
718+1027317133+1025794879+1026026416+1026012943+1023116439+1017373433
706+1012364657+1012234418+1015427128+1015841199+1011942801+1009134022
694+1009020250+1008008475+1006873646+1007982527+1009817754+1011271345
683+1013341402+1015604473+1015618345+1012882521+1009706177+1008001389
671+1007845002+1008656678+1012391803+1018870437+1023212447+1023519832
660+1022892787+1023582207+1021781411+1017429820+1015646888+1018167843
648+1022629414+1025547474+1027982900+1030104255+1025800668+1017059860
637+1011474838+1011491804+1016674532+1019419039+1013985813+1008440211
625+1008466558+1007897098+1003499599+1001882435+1002895009+997985434+994917474
611+1005404686+1017493393+1016183215+1005288419+993983144+988794029+993120470
##END=
