##TITLE=Sample description
##JCAMP-DX=4.24
##DATA TYPE=INFRARED SPECTRUM
##DATE=24/8/2023
##SAMPLING PROCEDURE=Instrument type and / or accessory
##ORIGIN=Default
##XUNITS=1/CM
##YUNITS=ABSORBANCE
##RESOLUTION=4
##FIRSTX=4397.6552
##LASTX=599.8556
##DELTAX=-1.9287962
##MAXY=1.43928
##MINY=0.53901422
##XFACTOR=1
##YFACTOR=1.340434e-009
##NPOINTS=1970
##FIRSTY=0.67971742
##XYDATA=(X++(Y..Y))
4398+507087576+506015573+506117891+505145672+503545049+503109143+502987482
4384+501889333+500475648+500027513+500958556+502124606+502324884+502234439
4371+502617563+503013850+502834917+502231637+501432704+499966015+498273347
4357+497915879+498697203+499181801+499540069+499722027+499257039+499054849
4344+499159212+499811716+501324650+501535067+499850713+498365971+497957322
4330+498256939+499145650+500007236+499614907+498208648+497486554+498332799
4317+499964548+500920404+500462708+499583691+499357311+498677371+496976210
4303+495609704+494823800+494548196+495808559+497732099+497869856+496608025
4290+496017330+496193641+496513400+496939347+497291389+497528352+497498337
4276+496976210+496275904+495420765+494686176+494839630+495603746+496189505
4263+496203601+495578488+495064943+495578711+495973353+494813884+493749352
4249+494101128+494163114+493291923+493334033+494071335+493613773+493119970
4236+493762203+493991695+493227091+492336067+491924084+491750797+491404891
4222+491940625+493693012+494438674+493294724+491904563+491125729+490723394
4209+490532454+490180456+489468011+488942504+488647779+488521449+489241898
4195+490300116+490859062+491274337+491650213+491516991+490734200+490079384
4182+490118292+490229948+490042209+489923394+489602834+488966961+489160835
4168+489865099+489338924+488156600+488097593+488771263+488961224+489119526
4155+489440175+489030548+487941070+486811127+486256361+486734600+487608770
4141+487792329+487380212+487137957+487064454+487009760+486936523+486246667
4128+485144650+484811639+485199344+485427013+484994619+483969662+483528686
4114+484120804+484720526+484839786+484443277+484018842+484381112+484862553
4101+484577433+484097282+484044366+484192440+484057217+483684764+483531087
4087+483329031+482669145+481952876+481406514+480906797+480829915+481272358
4074+481324740+480943216+481168706+481746106+481758601+481348752+481015741
4060+480876427+481049269+481370185+480924184+479728564+479041376+479173220
4047+479383680+479003223+478407948+478696403+479651058+480228369+480101639
4033+479484575+478835806+478303407+477907654+477873414+477829392+477612573
4020+477929442+478731354+478988372+478428136+477674115+477099383+477191562
4006+478137324+478582257+478052348+477846912+478011483+477891512+478025979
3993+478747318+478990106+477835351+476313923+475979534+476907820+477806403
3979+478097082+478508487+478595242+477596031+476248913+475270068+474994686
3966+475851248+477314379+477430081+476144861+475290879+474834295+474827491
3952+476171185+477984047+478721127+479148985+479527263+477680029+474842032
3939+474122027+475330320+477459741+478842610+477703952+476378178+477134511
3925+477871102+477103829+477137090+478306253+477422300+474121583+471984070
3912+471907187+473351909+476520604+479612150+479471724+476722794+473795731
3898+471905897+472451503+474188238+473612350+472143438+474300650+476536257
3885+475282474+473857406+471417875+468913957+470651804+473994897+476141482
3871+475778633+472652760+471735145+472267367+471017720+470478561+472202579
3858+475160102+476509710+470501328+464444078+466296515+469944650+472683175
3844+473809560+473752287+472809416+469641298+467322406+467976466+468127341
3831+467456117+468042188+469214240+470305052+470157023+466890723+465772653
3817+466633172+465271113+465349953+467591918+469084709+468413707+468507265
3804+470093035+467883175+464549953+464408193+464541104+465252971+467105230
3790+468850058+469684831+469149541+468216808+468457818+467960325+465745173
3777+465502829+467591207+469501095+469515057+468321883+467649058+467226802
3763+468018487+469376144+468601534+467796954+470099172+473573664+473580646
3750+471225023+473563259+476821866+476896704+478814952+483529887+488347985
3736+489989516+485511811+482210071+485377255+490741448+493133133+491367494
3723+487390172+482908376+480635818+481995475+485655527+488115602+487021588
3709+487169707+490581146+495228136+499802556+504266388+510037851+516733999
3696+523093890+528914934+532798920+531736300+529842064+532211782+535339835
3682+536931342+537710576+538466465+535694546+530472290+530709075+531356377
3669+529194496+529361290+531393195+533065809+534867599+537613461+540374041
3655+543958055+550043853+556232636+556325883+552165847+552806434+556129251
3642+557791727+556793583+555727806+556264697+558019441+560613760+560432692
3628+553687986+549416428+549850290+551235427+550927184+547319380+544515667
3615+544551818+545280939+545791994+544669122+541332520+539271979+539447800
3601+539764492+539318935+538834604+538038251+536752630+537196408+539112165
3588+537265953+531873435+529366671+529133176+528468221+527254548+526394162
3574+525918947+526892545+531115189+535662885+533043264+526890722+524316190
3561+523202744+521413717+520974164+522212027+522328930+522033315+525100893
3547+529583046+528635149+523213683+520104351+520643776+522444721+523238940
3534+522956977+523080283+524547950+527777743+531092734+530466287+525979511
3520+522671812+522394029+523147161+523436239+523581956+523786503+523586447
3507+524587881+527245744+527958144+525559967+523282962+522582923+522604845
3493+522544415+522105663+521783679+522058928+522509020+523108119+523567238
3480+523397642+523331920+523497825+522965737+522127896+522175609+522436183
3466+521989338+521932198+523016562+524242864+524555198+523599031+521755576
3453+520443409+520753164+521775631+521875681+520994085+519987403+519828302
3439+520963136+521491266+520118358+518904551+519421832+520439229+520593173
3426+520401522+520779133+521294946+521011026+520413661+520437895+520538523
3412+520392406+520602155+521003289+521032726+520741069+520729908+521014317
3399+520606691+519343837+518293223+517922949+517679939+517016852+516430425
3385+516691845+516930898+516485430+516548618+517462052+518138657+518151152
3372+518262052+518984991+519348195+518429069+517337857+517082796+516672546
3358+515941736+515614728+515195897+514772707+514781956+514346005+513214195
3345+512493034+512671212+513392106+514481806+515581867+515763825+514681506
3331+513285742+512497259+512251980+511925017+511149963+510459128+510594129
3318+511606947+512606558+512862953+512908709+512817508+512044988+511139691
3304+510388293+509275292+508374753+508297381+508436295+508319214+507732521
3291+506610982+505430703+505059985+505578110+506022510+506345916+506592217
3277+506296692+505838374+505462630+505082618+504805324+504451458+503950096
3264+503716557+503785125+503614862+502807347+501468100+500095502+499505296
3250+500648446+502232882+501599855+499526373+498778533+499657906+500460930
3237+500178744+499280250+498651892+498471268+498303629+498164937+498504218
3223+499228980+499506586+499343349+499026746+497911077+496644533+496714701
3210+497518436+497223355+495963036+495428102+496323172+497288099+496596909
3196+495361002+495194030+495309821+494585592+493983736+494899749+496149752
3183+495820031+493968484+493197476+494841987+495927819+494435739+493011872
3169+494814640+497813206+497525417+494410216+493994230+497758067+499308264
3156+495880462+493099916+495729809+500062197+498672391+493245544+492777266
3142+499540870+503233338+497292368+491042043+494057817+502085253+502495369
3129+494698315+491374698+498739135+505810582+500271190+490748162+491750308
3115+502565938+507078194+497914145+489764204+494350230+504491567+503778677
3102+492743471+487847779+495993674+505821210+501323005+489238519+487004157
3088+497170484+505118414+498086987+486849324+485534356+492843165+496203734
3075+489793063+483775832+485999610+493883997+496602467+489330743+482060886
3061+482871291+489377032+490931988+484587971+479478217+480082296+483401734
3047+483739725+480344561+477700528+477676694+478800100+478756433+477187960
3034+475891979+476265899+477773631+478256939+477401223+477810494+485583803
3020+515985492+575027456+622684750+612830489+573066386+540799542+521030592
3007+507860763+497914812+491184603+487784103+485916725+483205680+480159090
2993+478961247+481476371+485118370+483565371+478233016+476077716+480367683
2980+487542693+488105997+481325851+476434295+477820321+483616108+486320927
2966+481530887+476134945+476912267+485655394+494228347+490154932+479794908
2953+476132410+481824590+490817308+490823222+481736368+475603212+478031049
2939+486864043+491316580+484527541+476369862+475739903+483120838+491304352
2926+488556400+478192640+472636974+475794019+483435351+485045978+477700439
2912+471124129+471068679+476080829+479962548+477241365+472077049+470497415
2899+473682430+479002067+479865210+474808815+470432583+470961158+475025546
2885+477398555+474668834+470577500+469518170+471596098+474043010+473514746
2872+470573498+468590195+468932989+470895837+472294180+471180779+468959713
2858+468380045+469762737+470944928+469974265+467626602+465872659+465449024
2845+466027047+466537391+466220610+465677628+465808582+466619743+467340415
2831+467308043+466646512+466089878+466252048+467117325+467914257+467694725
2818+466778889+466430804+466688800+466536813+465944695+465692568+465723562
2804+465505586+465282853+465315046+465235851+465179201+465520260+465774921
2791+465586427+465275960+464924407+464542571+464393297+464525674+464606203
2777+464507176+464743916+465436440+465849669+465675938+465415096+465359824
2764+465278584+465275827+465701684+466295047+466610094+466514713+466107798
2750+465822322+466004191+466411283+466773464+467135912+467208571+466808993
2737+466722728+467279718+467530376+467175265+467033595+467255350+467280562
2723+467206214+467362470+467553899+467684098+467759958+467711756+467613751
2710+467584626+467775210+467996520+467973042+467995942+468306142+468650936
2696+468740626+468597354+468456573+468559913+468985682+469658151+470443299
2683+470926430+470783514+470377177+470189261+470177522+470278195+470754388
2669+471514012+472157223+472501262+472433405+472140503+472126630+472523673
2656+473010894+473416074+473821388+474155422+474392118+474772931+475397109
2642+476045033+476366794+476287199+476250203+476644044+477226913+477660641
2629+478124651+478756611+479250191+479426680+479513879+479842665+480503129
2615+481209037+481535112+481472547+481535245+482030915+482710321+483153832
2602+483361358+483852715+484680373+485275515+485437151+485360180+485386682
2588+485783147+486321104+486792718+487313556+487767605+488028892+488457817
2575+489240431+489856339+490027535+490194552+490577010+490923628+491143693
2561+491469234+492027113+492644177+493127530+493377833+493516880+493782524
2548+494193129+494651003+495012472+495303462+495654260+496004613+496331220
2534+496616341+496993463+497520748+497974398+498550019+499157389+499267311
2521+499216129+499447000+499617397+499595875+499850135+500528519+501122683
2507+501292456+501319092+501436128+501584158+501876482+502273080+502393185
2494+502232927+502210693+502505596+502946528+503333077+503564570+503747640
2480+503976776+504022266+503768494+503508231+503490000+503664665+503825990
2467+503767827+503582490+503532243+503605524+503642743+503627580+503807670
2453+504282307+504571874+504289822+503763514+503429881+503241564+503148940
2440+503247345+503291767+503030170+502637974+502326307+502022199+501622577
2426+501213395+500876560+500500283+500109198+499865298+499608326+499281584
2413+499084464+498936256+498696492+498463442+498261741+497837084+497160302
2399+496655249+496684330+497513056+499700727+504228547+512312455+525071456
2386+542857905+564230457+586307895+607091176+626180853+643630733+660492186
2372+678419327+697362754+715746389+732114173+744878066+752746755+756521620
2359+756306135+748889894+733851086+715398882+697605897+686975204+689214235
2345+699294208+701646184+693586199+684721500+678195259+674951682+677130816
2332+682220338+683500845+680359675+679019316+681544623+682615247+677352971
2318+666877512+656907683+653715909+656584721+657406154+650916732+638261649
2305+623485995+611377052+603159076+596042896+588189992+579228801+568944370
2291+558520358+549227712+540996619+533821520+527807669+522658828+518366148
2278+514917269+511980200+509254837+506641931+504521137+503215551+502315012
2264+501321627+500240731+499140536+498076137+497360935+496988971+496620521
2251+496171941+495662575+495278072+495332321+495684497+495862186+495709221
2237+495466655+495351797+495503651+496022488+496641954+497042154+497423011
2224+498051947+498761057+499270601+499598988+499906652+500252247+500755833
2210+501494513+502374864+503276204+504008526+504553598+505206102+506095169
2197+507002556+507780500+508585214+509567572+510605379+511488799+512175409
2183+512714612+513252836+513959545+514673458+515279183+515988248+516780422
2170+517449690+517987870+518520048+519184869+519877882+520297203+520529452
2156+520861752+521238029+521543337+521746816+521817696+521742637+521464675
2143+521168661+521124505+521144782+520850946+520181678+519308531+518302072
2129+517077059+515593118+514055682+512650713+511291189+509939891+508656138
2116+507379233+505978577+504419753+502724061+500902839+499100649+497419276
2102+495897670+494638063+493467344+492012884+490360413+489066344+488174476
2089+486990372+485276360+483649369+482451436+481363559+480142549+478740514
2075+477301306+476091012+475084242+474331688+474015485+473702840+472768906
2062+471542693+470586838+469853182+469302329+468956778+468798922+468783892
2048+468692468+468538391+468636396+468969096+469124951+469225001+469711778
2035+470476516+471266289+472062731+472963359+473900806+474635262+475109366
2021+475689656+476621633+477044200+476372619+475462075+474733000+473926685
2008+473047446+472090834+470951687+469551831+467897182+466195798+464931922
1994+464393875+463690412+461910144+459666978+457562859+455755867+454262276
1981+452721728+451130488+449834506+448859708+447934312+447030660+446338136
1967+445499717+444125697+442791074+441941004+441251371+440548175+439819099
1954+438937191+438052794+437416876+437101474+437252749+437707377+437394020
1940+436164916+435251882+434943817+434917582+434897661+434720328+434586527
1927+434863644+435803447+436805103+437067145+436841344+436441499+436083720
1913+436067579+436448080+436874115+436820400+436604647+436796388+437171509
1900+437548364+438172676+438613785+438328220+438001524+437929354+437609061
1886+437327098+437311801+437607015+438307143+438643044+438241599+438165383
1873+439372520+441209439+441709422+440783314+440764060+441850781+442827759
1859+443016787+442722506+442554511+442881208+444253627+446655273+448702919
1846+449351910+448729287+447661153+446891924+446517070+446702274+447310667
1832+447132533+445209750+443361848+443091446+442616364+441182803+440094615
1819+439739682+438715792+436700340+434863155+432891902+430623301+428789540
1805+428115514+428952244+428581836+425153544+422137058+420809906+419485288
1792+417397711+415248281+414298651+414237642+413573532+412287734+411138315
1778+409899118+408551155+406921762+404943129+404833607+406128077+405888935
1765+404827159+404330467+404278307+404501486+404081142+403578268+404900352
1751+406924119+406690669+405325853+405189963+405021612+403578179+402119183
1738+402380469+403800468+404682598+404625903+404242334+403572799+403672627
1724+404584949+405350710+406090058+407209995+408148064+408068513+407575867
1711+407419656+407709223+408122629+408950554+410301897+410486967+409103653
1697+408808928+409423724+410881742+413413097+416232373+418209228+418722373
1684+418936347+421042067+422999801+423692058+423666623+423953211+425276806
1670+427005581+428641688+430715436+432911334+434632951+436510378+439162637
1657+441922328+443370297+442556512+443904075+446640910+447975355+449148875
1643+451850092+454600000+456589439+457471525+457372987+459025769+462092013
1630+464810616+467032928+469034862+470743005+472829337+475350330+476971007
1616+478010460+480712878+484240820+486978100+488851214+490974765+493843132
1603+496867044+499408892+501678338+504156689+506982190+510252581+513749485
1589+517238340+520982923+525072879+529073191+532894079+536639952+539833237
1576+542912110+547022520+551051779+554814816+559571861+565030368+570342224
1562+575182600+579448421+584861483+592387557+600354474+608707272+616594238
1549+623740033+631244629+639301858+644467996+645825297+652552438+662895610
1535+671404931+678719699+685843528+693058957+700226941+706119398+710581229
1522+716280256+723944133+732303245+740880467+748900744+757447683+766970044
1508+773806440+773483079+776263758+783256321+789553513+794053185+799039590
1495+805768643+812138316+817465513+822643302+829017333+835514982+841023870
1481+845776913+850320607+855138126+859032162+859875339+861090703+866937270
1468+873446569+877427937+881162516+886980536+892040932+894411451+898527998
1454+906055851+911799433+915603647+919330666+924529176+931045767+937569473
1441+942904230+946114190+948005714+952230848+958133711+962537690+967192907
1427+973616830+978133132+980161079+982771273+985305696+987299849+991691289
1414+997078426+1000989271+1003228524+1003826600+1002980400+1003242842
1402+1005475158+1006349195+1005362124+1005209158+1005881406+1006872746
1391+1007253558+1005038051+1001079182+999942347+1002209970+1005277548
1379+1008017496+1009635816+1009247622+1008267310+1009064419+1010974263
1368+1012744037+1013335443+1011486074+1009989504+1011700226+1013344959
1356+1013026934+1012969127+1013753163+1013123960+1011654247+1011057860
1344+1011325550+1010985380+1007816773+1003854970+1002391127+1002583312
1333+1003185302+1003725839+1004692367+1005673479+1004952675+1003560156
1321+1004682762+1008661462+1012456782+1014413938+1016512676+1020189804
1310+1024814071+1031746782+1040078948+1044296790+1044272867+1044233647
1298+1045150106+1046535954+1048301904+1050155897+1052483639+1055101659
1287+1056404533+1056902026+1058260394+1060209101+1062142957+1063980053
1275+1065553729+1066074879+1064924970+1062986935+1061560533+1060665241
1263+1058883372+1056070766+1054802042+1055999263+1057112976+1056653368
1252+1055903304+1056146626+1057420952+1059520935+1062275557+1064035370
1240+1063569715+1062844819+1063048832+1062956964+1062611102+1062748149
1229+1062991915+1063320168+1064158276+1065059349+1065241751+1064966235
1217+1065369015+1066689853+1067928516+1068002687+1066745792+1065306850
1205+1065339933+1067826955+1071229723+1072709929+1072476568+1072477102
1194+1072877569+1072935820+1072263395+1071116155+1070728850+1071764212
1182+1073166068+1073741823+1073355319+1072651500+1072292565+1072503426
1171+1072476212+1071040472+1069064996+1067933852+1067619295+1067836559
1159+1067047721+1063992326+1061072644+1060263529+1059993705+1059059905
1148+1058158832+1057529717+1056018651+1053371638+1051219896+1049846231
1136+1047602621+1043750472+1039419774+1035213849+1030533909+1026506740
1124+1024260283+1021799586+1017100704+1011185924+1006113077+1002219308
1113+998715778+995605245+993463286+991338935+987107752+980879572+975545349
1099+972767694+971115312+969432515+967455883+964197631+960471768+958282496
1086+957092746+955913756+955596175+955356945+953064598+949528430+946746773
1072+945311033+944542204+942716491+939786226+937611005+936485109+935613206
1059+934958479+933963760+932134045+930548808+929143038+926903607+924894425
1045+924026613+923747452+923570119+923039809+921888656+920736791+921076072
1032+922640587+922736546+920840665+919436407+919849414+920736613+920591652
1018+920092735+920669379+921965494+922400734+921901373+921883320+922690657
1005+923603024+924324807+924955611+925585704+926330076+927235596+928089800
991+928437619+927664343+926024501+925050414+924880196+923655406+920819677
978+917757079+915530010+913945217+912562659+911495104+910461164+908828170
964+906735835+904459497+902194720+900630294+900001535+899572520+898865322
951+898636141+899820200+902121973+904532867+906607949+908405025+909725330
937+911195398+913962915+917001323+918725029+920070947+922688344+926155233
924+929091457+931472736+933659163+935245556+936188694+937164738+938264221
910+938726674+938656862+938630626+938193963+937544394+937548218+937231971
897+935485409+933246779+931737224+931256806+931375532+931083920+929869001
883+929083364+930035573+931731621+932903585+933670368+934921572+936597432
870+937922895+939743894+942537113+945782024+949923472+954864876+959718681
856+963716591+966886709+969796786+971931720+973327618+974242298+974260351
843+975358678+978821476+982779544+986477571+989509042+990212949+988890688
829+988163391+989379377+991943415+995296380+998322604+1000075480+1001893100
816+1005626256+1010377520+1013855081+1016295323+1018897335+1020514588
804+1018918946+1015833404+1016789170+1022849089+1029172873+1032439306
793+1033865352+1035374196+1037011725+1038792527+1041725193+1045609713
781+1049157531+1051492121+1052268865+1053463240+1056526549+1058679181
770+1057837249+1055561178+1054895867+1056297457+1056321202+1054237938
758+1053744981+1055713609+1056635315+1055336621+1054487752+1055437027
746+1056603743+1056559366+1055891565+1054289964+1051402387+1050062695
735+1051152484+1050066519+1046210547+1045779487+1049291999+1052115277
723+1052417739+1049293422+1044374696+1042013248+1042991337+1044302838
712+1043979476+1043081872+1042691899+1041473423+1039589814+1039756742
700+1040454691+1038367248+1034773451+1031831002+1029403032+1027328751
689+1028310842+1034406334+1041650934+1045476847+1047411948+1049298224
677+1047706050+1041824799+1038334787+1038745837+1035783200+1033993772
665+1042479971+1049546348+1049290665+1045410502+1041542346+1039636238
654+1039077025+1036629134+1033593661+1035193483+1038488642+1040421786
642+1042507273+1039410169+1032884240+1032002110+1034570505+1033808168
631+1028925016+1022793150+1017660628+1012018785+1007054970+1009921025
619+1011925494+994394774+971430403+969793407+994262885+1027955820+1046492821
606+1047497235+1047636415+1054116811+1061071666
##END=
