##TITLE=Sample description
##JCAMP-DX=4.24
##DATA TYPE=INFRARED SPECTRUM
##DATE=24/8/2023
##SAMPLING PROCEDURE=Instrument type and / or accessory
##ORIGIN=Default
##XUNITS=1/CM
##YUNITS=ABSORBANCE
##RESOLUTION=4
##FIRSTX=4397.6552
##LASTX=599.8556
##DELTAX=-1.9287962
##MAXY=1.3408743
##MINY=0.3881326
##XFACTOR=1
##YFACTOR=1.2487865e-009
##NPOINTS=1970
##FIRSTY=0.56493396
##XYDATA=(X++(Y..Y))
4398+452386334+452489956+452508475+452049789+452262331+453433150+454061229
4384+453330100+452262952+451823931+451952325+452341563+452518451+451952038
4371+450704422+449900935+450309743+451085786+451404193+450823318+449510933
4357+448967335+449544678+450099969+450353320+450861216+451583228+451517981
4344+450427254+449281685+448809730+448921514+448795745+448498769+449066518
4330+449948092+449717222+448777417+448475238+448752120+448863379+448668258
4317+447939086+446582646+445739686+446347051+447111209+446830842+446337457
4303+446083199+445703745+445169598+444596265+444446392+444947319+445791043
4290+446534439+446178754+444839067+444407397+445584706+447212731+447887156
4276+447543786+447163044+446617394+445712861+445090605+444975193+445430920
4263+445748229+444925984+444162208+444930948+446046065+445848653+444761363
4249+444113236+443868668+443239538+442642435+442435430+442335053+442496142
4236+442896979+443526539+444034386+443463535+442302788+441654327+441489134
4222+441756708+442013162+441543355+441073739+441150250+441424698+441995597
4209+442291285+441701914+441179175+441269814+441309716+440900240+439843163
4195+438665615+438888132+440202952+440630900+439960054+439437410+439406767
4182+439209594+438855342+438843027+438712820+438250554+437974293+437721133
4168+437254094+436846527+436555374+436367126+436564347+437192427+437503054
4155+437266647+437485489+437906182+437371605+436561817+436260498+435795607
4141+435145380+435510945+436782426+436948335+435782051+435143328+435102041
4128+434870217+435184710+436040939+436102177+435399638+434802535+434431673
4114+434483317+435055218+435390379+434854800+433885641+433306103+433356076
4101+433675581+433780921+433660498+433487859+433128929+432919728+433309062
4087+433681547+433446286+432779258+431897684+431326308+431181256+430677227
4074+430037788+430149762+430676177+431044176+431347739+431302491+430601670
4060+430048956+430368318+430835882+430661094+430307558+430094443+429495335
4047+428624883+428363990+428897087+429592609+429949630+429713175+428998847
4033+428258316+427583365+426729713+425902026+425897301+426808277+427640498
4020+427729705+427613865+428217936+429073211+429062328+428116701+427072558
4006+427091841+427785645+427662215+426950178+426647617+426777730+426981537
3993+426986930+426537456+425646909+424947330+425030189+425608200+425773680
3979+425060736+423973159+423334197+423461398+423906862+424093153+424214960
3966+424553271+424397002+423569697+423199360+423307134+423004335+422660106
3952+423005289+423244035+422627697+422058659+421296745+420178620+420532014
3939+422075699+422966819+422460594+421078380+420846173+422277883+422888351
3925+421477976+420400947+420743840+420378180+419373223+420032375+421908787
3912+423074403+423431901+423507648+421719394+417417962+414448437+414151747
3898+415205579+417572178+419599225+418775118+417497671+419004604+419810717
3885+418441962+417740856+417053973+417415671+419035629+418849482+417480488
3871+415958329+414426385+415053797+415511194+414605135+415466089+418035780
3858+420184587+418882320+410712653+407345966+413041641+418426259+420448582
3844+419584429+417656660+415543937+413060829+412426305+413715255+414807558
3831+416107963+417737610+418556324+419056582+417599384+412850196+412347646
3817+414809276+415911220+418524154+421645222+422308813+419969372+418456616
3804+418420866+415738914+414522037+416946246+419031094+420555306+421742448
3790+422191731+422119372+421225722+420442329+420978624+420933185+420211793
3777+421198946+422772701+423325033+422374728+421159950+421213456+421838003
3763+422907156+423184039+421565751+421171215+423183800+424086996+421570715
3750+421548139+427019769+432440375+436227039+442028006+449403063+454829874
3736+455881844+455495995+459528993+466399925+471044727+470671239+466715373
3723+462233187+457824839+454234203+452790035+454747492+461163461+473318396
3709+490136748+508335643+525779259+541423738+555264928+566790112+574517799
3696+578143230+577627030+571069637+557348726+544925549+539604125+535684152
3682+530153480+523504445+515683780+502712137+490089972+485938794+480277485
3669+473437148+472390667+472570084+471247532+469830904+469595881+470479317
3655+474373087+481537892+487346640+487103646+486072152+488253940+488852809
3642+486119405+481873960+478443171+476550054+475961781+475416657+470067263
3628+460276446+456929089+456428115+452362183+443057114+432618695+426769234
3615+422643018+418657607+417425933+418265123+419322821+420826460+421943248
3601+421285958+419126173+416248051+412702806+409267626+406716789+402783069
3588+395789041+390563770+389124948+388267692+386239428+383507550+381228035
3574+379610177+378184552+375852390+370840758+365111458+364149697+365768152
3561+366096511+365526781+365149069+363999157+361589672+359524655+358538672
3547+357370145+355764052+355003378+355178667+355328706+354949825+354108440
3534+353168397+351902715+349798750+347726598+346937883+347070214+347281969
3520+347465467+347605459+347517039+346907622+345701746+344303351+343289565
3507+342949679+342198575+340560289+339827012+340189188+340326435+339939058
3493+339003263+337638995+336528197+335948778+335689151+335593523+335305258
3480+335030834+335249915+335318026+334627539+333807274+333439371+333001448
3466+331904157+330593538+329895391+329801983+329540255+328827526+328204577
3453+328054610+327974232+327287731+326147317+325447594+325189136+325110763
3439+325478452+325735573+325435924+324968193+324246086+323417325+323142710
3426+323262632+322961885+321998048+320952831+320397373+320458085+320863886
3412+321195562+321308611+321217089+320956697+320639221+320525623+320987603
3399+321773550+322133864+321865191+321353286+321318109+322006663+322591428
3385+322347002+321561891+321287013+322258797+323931497+325278057+326124884
3372+326802078+327349374+327939604+328759272+329795324+331509000+333982157
3358+336474835+338442244+339697186+340591194+341540234+342250983+342601059
3345+343022396+343784955+344940476+346330709+347590758+348405367+348677381
3331+348698668+348524119+348004363+347332491+346634320+346437481+346919483
3318+347105224+346769348+346517285+346353452+345931471+345727854+346265366
3304+346593940+346191361+345912856+346308586+347124125+347328315+346448650
3291+345954190+346934923+348194591+348849089+349720234+351031379+352202579
3277+353250683+354231846+355119625+356201975+357170872+357485866+357582281
3264+358000038+358766344+359772183+360363201+360201801+360215906+360684901
3250+360837757+361004000+361741645+362448049+363027993+363887731+364460611
3237+364148122+363501332+363456299+364053879+364763005+365335837+365728774
3223+366078994+366361770+366544099+366647172+366219630+365686629+366038948
3210+366739220+366838546+366615121+366731607+366931428+366782033+366917706
3196+367699978+368201215+367967791+367832500+368315719+368939742+369317692
3183+369372129+369083553+369120185+370029515+371156827+371950745+372492409
3169+372717289+372627604+372532144+372640730+372991284+373514405+373822216
3156+373792337+373769785+373825772+374062919+374435523+374244341+373538127
3142+373289549+373539368+373594806+373518247+373847775+374417362+374469722
3129+373951469+373588816+373638956+373656473+373419350+373061900+372876469
3115+373183182+373659027+373852238+373808971+373827084+373886747+373142039
3102+371798796+371549239+372800363+374092607+374048051+373147766+373035625
3088+374310423+375491789+375122144+374332307+374631407+375370221+375282063
3075+374527762+374121125+374531747+375390697+375680371+375153288+374665367
3061+374631980+374774049+374492322+373876604+373760453+374044733+373924597
3047+373531254+373592849+373822335+373625425+373296708+373063117+372604121
3034+372004942+371813688+372004727+372169086+372220061+372286788+372928161
3020+375082480+378407928+380267372+379070493+376596716+374669329+373579747
3007+373351120+373648693+373921304+374063706+374170383+374384524+375057947
2993+376177408+377378057+378536036+379529799+380448818+381771632+383691717
2980+385762962+387408694+388847732+390593411+392577931+394617436+396515779
2966+398074285+399393161+400712444+402134609+402970553+402498884+401403909
2953+400404251+399418649+398600580+397984862+397183833+395974043+394711416
2939+393799319+392671195+391134956+390164795+389967312+389916575+389482064
2926+388530542+387760823+387475874+387198109+386744865+385992520+385145598
2912+384706505+384612692+384715526+384881484+384842942+384695169+384710586
2899+384958950+385270126+385463050+385533452+385669220+386323743+387729727
2885+389511633+391335661+393446761+396284336+399780610+403596437+408064304
2872+413758451+420547240+427985682+435695231+443180544+449899264+455270470
2858+458461701+458717725+456184644+451667997+445666038+438591108+431210085
2845+424083320+417495810+411660811+406447973+401782074+397933004+394921333
2831+392308113+389933710+388191706+387021365+385889733+384713856+383650979
2818+382860784+382500589+382448659+382498322+382534549+382533332+382637336
2804+382833506+382920829+382876487+382677835+382407874+382405010+382652538
2791+382939801+383320687+383632269+383706298+383840587+384083294+384178635
2777+384148541+384085251+384137324+384421127+384731492+384965656+385230438
2764+385423387+385452025+385581779+386051729+386651338+386973850+387073749
2750+387386309+387982004+388638149+389221004+389728160+390269347+390846809
2737+391501761+392398728+393363782+394217004+395210267+396146683+396598114
2723+397002411+397594884+397863771+397797355+397896132+398251936+398352121
2710+397871289+397239677+396969215+397055248+397353036+397757715+397994623
2696+397959375+397820480+397666694+397546748+397495391+397477492+397546653
2683+397790744+397970042+397799956+397488899+397404847+397666217+398048701
2669+398151416+397907373+397651420+397664785+397842412+397973049+398153731
2656+398421163+398522016+398532278+398784317+399150001+399374046+399593103
2642+399957378+400362010+400731440+401178385+401697210+402158808+402662742
2629+403258365+403687124+403874894+404171584+404781479+405447695+405988190
2615+406474607+407004840+407731005+408569001+409208298+409682639+410288524
2602+411000943+411502681+411829202+412304021+412903749+413481378+414140005
2588+414882876+415523747+416048348+416541065+416890163+417102275+417468269
2575+417949388+418299106+418622048+419033624+419444055+419760744+420043544
2561+420459512+420940010+421270207+421478071+421730802+421953415+421987303
2548+422021478+422342033+422835800+423169672+423415291+423847534+424320205
2534+424629973+424862704+425096295+425382246+425798357+426250312+426570533
2521+426843597+427191215+427385142+427342185+427467190+427850224+428206576
2507+428510665+428797093+429098508+429447033+429690838+429831498+429913308
2494+429761287+429534188+429620150+429900039+430116256+430305601+430435474
2480+430431656+430349369+430270185+430231190+430120026+429834648+429547934
2467+429526408+429755798+429921947+429797753+429468177+429078652+428625646
2453+428187532+428030978+428169108+428229296+427895329+427173078+426429396
2440+426020874+425786901+425486584+425243256+424987137+424452274+423840231
2426+423429514+423066145+422645834+422255546+421950551+421749989+421445662
2413+420812905+420014763+419307738+418749439+418305216+417880418+417362929
2399+416843722+416547652+416747784+418285217+423091394+434244189+455132960
2386+487609632+530538709+580304256+633461023+688677867+745892262+804923023
2372+864523539+921416232+970776742+1010178282+1039043508+1056342787+1061972833
2359+1053244725+1026924752+985782402+934361577+883446881+856035608+866678837
2345+906024150+935780496+934443959+920369131+908563293+902296719+901183177
2332+901708590+899044107+892546138+882703247+868074463+848426770+825556247
2318+799485377+772747146+754332987+746632364+738037327+716863083+683811836
2305+649198242+622553466+603472280+586165745+568461141+549987464+530024847
2291+509836515+491356489+474814733+460304893+449363590+442802044+439192459
2278+436576136+434076227+431753396+429884717+428582546+427627945+426507912
2264+425027803+423595424+422483886+421422322+420095522+418619041+417397343
2251+416504170+415632142+414742168+414082156+413711723+413508107+413394032
2237+413347304+413346589+413468921+413823603+414297228+414736965+415194505
2224+415777766+416464506+417163083+417956882+418862798+419659842+420365818
2210+421254933+422417876+423634897+424694504+425738026+427032083+428505080
2197+429883667+431130042+432387252+433808796+435398206+436977451+438566814
2183+440250825+441914361+443517947+445190551+447106627+449255911+451359422
2170+453246430+455022560+456819549+458709898+460660577+462485345+464164154
2156+465921622+467815216+469514120+470616207+471285382+471962003+472535337
2143+472864817+473190050+473478578+473461490+473024570+472209388+471081813
2129+469747711+468330128+466685541+464779919+462873485+460876890+458533821
2116+455938214+453291964+450623615+447914887+445197950+442487121+439810611
2102+437246123+434858952+432581608+430307510+428135459+426224300+424650449
2089+423589123+423202128+423510178+424704479+427055041+430429747+434308863
2075+438222537+442006957+445585947+448749734+451289259+453254496+454950011
2062+456463005+457532875+458114083+458587661+459233114+459767548+459739244
2048+459210920+458441368+457361046+455890483+454173968+452339415+450285257
2035+447948489+445557452+443227080+440793277+438184925+435548031+433030939
2021+430518668+427676009+424584104+421845974+419574597+417306512+414844930
2008+412428453+410247333+408066356+405731927+403565985+401821738+400360673
1994+398751670+396875544+395309999+394275617+393516685+392948865+392432951
1981+391943550+391671107+391738979+392128791+392747826+393406286+393878885
1967+394512931+396031916+398277376+400617079+402962439+405420011+408033900
1954+410935505+414118622+417392665+420509056+423283938+425802891+428624453
1940+432085407+435514238+438358854+440530619+442002136+443082411+443922603
1927+444183829+443648250+442749112+442093253+441096936+439613915+438655926
1913+437814874+436164608+433929982+431830242+430011631+428229725+426361619
1900+424424447+422497442+420564375+418993006+417958409+416818711+415879575
1886+415846259+416186765+416387947+416490567+416796564+417515952+418442726
1873+419082022+418700946+417658187+418300586+420606950+422434581+423149052
1859+423364172+423544782+423537050+423159314+422445511+421263572+419446298
1846+416802435+413989369+412940835+412563004+410949729+408644988+406403107
1832+403205623+398377203+394230846+391745948+389205087+386924736+384941122
1819+382312533+379203994+376056054+372517038+368619640+365578067+363565601
1805+361662699+359066876+355492397+352319541+350635267+349258303+346747678
1792+344059212+343797293+344588968+344276002+343066904+341861458+340963703
1778+340690592+340312092+338529924+335853127+335640848+337866572+339853454
1765+340622338+340075638+339453930+339770261+340125468+340450581+340116686
1751+337720804+334772590+334274432+334992387+335061644+334171239+332902670
1738+332226288+330870253+327684272+326773344+328389149+329821528+330333051
1724+329622900+328342064+326555385+322622930+318576328+319502625+322195030
1711+323589773+323179128+321015382+318651885+317524239+315426336+312104515
1697+311566096+313646220+316497899+318097333+317893216+316873224+314295706
1684+310807809+312294624+315749182+317728165+317863886+317504335+317477606
1670+317084454+318256871+321146329+322751180+323222443+325019790+327363431
1657+328221259+326357090+323841764+326770910+329647695+331653646+337105898
1643+343968167+349272956+352840109+355166949+360176958+370243870+379837587
1630+388408734+397532358+407185498+417969578+431307646+444006035+455789439
1616+471952028+490599538+507524996+524914343+544838203+567215530+590766635
1603+615647643+642129564+669287534+696249094+722883513+748615643+772666768
1589+794538492+813144620+827537713+837151213+842114566+841990659+834309461
1576+818779057+806846926+797528922+781324188+763947681+753042749+744660063
1562+738100570+729415800+715371089+714038276+719695480+725210926+730552491
1549+735914199+740324790+743106163+744304474+746010155+756352780+769256504
1535+777898411+785442576+794497444+802169286+807644782+812785690+817389635
1522+822240250+830523705+839640908+848348301+857395342+864597520+868226818
1508+868374781+871760083+882881375+892332689+898154419+900709218+902961504
1495+907865480+912186481+912813463+912158989+916245350+922162444+925655997
1481+927290847+928990610+929767846+927190710+921590733+919431808+923929888
1468+928382243+928918346+928305111+929691955+930076182+926029056+924362227
1454+931473718+939324070+944057364+945657562+948126828+953275469+958654264
1441+962466463+963779040+964228275+969051110+976222455+980802822+984335036
1427+989376380+993451667+995558949+997179861+998130167+1001162266+1007791875
1414+1012633993+1013885666+1014479714+1015266019+1014659656+1013774932
1402+1014072577+1012756754+1009550154+1007668922+1007311615+1009061017
1391+1010718395+1007548356+1001140978+999145385+1002216909+1006589650
1379+1010787222+1013409415+1012535383+1010653387+1011383943+1012829018
1368+1013902276+1014730201+1012823099+1010212838+1011739054+1014010718
1356+1013652075+1012856701+1013241119+1013220213+1011710130+1009116861
1344+1006953544+1005876181+1004597111+1003396796+1003398705+1004207920
1333+1005600588+1006738568+1006586882+1006058605+1006989151+1009068176
1321+1010516497+1012227810+1016475689+1021561994+1024671798+1026992051
1310+1030746020+1035154940+1037949248+1039495320+1042133169+1046402050
1298+1051088091+1054208204+1055307713+1056091441+1057692307+1060454349
1287+1063169521+1064264067+1064917491+1066496497+1067957418+1068455147
1275+1068469371+1067733660+1066700877+1066266438+1064730962+1061307954
1263+1058266595+1057063607+1057342541+1058741127+1060866260+1062443833
1252+1062441733+1061913839+1062727636+1064351413+1065062495+1065196998
1240+1065405197+1064894867+1063806526+1063147088+1062825387+1063003993
1229+1063703811+1063852538+1064137582+1065798779+1067296739+1067032505
1217+1066269111+1066469672+1067281561+1068653322+1070749531+1072129693
1205+1071811238+1071247832+1071999294+1073371151+1073741823+1073311298
1194+1073218033+1072830274+1071640078+1070792392+1070387069+1070084556
1182+1070802511+1072176086+1072540171+1071338806+1068979414+1066995848
1171+1066443994+1066183578+1065393932+1064000788+1062205279+1061393486
1159+1061338405+1059778301+1056844335+1054251925+1052132138+1050384168
1148+1048591618+1045145508+1040448298+1036978896+1034403860+1030653519
1136+1026427023+1022896622+1019363835+1015095813+1009856199+1003648333
1124+997143396+991223055+985720544+979939194+973779822+967150595+959944598
1111+953001594+947082972+941244441+934615501+928196477+922823505+917879054
1097+913427367+909985267+906439879+902200591+898206349+894907344+892284100
1084+890585960+889748012+888240601+885398372+883439912+883209758+882545642
1070+880739155+879275847+878447063+877776360+877795834+878251942+877990763
1057+877816453+879042161+880535730+880928930+880450293+879493305+878427971
1043+878363249+879885265+881798285+883346743+884924890+886157566+886921533
1030+887708220+888341216+888670172+888944333+889467550+890161736+890560377
1016+890772203+891114046+891809282+892773047+893206054+893216268+893423416
1003+893597917+893628465+893392965+892798630+892523419+892866311+892703838
989+890939545+888257975+885909370+883914349+881811268+879935954+878521522
976+876530988+873269784+869634950+866271604+862917900+860182299+858723955
962+857407083+855808699+855461320+856352249+856927492+857401547+858799846
949+860633444+862219132+863670698+864957787+866279909+868131262+870707730
935+873910990+877336098+881017803+884690631+887309292+889193102+891593924
922+894569988+896748865+897198100+896782371+896266218+895913684+896176868
908+896310894+895388272+894295444+893549519+892003256+889554132+887128777
895+884719078+882287518+880619066+879816247+878554551+876865289+876337872
881+876679142+876973636+877809580+879244155+880577637+882724153+887112167
868+892663745+897939348+904078196+911681020+919021902+924798670+928245735
854+929033567+928916915+929222578+928762174+926838844+925446367+926248996
841+927694071+928381383+929900726+933545298+937395394+938543780+936843253
827+934925555+935576402+938682674+941362716+942687321+944603205+947537553
814+949971977+951741234+953415700+955221805+958066134+961565606+964039550
800+966624992+971225023+975934261+978177000+978816488+981454528+987922331
787+995138733+1000798658+1006389566+1012686687+1019045571+1024333774+1027512213
773+1029002155+1030249150+1031791499+1033718457+1036476204+1038961698
762+1039902171+1039354421+1039124267+1041881918+1044701523+1043262080
750+1040589102+1039874201+1040015005+1040349497+1041664460+1043777660
739+1044526354+1043106099+1041336173+1040558173+1040272175+1037873071
727+1032327985+1028588049+1031498914+1037459920+1039566724+1037772743
716+1034559269+1029856809+1025543540+1024333774+1026354855+1030037611
704+1032243312+1031457484+1030453435+1030221849+1029725742+1030342892
692+1031111537+1029749512+1029754380+1034069177+1038052823+1038332330
681+1038089479+1038955493+1039580280+1040339569+1041351542+1039808238
669+1035318845+1035140048+1039926132+1041158522+1037909537+1034601844
658+1035382135+1039165124+1041414641+1042219179+1042962622+1038555993
646+1030570851+1029488619+1034753817+1035645796+1030112833+1017226578+991547142
633+972243296+980590423+1001927188+1015172850+1019116211+1016983346+1016405240
619+1022456837+1027066033+1022272122+1013492275+1013185848+1024953883
608+1035291162+1035220999+1036161185+1039348121+1031502828
##END=
