##TITLE=Sample description
##JCAMP-DX=4.24
##DATA TYPE=INFRARED SPECTRUM
##DATE=24/8/2023
##SAMPLING PROCEDURE=Instrument type and / or accessory
##ORIGIN=Default
##XUNITS=1/CM
##YUNITS=ABSORBANCE
##RESOLUTION=4
##FIRSTX=4397.6552
##LASTX=599.8556
##DELTAX=-1.9287962
##MAXY=1.5619109
##MINY=0.59464669
##XFACTOR=1
##YFACTOR=1.4546429e-009
##NPOINTS=1970
##FIRSTY=0.83940864
##XYDATA=(X++(Y..Y))
4398+577054797+577678771+575921785+574802418+576271715+578338025+578958107
4384+578581911+577464839+576143831+575693798+575454911+575037412+575795089
4371+577062419+575894004+573511077+573320418+573964511+573729189+573976189
4357+574680721+575063841+575789107+576834759+577591822+577885001+576945147
4344+574972261+574128699+574665027+574457814+573827202+574439990+575251345
4330+575150996+574641589+573597863+572158108+571621248+572243911+572508407
4317+571485537+570042095+569214883+569301873+570123759+571389655+572926726
4303+573730090+573091365+572558725+573120212+573609868+573219823+572118731
4290+570657505+569044671+567660602+567495184+568884989+570440376+570407514
4276+569306709+569126703+569695648+569699499+569238280+569088432+569767027
4263+570321384+569085482+566901409+566262356+567304566+568227743+568602136
4249+568840490+568833237+568480111+568121248+568022046+567672280+567667076
4236+568890767+569435331+567887647+566725255+568077527+570174978+571254026
4222+571235710+569592226+567344435+566267682+566286490+566989096+567656054
4209+567280022+566767542+567233638+567269860+566060388+565095989+564641940
4195+563624110+562473725+562787801+564937496+567305468+568349481+568386072
4182+568076626+567468345+566709152+566073500+565932462+565753891+564998099
4168+564778553+565386423+565565978+565006130+564529176+564211739+563373914
4155+562355797+562294990+563178379+563556501+563261641+563661152+564648660
4141+564969867+564323029+563863776+564245749+564382115+563893032+563731876
4128+564000798+563468772+561533174+559547832+559087636+560250356+561862166
4114+562636684+562641683+562542563+561915885+560750379+560248225+560797050
4101+561540017+561705927+561645652+561800375+562194149+563173339+563807271
4087+562868851+561091746+559497924+558617730+558372574+558203714+558074436
4074+557626247+556785554+556810795+558124099+559627816+560151851+559234001
4060+557990887+557867838+558251204+558264276+558536230+559277517+559767255
4047+559374464+558646085+558801259+558912876+558029322+557533765+557731226
4033+557939299+558251696+558195847+557691152+557591828+557942905+558109347
4020+557730038+557291478+557343393+557374330+557428376+557610430+556824521
4006+555725601+555505726+555326705+555419596+556478852+557176541+556808623
3993+556178584+555673726+555429348+555734247+556400221+556983260+557597646
3979+558074313+557372691+555588456+554440119+554861674+555722528+555512487
3966+554924531+555442337+556364818+556440950+556449924+557217025+557639564
3952+557008747+556023656+555111502+554757228+554432825+553005691+552202286
3939+553572136+555411975+555290851+552654941+550663862+551886406+553356728
3925+552635109+551822075+551893782+551340326+550551303+551171220+553122103
3912+554559398+554799719+554560751+552654040+549187599+548314986+549107943
3898+549728188+552204785+554708303+553207454+550400390+550957902+551201460
3885+549194073+548323795+547491912+547376771+549860662+551791835+551319961
3871+548988212+547075847+547968948+547953214+546399711+547216721+549149205
3858+550759745+551090458+545503496+541087121+544852519+549393173+550693488
3844+548543629+545891411+544709925+543840385+544216048+546132838+547321372
3831+547802137+548710932+549536505+550113398+548516216+544007401+544235265
3817+546950790+547212746+548468767+550591664+550813915+548068150+545861827
3804+545170448+542770270+543256444+546599262+548430291+550139090+551885750
3790+552934189+553864168+553354720+551487838+550664600+549536833+548035574
3777+549292291+551460220+551418712+548738426+546565375+547455157+549503192
3763+551431824+551751515+549284629+547696256+548797349+549350149+545280180
3750+540242249+541523141+543889965+543109547+544243624+547317438+548114534
3736+545127096+542073277+542970230+546430156+549404072+549768221+548286713
3723+547368863+547412829+548517568+550437309+551389538+548037500+541009678
3709+539519032+543637024+547741043+548669874+547054048+547247657+549501717
3696+551047475+550477301+547452084+542519746+540796401+544177244+547895684
3682+549115441+548405091+546970008+542813376+539120505+540438644+539691293
3669+537146348+539096001+541896346+542215667+541131662+539476172+536168592
3655+534376449+536158840+535081964+526871386+522907994+526205084+529520039
3642+529848252+527166491+523904312+521881068+521063771+520769199+516543606
3628+508300656+506921259+508894104+508524546+505064251+500485450+498092688
3615+496520542+494562776+492882947+489990367+487048084+486566663+486331300
3601+484335591+481666573+479228616+476650482+475092595+475548406+475055594
3588+470832050+467262842+467063333+467340778+466533807+464974486+463305310
3574+461694975+460651822+460165608+457627015+452611046+451030213+452509509
3561+453053253+452415634+451734745+450405665+448103992+446448420+445931433
3547+445042593+443116338+441518664+441542757+442307810+442204880+441200203
3534+440148363+439140203+438001659+437163752+436742115+435893308+434538701
3520+433518535+432920662+432503286+432124141+431588141+430837102+429978010
3507+429607551+429435127+428394842+427133536+426362460+425577862+424879353
3493+424454684+423846485+422937158+422092408+421644669+421352187+420911455
3480+421031677+421769112+421651307+420148656+418866370+418955082+419183561
3466+418220146+416440418+415094293+414919533+414920147+414304327+413619095
3453+412886249+412239206+412175325+412243590+412109723+411831377+411143276
3439+410407316+410335732+410916764+411458992+411143563+409995595+409124047
3426+409391904+410472959+411350899+411269727+410429115+409813295+409867588
3412+409827923+409331588+409126711+409499095+409836446+409635626+409149001
3399+408792228+408804643+409425012+410221042+410488693+410332454+410387648
3385+410897547+411513244+412261578+413452161+414626804+415064422+415237011
3372+416206039+417527743+418466204+419573401+420698956+421416026+422438856
3358+423659309+424473983+425434325+426768199+427693465+428037987+428443644
3345+429123385+430107944+431424280+432225678+431842967+431180066+431511230
3331+432857232+434316778+435001396+434698464+434249127+434348001+434692277
3318+435024752+435473146+436040943+436386653+436221604+435951944+435816152
3304+435557310+435250117+434923419+434998773+436070691+437142117+437198581
3291+437034024+437537653+438490537+439402897+440393601+441492112+442017540
3277+442189760+443118755+444544414+445265664+445253330+445552943+446369870
3264+446874934+446882965+446780608+446869853+447217611+447425685+447485181
3250+447835931+448435402+448997421+449497895+450200993+451145518+451572769
3237+451049594+450546375+450943509+451676150+451762280+451444844+451501308
3223+451812885+452112006+452415019+452777734+453528978+454388315+454272887
3210+453102792+452217149+452858333+454702638+455932516+455806475+455344969
3196+455298011+455790577+456583247+457327812+457955023+458669020+459711108
3183+460747951+461442935+461843470+461756234+461261578+461222241+462205734
3169+463462656+463955714+463897979+464134244+464432299+464103184+463661879
3156+464020988+465090160+465994119+466454110+467038870+467972947+468810403
3142+468789137+467940658+467481569+468096938+469100181+469582380+469520794
3129+469486334+469732228+469867979+469743496+469848106+470144646+470192423
3115+470186277+470499616+470932849+471260899+471378416+470887694+469989185
3102+469470354+469731900+470428319+470886342+471325968+471922488+472098396
3088+471941091+471744409+471466923+471170384+471025249+471135842+471230003
3075+471198452+471212466+471351495+471686757+472060822+472327859+472542898
3061+472695654+472740973+472694630+472782030+473230384+473786830+473978186
3047+474040100+474475955+474855265+474657026+474237642+474023832+473925041
3034+473842803+473769088+473576872+473407644+473478121+473785068+474068086
3020+473898038+473745732+474397078+475248220+475544923+475768854+476251504
3007+476489899+476314483+476290184+476714854+477257205+478016644+479413087
2993+481028217+482124679+482614745+482819786+483009134+483506863+484480193
2980+485383292+485725273+485793907+485914580+486115688+486493276+486969862
2966+487009608+486533063+486240048+486173422+485742483+485201361+485141086
2953+485387226+485612099+485926627+486395837+486778179+486885125+486726918
2939+486473485+486371006+486316754+486105526+486057707+486250046+486062215
2926+485423243+484974234+484919696+484905682+484708181+484476874+484161691
2912+483799673+483946611+484512728+484994722+485354036+485686920+486210259
2899+486810303+487005183+486813581+486760887+487130076+487542207+487746469
2885+487914182+487925696+487703896+487619323+487851530+488096359+488030552
2872+487607112+487137984+487164905+487820102+488469481+488484560+488166181
2858+487994125+487798754+487534462+487387647+487161463+486795470+486683443
2845+486922576+487374248+488053867+488676243+489037729+489509930+490198031
2831+490654825+490733334+490883550+491389883+491957844+492338178+492653812
2818+492942771+493113966+493416119+494120856+494888326+495277470+495362535
2804+495471817+495884440+496508004+496982541+497332717+497652243+497688834
2791+497481458+497419421+497606761+497992626+498599022+499217178+499619311
2777+499828695+499912039+499938059+500021567+500320811+500602967+500449023
2764+500383093+501010141+501691726+501891645+502099350+502587204+503073254
2750+503372785+503480714+503547914+503654409+503890387+504493750+505219098
2737+505679949+505979192+506224348+506485198+506892740+507347117+507753347
2723+508170068+508702830+509404535+509938445+510014905+509883538+509875302
2710+510199131+510772377+511230360+511481785+511735055+512085313+512402873
2696+512682120+513096013+513580671+513932322+514070573+513974691+513939042
2683+514397885+515103687+515542493+515629525+515448783+515292871+515571053
2669+516194659+516615272+516759792+517024166+517284770+517267150+517205851
2656+517339390+517643100+518146483+518674616+518812088+518833273+519203035
2642+519683186+520103102+520491918+520812059+521203498+521587192+521790717
2629+521974410+522163757+522419157+522893735+523408714+523955491+524428675
2615+524556642+524760617+525357015+525980416+526434751+526923097+527605215
2602+528344330+528877749+529122126+529365029+529881401+530475217+530994335
2588+531446500+531546521+531406958+531665636+532285964+532729359+532880271
2575+533077322+533586975+533986117+533926375+533904863+534252498+534713513
2561+535047955+535230705+535224723+535071925+535225870+535818047+536262672
2548+536396539+536695045+537253622+537726110+538058421+538505053+539207700
2534+539889696+540123830+540110226+540195700+540361815+540712852+541143995
2521+541410254+541644306+541889380+542090733+542542856+543374125+543988224
2507+544011498+544035879+544504392+544902468+544763644+544627933+545014086
2494+545594994+545990981+546110793+546113293+546284120+546650768+546917313
2480+546677156+546143902+545985327+546173527+546362014+546620487+546802418
2467+546571398+546293339+546472074+546755460+546540339+545929149+545526484
2453+545551970+545670635+545621833+545413883+545066124+544640103+544354709
2440+544316601+544381916+544406010+544219899+543634196+542861727+542417266
2426+542340437+542256151+542181740+542241973+542136789+541677496+541091547
2413+540611396+540171279+539747060+539599467+539599713+539313745+538886371
2399+538659736+538414334+537745164+536964868+536708813+536537699+535747078
2386+534784073+533942970+532666666+530772699+528338676+525047159+521037301
2372+517210645+513861476+510440435+506907327+503992252+502370157+502185972
2359+502690462+503091775+504051420+506640044+510555085+513785753+514064386
2345+511245234+508131960+506343259+505303302+505308178+506157927+506674013
2332+506785589+507343757+508307049+509114593+509907058+510901204+512107890
2318+513651722+515259394+516545490+517510257+518318293+519108464+519906379
2305+520705605+521353837+521760969+522153063+522578798+522897505+523142620
2291+523420515+523688577+523913819+524240434+524644001+524972379+525110261
2278+524940582+524738736+524834742+525022778+525145869+525358285+525728785
2264+526183203+526489658+526538255+526609880+526883801+527205581+527491508
2251+527914457+528601246+529252961+529493323+529507213+529668124+529981873
2237+530416541+531027567+531662235+532216387+532795084+533358045+533806399
2224+534267454+534858484+535415627+535702619+535799854+536090206+536793591
2210+537585933+538055348+538482886+539261542+540032126+540481668+540962597
2197+541617876+542119580+542493931+543087133+543893735+544763029+545531483
2183+545960250+546423231+547403774+548516831+549291840+549673773+549909545
2170+550497502+551438094+552339349+553161562+553893220+554378779+554708180
2156+555111461+555587431+555900320+556072007+556426936+556892377+557103072
2143+557157037+557426696+557798590+557767243+557341140+557051771+556921838
2129+556510158+555725396+554743911+553741815+552808108+551934962+551088081
2116+550112702+549108967+548285934+547393120+546179755+544663418+543087502
2102+541810174+540772799+539649457+538353772+537011048+535756420+534600708
2089+533478144+532382215+531357706+530359954+529174001+527814682+526623279
2075+525565826+524378030+523203468+522206290+521187230+520042991+518894285
2062+517597453+516177490+515163184+514479549+513392225+511946283+510852443
2048+510104437+509242887+508289224+507318352+506238526+505230940+504456463
2035+503686575+502719800+501747207+500968018+500261929+499469832+498564972
2021+497516942+496323492+495190070+494463165+494101762+493629315+492811445
2008+491827501+490897522+490127512+489502841+488895872+488217113+487503444
1994+486634396+485496835+484500353+483930590+483557467+483154843+482603231
1981+482001670+481450059+480827437+480188753+479630913+478953671+477979725
1967+476955872+476392869+476250971+475973649+475347462+474581508+473940980
1954+473595803+473460789+473270335+472822145+472026443+470877983+469840690
1940+469482318+469350582+468975288+468570492+468228183+467813306+467382327
1927+466931515+466092829+465019641+464363870+463784600+463140794+463057655
1913+463067284+462535259+461954063+461892067+462032736+461932715+461610238
1900+461302963+460962580+460337950+459745527+459354212+458679264+458176127
1886+458372973+458655416+458745685+458745767+458680493+458530974+458285203
1873+457829966+456448028+454304889+453808758+455246054+456556203+456896053
1859+456653192+456410290+456224958+455894286+455541979+455205775+454626096
1846+453361060+451866153+451952243+452970482+453409657+453400520+453370157
1832+452526391+450440986+449379640+450060652+450563175+450858526+451308682
1819+451422348+451198417+450854592+450099046+448955134+448411185+448606433
1805+448696415+448075105+446580771+445334052+445189409+444919134+443380998
1792+442011599+443121214+444907866+445404325+444899425+444094790+443208696
1778+442726333+442276464+440564510+437633454+436977969+439062759+440923495
1765+441502356+440777213+439911156+440168154+440640683+441082439+441018845
1751+438813915+435670074+435228973+436551169+437223371+436708966+436026315
1738+436240288+435663313+433017323+432887267+435533380+437706267+438662470
1724+438472385+437997848+437164940+433882971+429925521+431167118+434593239
1711+436661516+436603700+434402949+432151963+431890376+430805796+427580414
1697+426728903+429016317+432286280+434209668+434184427+433105134+430086964
1684+425863502+427233024+430837266+432583352+431836247+430248244+429376245
1670+428231883+428550426+430912947+431802278+430578178+430444024+431600269
1657+431640753+428388040+422049671+421770095+423090365+422275814+424049027
1643+428330101+431149580+431698488+429895527+428333871+432450264+438020918
1630+441469616+443533591+445772202+448469616+452397236+456546902+458880208
1616+461470553+466978309+472342159+476091003+479319786+483070351+486862793
1603+490299445+493728557+497091781+499950106+502570363+505696830+509257351
1589+512765915+516181547+519542066+522694922+525637492+527985754+528977237
1576+530827770+536043330+540804186+543737291+547433686+552393887+556848082
1562+559569221+558777370+558318486+566633347+575433604+582266014+587865350
1549+593261325+597765510+600038296+600131925+600983149+610415697+622285629
1535+630200037+636592371+643949349+650769262+655994656+659992385+663011784
1522+667049464+673843644+681078065+688742236+696771785+703108064+706314475
1508+706294233+710137649+721509155+730791734+736671301+740169457+744134242
1495+750674087+756898012+760776830+764688920+772413694+781190881+788384367
1481+794192309+798948412+802406248+803892509+804353647+808843327+817496932
1468+824825965+829035127+833274939+839566473+844661033+846182124+849084742
1454+857590262+866248785+873275419+879170884+885631401+892852997+899182966
1441+904508054+909380854+913517080+917617411+922594207+927991166+934803170
1427+942275699+946635569+948375059+950375644+951421993+953757102+960987712
1414+968381650+972371675+973936937+974896910+975764114+976939044+978399164
1400+978705086+977796005+977148019+977627432+980675022+983735970+982027867
1387+976101506+972747994+974230813+978132004+981737106+982560221+981533130
1373+983082903+987156437+989541372+989672411+989042127+987328616+985979212
1360+987019579+988570581+989173330+988839462+987194626+984430586+982329119
1346+981769230+981644009+980243714+977897706+977668244+979443382+980594628
1333+980901616+981755872+983329576+984203336+985573637+988285720+990538141
1319+993005518+996388287+998881725+1000866494+1003832625+1006953725+1009456833
1306+1011908149+1014840434+1017986939+1020615022+1023237615+1026193584
1294+1028876328+1031068187+1032108554+1032363831+1033577442+1036007368
1283+1038683392+1040818377+1041786791+1042311768+1043968160+1045743708
1271+1045676590+1044725140+1043745909+1040880414+1036685102+1034967575
1260+1036257728+1037910186+1037914857+1036699443+1036919645+1039034388
1248+1041180764+1042520415+1042740453+1041883493+1041245505+1041269763
1236+1040616778+1039241068+1038372225+1038351655+1038973662+1039626401
1225+1039556415+1038758951+1038418445+1039914705+1042477801+1043711736
1213+1043678463+1044575908+1046130926+1046655904+1046612470+1047665293
1202+1050049654+1051593199+1050672481+1049014614+1048470706+1048053822
1190+1046936831+1046615748+1047766174+1049025842+1049771349+1049661453
1178+1048017026+1046592719+1046749246+1046248362+1044500185+1044180167
1167+1045578823+1046518144+1046563791+1045791322+1043473504+1040806658
1155+1039979528+1040450745+1039957319+1038645613+1037687525+1036656009
1144+1035568521+1034487260+1032968382+1031499331+1030575416+1029990860
1132+1028501075+1025591982+1022720013+1019539908+1015169794+1011514866
1121+1009306699+1006904800+1003496954+999252225+995558862+994842120+996232335
1107+995228027+990843735+986461985+982738710+978293447+975022295+974273018
1094+973835072+973058669+972361103+970208499+966819174+964121022+962030455
1080+960287769+959273545+957963887+956185881+954988086+953674659+951227933
1067+948106751+944961066+941946502+939225814+936547741+933372062+931025643
1053+930893211+930803147+928483445+924893831+921617189+919863849+919611932
1040+918620408+916175157+914018209+912994971+913385712+914705122+914542204
1026+912517607+910812126+909797001+908291808+905862702+903971849+903882850
1013+904217374+903891783+903472768+903940625+905483351+906098229+904668923
999+902811506+901933894+901464069+900319871+899427671+899452011+899321545
986+899253772+899461517+898662578+896927186+895755124+895298821+894611991
972+893495901+891814925+889402700+887258127+886087294+884462864+881335453
959+878480366+877299372+877212913+877605622+877991037+878496183+879771175
945+881528202+883164024+884571449+886254146+888792412+891624962+894100289
932+895908618+896895716+898796404+902565162+906448487+909758566+912659627
918+914394856+915175192+916433794+918573204+920363504+921094752+921272995
905+921137612+920151579+918134193+916450266+916083290+915821129+915100453
891+914799447+914364452+913279012+912687163+912959404+913134451+912433525
878+911623440+911870113+912794601+914036894+915577817+917387047+920143711
864+923545002+926660201+929423667+931871623+933770507+935171867+937309475
851+941138384+945886292+950374333+954129815+957245178+960051832+963193010
837+965929433+967190903+968424510+970699303+972983602+974630815+976180753
824+977542121+978709758+981428642+986599334+991956383+993999992+994387456
810+996711420+999048905+1000599334+1003235695+1005525157+1004803743+1001572173
797+999908324+1002391109+1006942580+1010179149+1013099797+1018162969+1022616263
783+1024706830+1026830342+1028331601+1028120823+1029363772+1032111094
772+1031785093+1029953737+1031535717+1035130083+1038009018+1039987067
760+1039858814+1037047898+1033824032+1032355636+1032391776+1032744247
748+1032513883+1031558827+1032679506+1037881421+1042243913+1040590390
737+1035395112+1031602753+1030954685+1031902365+1031746167+1029013104
725+1025931914+1025982724+1027244358+1027258699+1028216460+1028746108
714+1025547483+1021934022+1021054689+1020824816+1021551721+1023966486
702+1024945963+1024945881+1025408412+1024222582+1021935251+1020385887
691+1019130727+1020134298+1024634058+1026989818+1027779170+1033695861
679+1037312600+1032216729+1029231421+1031541781+1031461715+1028239324
667+1026750194+1028630148+1031560548+1033943844+1035365446+1036724028
656+1036906205+1033356420+1030254906+1035955001+1045892285+1042948445
644+1033144003+1042538526+1061445828+1059134157+1051348166+1059171855
633+1061112124+1034584208+999793019+989225205+1006262879+1029081123+1050199706
619+1071722635+1073741823+1062015059+1063149997+1062072834+1044993857
608+1034495374+1033789367+1025067250+1021875837+1042200643
##END=
