##TITLE=Sample description
##JCAMP-DX=4.24
##DATA TYPE=INFRARED SPECTRUM
##DATE=24/8/2023
##SAMPLING PROCEDURE=Instrument type and / or accessory
##ORIGIN=Default
##XUNITS=1/CM
##YUNITS=ABSORBANCE
##RESOLUTION=4
##FIRSTX=4397.6552
##LASTX=599.8556
##DELTAX=-1.9287962
##MAXY=1.4459554
##MINY=0.58034521
##XFACTOR=1
##YFACTOR=1.3466509e-009
##NPOINTS=1970
##FIRSTY=0.73012835
##XYDATA=(X++(Y..Y))
4398+542180862+542325464+542527385+542248140+542401461+542807913+542823980
4384+542790209+542722312+542445368+542041085+541788485+541397126+540211275
4371+539547841+540927468+543211489+544592046+544185726+542158156+540046534
4357+538875820+538245626+538227036+539022192+539580904+539185827+538672306
4344+538777560+538735688+537684657+536200130+535398158+535419846+535133873
4330+534323181+534536123+535987720+536637831+535351329+534146313+535583082
4317+538721348+540325912+539035471+536448702+534686612+534310611+534504034
4303+534458887+534606410+535099438+534493057+532765402+532209390+533383645
4290+534393734+534495181+534226692+533661208+533345226+534181899+535825192
4276+536726487+536031140+534853123+534136177+533157204+531997865+532062708
4263+533461943+534364433+533190842+531245864+530742435+531249006+531557420
4249+531817633+532394890+533017338+533155123+532631511+531759340+531296942
4236+531144063+530029871+528133934+526862437+526602667+527005711+527416191
4222+528176823+530489038+532618410+532056423+530154688+528721814+527540521
4209+526872130+527204622+527520914+527098084+526589344+526233040+525913561
4195+525964904+526659675+527207322+526427259+525406281+525997702+527276192
4182+527577480+527179481+526774534+526805030+527289559+527157173+526112826
4168+524909270+523648883+522409210+521920475+522658180+524050245+525167093
4155+525911968+526446734+526485463+525795516+524404248+523153244+522791584
4141+522731300+523033384+524104509+524792243+523758961+521681906+520795041
4128+521429528+522607899+523691108+523130316+521167722+519530094+518283384
4114+517794207+518345969+518761274+518870113+519668987+520992624+521318520
4101+519833816+518073054+517907649+518513277+517986036+516707236+516361333
4087+517025298+517765304+518410104+518871573+518662615+517902869+517488272
4074+517649074+517737597+517639336+517493451+517322735+517483315+517604458
4060+517073012+516779913+517350000+517760126+517283873+516529969+516099881
4047+515294058+513969314+513757922+514769118+515157467+514442601+513533649
4033+513077359+513401308+514076692+514141137+513548079+513001937+513162916
4020+513997553+514446010+514088422+513548034+512927844+512283841+512076078
4006+512353951+512864594+512890487+511934176+511296590+512146055+513421978
3993+514287023+514706842+513514086+511129149+509932852+510296150+511029074
3979+511947454+513000919+512641118+510946660+510555787+511311019+511255471
3966+511062757+511562114+511287207+509799803+508822113+508600186+508382553
3952+509208028+511575348+513096347+513051067+512426539+510199483+507867262
3939+507882753+509352497+511008537+511307036+509372547+507937372+508430134
3925+508921391+508541805+508784402+509730135+509161155+506809060+505484140
3912+505859078+507413317+510136411+512133485+511346606+509093391+506057502
3898+503826683+505069809+507368923+506055023+503179670+504199940+505562748
3885+503957564+503218089+502714218+502013515+503588203+504696021+503929414
3871+502778308+501966111+502797252+502221500+498970899+498321584+501245093
3858+505175328+506084103+497503811+491048950+494901329+499173837+500614369
3844+500350880+500268023+499671822+496621902+494731011+495401085+495342748
3831+495162383+496595655+498936552+501793669+502322593+497457203+495550732
3817+496855868+495444726+495504346+497820589+498772696+496789122+495649081
3804+496711399+495283039+494290124+496367134+497414580+497751232+498741315
3790+499756096+500595779+500011041+497726844+496456188+495727866+494236789
3777+494190624+495783459+497256744+496890259+495919607+496703520+497577771
3763+498489556+499612512+498968022+498284050+500095182+502059636+499908930
3750+497271925+500833507+504147269+502818232+504846200+511092501+516511644
3736+516605434+510705037+507523174+511035581+516802486+519683018+518152547
3723+514766860+511486560+509451952+509691893+512324163+514480356+513141538
3709+513637841+518729848+525250083+530794265+535492036+541151431+547158454
3696+552504345+557420458+560867801+560998372+561239110+564564026+567494617
3682+567956573+567615495+568460489+566965693+562995269+562453111+560119739
3669+557055833+559608476+563260882+565016776+567050498+570441850+573059735
3655+575601357+580647686+585189702+583803657+582067990+585790639+589359347
3642+588885042+586460978+586332575+587972903+589190622+590433880+588566050
3628+580569875+577026485+578022809+578018870+575111648+570248428+567906823
3615+568230551+569008091+569974981+569310618+566842514+566531666+567818168
3601+567148803+565184659+564604392+564039705+562939234+564611474+567768993
3588+565113044+557892019+554656998+554580559+554267232+553060313+552257765
3574+552840555+555375184+559715987+562004212+557360705+552138082+551598138
3561+552257367+551917351+552323582+553746851+553646024+552677319+554789340
3547+559064725+559863112+556377881+553315834+552810590+553635003+554205975
3534+554647172+555808591+557736617+560573861+563514278+563058563+559061184
3520+556104124+555535808+556009582+557239872+559128859+560451788+559998552
3507+559715943+561475333+562870098+561978364+560531724+559704081+559374599
3493+559261113+559214594+559504904+560209015+561201709+562535747+563572393
3480+563606431+563243089+562934852+562457538+562017402+561487372+560986554
3466+561549471+562594659+562880013+562816320+562802201+562701196+562137218
3453+560857090+560092563+560563858+561093755+561234064+561072953+560600418
3439+561206622+562886917+563556769+563178954+562947511+562421199+561266552
3426+560562397+560936805+561667693+561597317+560984120+561921089+564263933
3412+564902227+563401722+562148106+562053033+562430095+562753292+563106233
3399+563476479+563827605+564135974+563927458+563070691+562094019+561567441
3385+561436294+561467366+562204097+563423587+563922147+563631881+563383265
3372+563528663+563498167+562629006+561640472+561827123+562697257+562595766
3358+561756171+561819067+562525612+561914627+559913747+559094778+560292314
3345+561194539+560989077+560744976+560738823+560989210+560778880+559598561
3331+558666771+558583028+558913395+559351716+559427978+558899408+558262531
3318+558148027+558333394+558070304+557291303+556408908+555213231+553706529
3304+552899068+553160211+553939787+554631858+554575911+553355625+551141183
3291+549028985+548524759+549742169+551175751+551762923+551156542+549393964
3277+547590047+546753728+547222279+548376793+548906779+548416363+547095116
3264+545456692+544200952+543678269+543670878+543413454+542456921+541485250
3250+541711736+542672872+542763298+541610908+540555230+540836113+541453382
3237+541017230+539775742+538855858+538922161+539522390+539828679+539168299
3223+537430774+535428477+534280779+533830110+533810103+534591273+535347744
3210+535542848+535402141+535026406+534516648+534018575+533449329+532285874
3196+531499172+532338368+533961654+534377048+533219612+532488414+532950591
3183+533023711+531723400+531254583+532780583+533343588+531539140+529947013
3169+531627087+535019059+535184597+531852688+530523828+533058014+534093155
3156+531217935+529230333+532278084+536483580+535139229+530446901+530630453
3142+537389434+540223402+533082579+526617361+530471599+539027327+539051759
3129+531067579+528336253+536426217+543871780+538140904+527873810+528102907
3115+538221592+541745020+531862248+523482991+527595317+537642211+537855064
3102+527202674+521684872+529140172+538682752+534635932+522882187+520002541
3088+529595711+538145728+532098427+521162853+519553332+526259110+529043417
3075+522079861+515412191+517535897+525862085+528713271+521376857+514310304
3061+515156228+521186887+522221010+515608314+510467796+510973615+513563349
3047+513199653+510145661+508385076+509038949+510743367+511078160+509205416
3034+507277169+507273318+508628248+509026379+508005623+508275573+516226203
3020+546565219+604310181+650010601+639868766+601310631+570403874+551959355
3007+539951947+530470803+523408455+519196098+516386606+513105642+510079756
2993+509404017+512674492+516860601+515570382+510324300+508035012+512024557
2980+518855595+519563954+513683961+509555347+510988044+516675102+519760785
2966+515536300+510192445+510704550+519324190+527855264+523911618+513593889
2953+509037179+513420473+522409962+523638127+515211643+508981454+511444999
2939+520370087+524622678+518000465+510334126+509273446+515512488+523419697
2926+521377476+511677459+506643036+510193773+517737464+518814211+511015663
2912+504472900+504778569+510047180+514115200+511595443+506427571+504758651
2899+507866067+512697906+512746195+507390257+503221851+503839032+508096005
2885+511098343+508944673+505107697+504097165+505901215+507893022+507309612
2872+504772062+503037990+503198039+504513532+504997176+503709612+502212913
2858+502012586+503110091+504043431+503119121+501060258+499698158+499466671
2845+500034323+500605915+500451664+499935576+499803898+500348667+501236595
2831+501850102+502101950+502175202+502090530+502082386+502086547+501551515
2818+500643315+500264659+500612200+500935441+500778224+500369382+500073052
2804+499977004+499977713+500215219+500573604+500708335+500759634+500611492
2791+500142631+500042423+500511107+500867190+500751003+500400276+500250363
2777+500528147+501083407+501548904+501574398+501330606+501352162+501525843
2764+501410277+501368450+501896577+502593163+502940305+502969916+502805617
2750+502623614+502604095+502629855+502722229+502927912+502770164+502114166
2737+501627999+501702225+502109474+502624190+503152715+503492112+503558592
2723+503527786+503524068+503671326+503836155+503754626+503807917+504149924
2710+504289215+504117392+503988547+504306654+504916045+505218439+505110131
2696+504938087+505015589+505325905+505623121+505871737+506272568+506806714
2683+507116057+507101540+507035767+507092820+507202854+507423099+507989113
2669+508602709+508773160+508549153+508077061+507671361+507959812+508842916
2656+509448588+509577389+509844462+510420923+510886907+511129017+511315578
2642+511477531+511684763+511866190+511955952+512280388+512829982+513249890
2629+513586276+513895177+514191329+514718793+515275424+515493765+515596496
2615+515839314+516202169+516713831+517456360+518332691+519089118+519539876
2602+519558422+519320959+519232658+519504202+520249785+521278110+522134656
2588+522635695+522773171+522667431+522701379+523065827+523528005+523984428
2575+524501623+524941669+525216621+525368836+525436512+525648745+526199490
2561+526760768+526996814+527253885+527825698+528359667+528644755+528992029
2548+529494352+529698884+529482180+529539587+530319340+531367937+532150655
2534+532549450+532751459+533069478+533453711+533578174+533567330+533913232
2521+534507132+534709628+534564008+534637172+535048758+535583613+535946291
2507+535895612+535724718+535946114+536385541+536534436+536496283+536623712
2494+536829394+536919378+536906763+536977803+537324591+537644910+537603172
2480+537547624+537771454+537998825+537954740+537831030+537997275+538262711
2467+538166398+537893748+537809917+537882860+538097527+538297633+538227567
2453+537974746+537596666+537261961+537248240+537258553+537116120+537091776
2440+537009405+536680942+536453438+536457731+536370802+536058981+535772609
2426+535627875+535467914+535251874+534916594+534203499+533274054+532595615
2413+532121487+531838170+532022607+532220987+531849545+531258655+530848220
2399+530640014+530829763+531658601+533566356+537674964+545590273+558471179
2386+575998824+596478659+617690754+637995580+656980619+674738910+691671858
2372+708681024+726038307+742762917+757590572+769022050+776449201+780577372
2359+779767654+771867173+758198458+741360185+724399573+714106365+716449032
2345+726498802+728220482+719082009+709795703+703885435+701854545+705184330
2332+710847133+712081229+708614322+706798278+708668720+709081147+703860206
2318+694511979+685803417+683137066+685988075+686899949+680887038+668779998
2305+654435899+642572872+634458962+627529752+619902540+611265771+601421196
2291+591062481+581482545+573058008+565710175+559708684+555113200+551415736
2278+548070947+545037891+542503085+540352247+538499465+537011486+535645225
2264+534288259+533294193+532615134+531857778+531124543+530584997+530076124
2251+529524494+529087546+528879296+528764747+528658387+528623155+528672462
2237+528808212+529029165+529383167+529795374+530042485+530175269+530462614
2224+531005657+531631071+532183364+532766287+533477745+534226028+534798947
2210+535105192+535606762+536594809+537415681+537859534+538598699+539732942
2197+540820400+541693102+542427133+543103978+543834512+544653923+545408757
2183+546014032+546468862+546941441+547717431+548780015+549830559+550480670
2170+550781825+551320442+552344031+553500714+554355135+554844534+555096912
2156+555204069+555419091+555767162+555889722+555785531+555724539+555614195
2143+555337119+555028351+554730162+554299366+553622654+552787264+551846046
2129+550791429+549717250+548545872+547171511+545716861+544266503+542859257
2116+541514640+539950531+538003870+536065575+534430383+532982238+531536351
2102+530092943+528754036+527341743+525613292+523790342+522428198+521560542
2089+520440994+518752422+517088459+515851973+514830907+513810682+512680467
2075+511367984+510080154+509009914+508202276+507790512+507483648+506569164
2062+505215473+504186661+503534425+503044762+502769102+502642603+502469939
2048+502271781+502357426+502941898+503678142+504012050+504163380+504629674
2035+505308201+506003769+506719165+507495554+508315984+509074845+509668302
2021+510258395+511045451+511334168+510519847+509389765+508562431+507813573
2008+506940384+505815746+504452097+503053083+501607550+500031225+498605300
1994+497601407+496521872+494812231+492746419+490680563+488948969+487581690
1981+486190953+484818938+483585506+482326004+481060261+480117139+479589499
1967+478814570+477394753+476088290+475370503+474794883+474043059+473183547
1954+472270081+471411144+470724871+470251938+470182448+470470191+470305849
1940+469486703+468836370+468676808+468770731+468608557+468131685+467926622
1927+468347902+469266016+469995443+470057232+469817159+469609219+469628251
1913+469850178+470127652+470382067+470395611+470322093+470537468+470779667
1900+470881335+471248351+471686184+471694771+471468463+470997521+470373923
1886+470269731+470490905+470859160+471599786+471888149+471245562+470930067
1873+471985347+473495546+473557202+472791170+473404943+474856539+475788906
1859+475771024+475366962+475291540+475723443+476979227+479139095+481100937
1846+481768310+481082126+480054774+479432902+479142636+479357038+479909509
1832+479440780+477085056+475073287+474790147+474170045+472710172+471699994
1819+471241490+470027710+467910333+465981953+463895250+461532134+459587642
1805+458660499+459009544+458165037+454776075+452142876+450868502+449106899
1792+446815929+445162368+444658894+444631674+443725200+442023748+440483894
1778+439167693+437878713+436106531+433872968+433815871+435329168+435197977
1765+434088388+433386580+433189351+433509140+433326429+432988581+434083033
1751+435373474+434532020+433412296+433819545+433913202+432429825+430954460
1738+431336923+432511311+432934936+433359625+433822997+433603638+433727924
1724+434532242+435337932+435937187+436252593+436595841+437294153+437859946
1711+438349300+438725522+438838256+439510675+440985022+441205532+439757786
1697+439709762+441031496+443204332+445947919+448535971+450104152+450059271
1684+450148325+453140705+455963608+457068284+457058768+457503241+459037606
1670+460758799+462926324+465571739+467607143+469142438+471447881+474346737
1657+476834138+477557237+475615667+476632882+479176451+480443168+482692178
1643+486300411+489085338+490548221+490471870+489675210+491801483+495505143
1630+498473666+500638845+502522787+504345383+506945076+509882881+511563929
1616+513082537+516881847+521072073+524017492+526211617+528716724+531701225
1603+534866402+537878965+540693193+543515830+546583720+550065720+553679618
1589+557124881+560537523+564189574+567993841+571714896+575129397+577772024
1576+580539600+584934314+589395906+593396428+598010324+603298720+608708347
1562+613555191+616905115+620695882+628607650+637136997+645205539+652571742
1549+659093614+665416575+672033698+676446558+677954810+685698562+696713098
1535+704734192+711301741+718208599+724674525+730693100+736370996+740628721
1522+745143117+752154033+760262544+768958756+777714457+785897680+792596907
1508+794802187+793829587+800422587+809735804+816850203+820855417+824552836
1495+830048951+835475663+839934821+843230259+847013369+852133438+857207476
1481+861456392+865337851+868774925+869810553+868406848+870577072+877424664
1468+882756657+884484090+886289247+890443621+893592465+893119754+894534702
1454+902494848+909867999+914244920+917317457+921621169+926918993+932700327
1441+939065735+943240204+943663786+946224750+952141436+956642377+960633161
1427+965943820+970006750+972772910+975710805+977024129+978620018+984251749
1414+990399922+994044228+995406859+996019968+996468601+996902009+997751473
1400+997139604+994792157+993924722+995824155+999197405+999823615+995375699
1387+989795842+988797482+991720151+996021207+999956753+1001205987+999755629
1373+998961668+1000212761+1001498466+1003027166+1005605392+1005992502
1362+1003622836+1003157914+1004256659+1003933728+1002358111+1001184741
1350+1000571544+1000966178+1001935769+1001481647+998867569+994805966+991698020
1337+990386289+990207473+991405629+992919103+993870192+994247388+994554827
1323+995936579+997793168+999154206+1001069662+1003523956+1005684443+1008756980
1310+1014269914+1023188939+1032538450+1035891516+1033805830+1032910245
1298+1035887532+1039256001+1039765893+1039798292+1042601366+1046399436
1287+1048092523+1049634944+1052905241+1055761694+1057725838+1059406620
1275+1059472835+1057731769+1056543262+1057242238+1058098076+1057661039
1263+1056785549+1056054351+1054731997+1053736736+1054440226+1055318726
1252+1055423095+1056491476+1058604958+1059756993+1060022916+1060305923
1240+1059814356+1058696136+1058356828+1059557728+1061940231+1063601184
1229+1063818242+1064309366+1065036935+1064597596+1063154675+1061635181
1217+1061682718+1063530189+1065056852+1065671378+1066681334+1068282446
1205+1069031083+1069095528+1069704653+1069912770+1069516011+1069912681
1194+1071352239+1072658835+1072784803+1072568276+1072928387+1073467225
1182+1073741823+1073675519+1073453593+1072795072+1071693140+1071297886
1171+1071863547+1071474223+1068508267+1065100140+1064653543+1066277051
1159+1066355482+1063899594+1061039334+1059700250+1059844100+1060209876
1148+1059542503+1057587565+1054656930+1051256150+1047852892+1044679704
1136+1043128165+1043155607+1041159595+1036117337+1031765026+1029493886
1124+1026688067+1022460750+1018252288+1014767058+1011559789+1007727283
1113+1002865258+997513967+992610513+988182869+984233601+981200722+978701724
1099+976616127+974508665+971771629+968519037+964630408+961477669+960688134
1086+961063825+960369452+958073879+955228314+952792610+950792703+948653815
1072+946500587+944683745+943038284+941867393+941139204+940336303+939108492
1059+937596877+936666945+936129877+935163739+933694350+931955585+930439367
1045+928985291+927752258+927242189+926202578+924699284+924671665+925590797
1032+925679762+925452878+925967992+925985874+924723362+923614526+923431992
1018+924235867+925753590+926708043+926654487+926828611+927964093+928719281
1005+928221251+928250818+929807668+931031496+930997326+931066639+931356197
991+930624645+929527051+929538824+929839448+929362576+928535065+927041685
978+924730621+922569691+920719299+918810394+916796412+914758263+912913980
964+911498412+910446673+909175928+907611907+907014467+907924216+909011187
951+909404051+909585169+909825597+909758408+909903054+912186677+916898921
937+921184044+923132430+924214179+925939222+928417152+931376469+933892818
924+935907596+937975400+939365739+940083836+941083435+942446952+943762666
910+944683303+945190804+945137159+944412511+943889607+943883234+943562693
897+943078827+942910634+942705527+942719779+943042002+942293453+940192807
883+939038736+939913695+940463333+939808353+940414822+942244323+943377326
870+944401004+945994060+948563522+952654337+957616305+963005129+967429410
856+970062520+972655883+975026347+975670969+975380349+975999920+978740940
843+983286142+987522489+989425994+989639777+990035473+990460471+990122137
829+989606138+988922122+988990905+993178386+1000313411+1004905265+1007074693
816+1009917160+1012485560+1013907856+1015004210+1015679020+1016409067
804+1017844375+1019503204+1021068287+1022751990+1024617254+1026522972
793+1028371417+1029861698+1031010635+1033236894+1038613503+1045856260
781+1049909010+1049163294+1047531111+1047815004+1049180202+1050351890
770+1050977657+1051654768+1053064671+1053646442+1051775956+1047972397
758+1044726178+1044489203+1046451930+1048992623+1050450062+1049453738
746+1047081947+1044448394+1043212350+1044381648+1045942216+1046410147
735+1046616937+1046738301+1044721929+1041302825+1040139813+1041549981
723+1042406970+1040539670+1038116890+1036264285+1032994254+1030796587
712+1032333165+1034950519+1036376886+1036223919+1034233307+1032318648
700+1033550265+1036278360+1035446335+1031392788+1028958677+1029089513
689+1028895206+1028519604+1029491230+1030723024+1032292002+1032890770
677+1029907287+1026038841+1025504252+1028742858+1032813844+1033543449
665+1031319845+1028733032+1027298166+1028167991+1029342689+1026769597
654+1021657583+1021161059+1025375628+1027025605+1022344343+1014563810
642+1013367158+1020496164+1025696966+1032389466+1046405633+1047238721
631+1027290022+1008652081+1001046026+995661273+985080322+979439561+987024371
617+995407744+992158869+981971313+976469622+985394578+1005271219+1016423054
604+1015682826+1015850665+1013308291
##END=
