##TITLE=Sample description
##JCAMP-DX=4.24
##DATA TYPE=INFRARED SPECTRUM
##DATE=24/8/2023
##SAMPLING PROCEDURE=Instrument type and / or accessory
##ORIGIN=Default
##XUNITS=1/CM
##YUNITS=ABSORBANCE
##RESOLUTION=4
##FIRSTX=4397.6552
##LASTX=599.8556
##DELTAX=-1.9287962
##MAXY=1.4467697
##MINY=0.62017268
##XFACTOR=1
##YFACTOR=1.3474093e-009
##NPOINTS=1970
##FIRSTY=0.76319265
##XYDATA=(X++(Y..Y))
4398+566414864+567245537+567050454+565825767+565186152+565022256+565382827
4384+566239113+565763349+564318232+564061130+564641778+564548173+564364636
4371+565171863+565316959+563712502+562219609+561869256+562034126+561959366
4357+561725930+562193908+563049662+563484065+563879848+564240641+563865162
4344+562952032+562162986+561558805+561270117+561864036+562574828+561624805
4330+559525475+558544663+559371178+560781658+561592822+562326706+563792304
4317+564690482+563691976+561336826+558742799+556915655+555951698+555560249
4303+556220169+557412652+557560667+556970376+556976259+557155019+556812451
4290+556626127+557201688+557888106+557780036+557631711+558077880+557959459
4276+557156346+556428788+555745600+555482570+555805541+556129573+556027519
4263+555334688+554612527+554535202+554955139+555372996+555525081+555464477
4249+555200563+554751916+554176090+554108718+554791640+554732187+554146186
4236+554453453+554319549+552586187+550617707+550072050+551069583+552335189
4222+553009397+553446321+554123625+554429211+553962737+553791056+554254919
4209+554266996+553510862+552830106+552367393+551355041+550014410+549213951
4195+548811709+548353729+548072163+548527224+549486669+549662951+548965254
4182+548763535+549154232+549292029+549356437+549559305+549172457+548364478
4168+548353640+549219392+550119118+550278060+549333699+547816255+546588870
4155+546256256+546367997+545940319+545526133+546085459+547235607+547792014
4141+546901710+545628496+545351797+545327909+545066250+544992110+544778979
4128+544824454+545659550+546309738+546167694+545524231+544432740+542991736
4114+542304346+543312008+544532316+544255042+543154527+542461739+542424271
4101+542589804+542656601+542443868+541485219+540258541+539921592+540571957
4087+541590059+542466074+542679692+542081394+541440363+541598287+542252545
4074+542550610+542172919+541097088+539936632+539605478+539356825+538327973
4060+537227767+536526309+536481984+536964029+537135667+537085105+537049008
4047+536839681+536894091+537462132+537854775+537691941+537521763+537318142
4033+536828046+536857065+537212284+536391521+534912784+534731591+535779288
4020+536666893+536599609+535520106+534151651+533371408+533309167+533579142
4006+534285776+535263667+535303701+534183545+533230028+533465587+534657185
3993+535855242+536010335+534999885+534397031+534624450+534235169+533319120
3979+533609887+535164268+535930532+535383327+534397738+532738516+530955211
3966+530841568+532680257+534106441+533509912+532497560+532068466+531672019
3952+531902934+532708347+532181933+531442122+532059221+531880594+530957467
3939+531010816+531708514+533218880+534159967+532257047+530176030+529740301
3925+528870479+528108815+529378667+531088761+530873241+528647704+526584647
3912+526081236+527053067+529109533+530810514+530625605+529338678+527015422
3898+524943474+525735970+527226563+525682267+523864103+525649532+526749428
3885+525245388+525037255+524046004+521962908+522287338+523215154+523968811
3871+524608471+524372867+525241583+525039422+522130210+521124582+522875418
3858+525179077+525673906+519703928+514631508+517469234+521290956+522945577
3844+522677902+522320471+521763136+518601864+515943296+516264763+516690318
3831+517230312+518849014+520214859+521810602+522309899+517782914+515103555
3817+515995982+515589360+516857930+519842742+521335635+519231748+517089198
3804+517890453+516585212+514964387+516342265+516810022+516851648+517900230
3790+519083290+520204154+520429406+519594752+519549277+519142523+517153120
3777+516434012+517372488+518287387+517953579+516997275+516737916+516663112
3763+517794416+519363926+518948059+518794382+520650633+521534256+518531042
3750+516851515+521404688+524919365+523407893+524828503+530198989+535054739
3736+536057314+531927264+528799125+531636984+537325132+540329983+538903887
3723+535899744+532812613+531125389+532629385+536095490+537344153+535700591
3709+537578430+542652664+547847619+552735352+558378290+565750300+573627224
3696+580721473+586567854+589927571+589384745+588744732+590597134+591875038
3682+591636559+591261787+591052416+587008140+581854059+582758297+582312615
3669+578908618+579849704+583090425+585292871+587329695+590402759+593069600
3655+596198534+602203504+608637877+610130460+606980646+605353407+605604670
3642+605821384+604719188+603086154+602256189+603272346+605570121+603452786
3628+595367110+592718362+593659582+593372133+591487615+588135728+585959116
3615+585616505+584920886+583861688+582218745+579801044+579274851+580378109
3601+580243675+579056323+578962984+578641916+576818798+576538604+578230118
3588+576508435+571136755+568789611+569046891+568560643+567011659+566246279
3574+566781717+568776296+572986990+576286014+572869144+568010164+567073413
3561+566894432+565729331+565821255+567834192+568894407+568743428+570652807
3547+573792492+573922149+570637988+567516176+567220720+568791558+569199904
3534+568688442+569197693+570705272+572965712+575252163+574749415+571800169
3520+570906150+572016308+572240720+572424611+573798994+574961573+575331921
3507+577173663+580466140+581309641+579434324+578205523+577749578+576640790
3493+575674665+575987019+576959956+578027869+578979440+579230217+579050617
3480+579650021+580640830+580341614+579493468+580168649+581723429+582053345
3466+581282701+581214709+582158052+582858537+582493144+582062502+582558525
3453+582831907+582751396+583636037+584832767+584755619+583154568+581448057
3439+581305527+582115541+582839250+583747336+584538904+584832369+584754468
3426+584175899+583654396+583583617+583430780+583795598+585444911+587075026
3412+587398792+587228836+587532564+588314930+589624286+590417003+589406952
3399+588071452+587758081+587621567+587572288+587959932+587918925+587125455
3385+586878041+587048041+585704756+583419898+582608424+584013729+586082005
3372+586827257+586515301+586389891+586256208+585866529+586026533+587093074
3358+588073708+587725125+586408028+585695998+585884887+585744923+584675064
3345+583853150+584220799+585211431+586302436+586902371+586173221+584544699
3331+583669967+584104856+583921097+582077100+580429910+579903850+579998162
3318+581023519+581978850+581732630+581735240+581640707+579805778+577682957
3304+576568154+576089161+576574966+577774394+578176283+577442621+576403550
3291+575689131+575983834+577313981+578003849+576629421+574058397+571690418
3277+570071806+569432765+569335489+569051403+568610586+567979907+567240096
3264+567457695+568124516+567706614+566971359+566846878+566489757+565611928
3250+565280685+565251047+564388126+563309419+562624727+561667671+560292226
3237+559087755+558408194+558660076+559862336+560812756+560589274+559884896
3223+559785054+559771828+559250235+558682195+557720184+556271130+555347118
3210+555255504+555180700+554795976+554547278+554775229+555027908+553968842
3196+552591982+553339445+554796860+553999055+552228269+552346115+553639059
3183+553726736+552629936+552992454+555367909+556439405+554298448+551722071
3169+552601669+555650669+556004870+553197402+552626265+555935552+556745699
3156+552782154+550444964+554261909+559521228+558612478+553510685+553065622
3142+559269832+562271675+556445466+550547637+552770653+558913994+558344980
3129+551486954+548983125+555466778+561326342+555746352+546216399+546128545
3115+555603380+560064983+552273789+545415143+550012906+559106334+557621846
3102+546625365+541813498+549129061+557471044+552789674+541643408+539653209
3088+549604382+557632950+550735023+539658739+538288293+545039620+548261761
3075+542000574+535162676+536233950+543381681+545338482+537815582+531429205
3061+533172078+539980028+542117845+536420894+530960343+530688377+533315979
3047+533114217+529517260+527229172+527784385+529437502+529626170+527666317
3034+525878633+526306886+528231173+529115328+528327255+528191316+534993117
3020+564304430+621473667+666417356+655980289+617470088+585883428+566768358
3007+554746962+545389752+538824527+536325343+535512586+533033706+529884335
2993+528669910+531260930+535012935+533549681+528446383+526524043+530911506
2980+538213135+539067253+532690254+528329201+530290912+536457964+539608176
2966+535236329+529702788+530308076+539346739+548218852+544092561+533582947
2953+529775911+535524176+544898284+544893374+535303480+529017919+531721652
2939+540868208+545750987+539431894+531138262+529437856+535316530+542951083
2926+541394755+532577982+527746828+530977551+538145188+539012267+531555014
2912+525695848+526508781+531894042+535423582+531989372+526466314+525088038
2899+528289344+532947268+533353094+528741662+525056542+525723142+529538361
2885+532132167+529970640+525841518+524374504+526306532+528463768+527317026
2872+524118021+522615086+523767801+526323917+528093642+527273851+525052030
2858+523977172+524716629+525715267+524988374+522861174+521357178+521372218
2845+522104420+522256152+521691252+521155858+521016424+521438617+522225628
2831+522609911+522404078+522305475+522609822+522967032+523202635+523207457
2818+522785883+522261637+522109685+522130210+522010153+522000553+522399035
2804+522824458+522814195+522618979+522453446+522225982+522164405+522414872
2791+522684582+522931864+523356357+523703437+523717725+523678443+523766120
2777+523859326+524208307+524964530+525302231+524606303+523600454+523267176
2764+523598994+524053834+524538444+525120729+525653159+525981040+526103354
2750+526185988+526197710+526207575+526544834+526890498+526766061+526530148
2737+526548683+526646224+526658080+526610923+526696034+526925666+527016572
2723+527050413+527235675+527495653+527810926+528126333+528355522+528331723
2710+527915015+527641412+527879714+528112133+528146416+528272976+528500087
2696+528749625+529013053+529316780+529623870+529849432+530127149+530434459
2683+530615652+530762119+530808081+530615121+530440918+530756722+531504230
2669+531897492+531688917+531608319+531933236+532217720+532582760+533380034
2656+534106485+534309177+534292456+534370931+534378849+534092551+533976696
2642+534517044+535279548+535727398+535954995+536297341+536894313+537512694
2629+537779794+537958200+538675096+539549475+539824670+539633966+539304847
2615+539206332+539868597+540946020+541603065+541891000+542300851+542841952
2602+543268391+543476435+543671253+544060799+544543110+545057049+545488222
2588+545693701+546102224+546885608+547375616+547518101+547819883+548215976
2575+548736153+549385456+549638312+549649150+550136105+550908828+551358536
2561+551736183+552411275+552912696+552872618+552762602+553218282+554101242
2548+554651145+554643669+554479685+554551923+555000216+555623906+556337307
2534+557071191+557398541+557339750+557430125+557805251+558318040+558757043
2521+558742976+558472116+558581468+558943544+559148182+559315175+559476461
2507+559506807+559593333+559785983+559849374+559877863+560122490+560536057
2494+560997753+561336030+561395041+561561901+562098091+562337986+561970160
2480+561644181+561731504+561924242+562033197+562240091+562394697+562336836
2467+562452426+562732929+562703822+562383771+562205542+562345329+562471403
2453+562337986+562172630+561935744+561509039+561400969+561721639+561861072
2440+561659575+561373233+561032567+560713976+560561272+560308328+559781427
2426+559326455+559099831+558782833+558230363+557846435+557740135+557378590
2413+556795686+556572557+556647626+556609627+556331999+555790500+555033570
2399+554229306+553818571+554460221+556638690+561134754+569471561+582824785
2386+600901757+622305622+645073608+667153406+687664049+707456202+727807548
2372+748453112+768115166+786454726+802799663+814654420+821593708+826191648
2359+826468569+817549875+801105140+781334265+761947450+750880102+754056281
2345+765678178+769516401+762342659+753080159+745586853+742518434+745803081
2332+751599830+752702026+748810454+746360019+747551219+747492473+741401330
2318+730731049+720936119+717182963+719265705+719702054+712411705+698640756
2305+683143213+670625306+661978490+654277361+645738305+636381714+626249172
2291+615979098+606562168+598063721+590255098+583584679+578279177+574139925
2278+571037842+568506498+566070218+563966950+562553993+561408489+559990444
2264+558518874+557342051+556450332+555709238+555121822+554783722+554472253
2251+553921111+553290564+552915173+552879873+553012228+553306003+553665645
2237+553657815+553413984+553572129+554121192+554549977+554821721+555222548
2224+555683536+555974922+556076887+556246623+556779539+557663252+558736252
2210+559704765+560360483+560959754+561678420+562410843+563254787+564272668
2197+565053796+565448607+565906233+566439725+566853292+567404213+568191047
2183+569079979+570092818+571254247+572392938+573406838+574301034+575000855
2170+575778887+576848348+577682648+577935548+577990711+578277540+578854914
2156+579546154+580266854+580940222+581289204+581356620+581413154+581302873
2143+581010691+580915140+580922041+580430308+579379338+578385565+577503357
2129+576180067+574511379+573157698+572038206+570470819+568498447+566693819
2116+565223930+563809380+562259378+560673721+559036131+557196557+555178975
2102+553321972+551905741+550754973+549551343+548153824+546764268+545552940
2089+544264641+542759981+541298231+540072129+538977276+537945460+536947529
2075+535840821+534592335+533476071+532954081+532963105+532711665+531760492
2062+530751193+530195405+529836559+529708096+529910567+530196511+530517403
2048+530986708+531738905+532795847+533859336+534456396+534683948+535141531
2035+536015511+537199013+538427903+539437025+540376962+541379626+542171061
2021+542612232+543002265+543125552+542373178+541087267+539935305+538964226
2008+537928031+536594257+534961488+533301780+531712761+530019388+528434395
1994+527411958+526417831+524601127+522374927+520318417+518482559+516825549
1981+515302840+514032369+512924201+511660630+510410684+509689497+509255315
1967+508148828+506407504+505064926+504379084+503938577+503465424+502844830
1954+502123908+501630539+501578649+501670130+501745156+501948112+501844157
1940+501287883+501002956+501194456+501544676+501821198+502104135+502524514
1927+503098394+503910974+504716918+505141809+505169855+504955618+504955618
1913+505219975+505506893+505893564+506225603+506373265+506677877+507232956
1900+507758132+507998380+507728095+507173326+506868934+506524199+505925282
1886+505616024+505523614+505681981+506322923+506723485+506539151+506563393
1873+507352262+508390404+508553283+508226154+508959373+510438774+511481118
1859+511605511+511423965+511623117+512219646+513389657+515231133+516656919
1846+516516114+515179023+514249924+513905145+513383818+512939639+512964058
1832+512321434+509946864+507862707+507439319+506639303+504890944+503372527
1819+502272587+500682330+498563358+496535204+494105869+491519230+489512220
1805+488436876+488420154+487262220+483930373+481401064+480065609+478147338
1792+475719020+474143361+473697679+473552893+472645603+471139527+469607397
1778+468025810+466462670+464443496+461986823+461836817+463270919+463225533
1765+462400743+461783689+461508007+461949575+461939622+461608026+462553448
1751+463705498+462924636+461884150+462248747+462457056+461437450+460270447
1738+460352815+461016584+460978054+461002738+461232148+460972569+461150532
1724+461859643+462323905+462515404+462423746+462477980+463215977+463855062
1711+464301496+464547672+464371302+464624113+465790762+465628768+463467152
1697+463072076+464621282+467009123+469659330+471918797+473255579+473057356
1684+472677187+475581445+478645308+479828634+479937455+480431533+481608444
1670+482850030+484763523+487372679+489314572+490759866+493322397+496499063
1657+498863458+499181873+497230159+498650858+501519594+503136083+505378740
1643+508960435+511975461+513508432+513208110+512722571+515933785+520238614
1630+523213429+525455467+527950979+530559339+533950906+537808946+540337946
1616+542152526+545917272+550692246+554865869+558164186+561401765+565110242
1603+568964389+572733913+576450175+580136313+584073625+588379250+592859078
1589+597488249+602182580+606974320+611839802+616449818+620305293+622858534
1576+625417614+630015289+634680379+638639854+643397178+648999728+654387997
1562+658797312+661736605+666449560+675636371+684824376+693670257+701836665
1549+709276975+716794965+724579701+729761208+731913534+740528589+751899134
1535+759765619+766111873+773193160+779925598+785732698+790554032+793991560
1522+798293823+806019813+815093600+823744752+831511527+838399767+843999043
1508+846349770+846765858+852926938+860337080+865358628+867394391+869089975
1495+873490620+878205698+880631007+881607306+885071996+889780527+893122858
1481+895606560+898341524+900020299+898074159+893163556+892346862+898118750
1468+903828883+905659212+906027790+908523612+910556898+907868293+905499429
1454+911701384+919467098+924793701+927619527+930842686+935376925+938849489
1441+941219326+943053724+944393381+948417309+954345705+958357865+961961811
1427+967399359+971720025+973557520+974475604+973798432+974423139+980224311
1414+986035127+988387446+989352155+990129036+989402850+989055771+991502402
1400+993980972+993800398+991183368+988920142+990839562+993567361+990731979
1387+983608402+980822034+983546117+987551376+990186278+990203530+988885283
1373+990048172+994028482+996745486+997004889+996277818+994867117+994427672
1360+995652226+996280561+995625242+994684243+994170569+993427927+992453929
1346+991697927+990870882+989216437+986667974+985657347+987227123+989185207
1333+989483272+988603585+988802561+989837075+990795149+992056066+993131101
1319+993692815+994790942+997130521+999968910+1002555860+1007009146+1015953143
1306+1025199364+1028611323+1028269641+1028632380+1030103597+1032395666
1294+1035969708+1039399451+1041603224+1044048440+1047414570+1050730094
1283+1052305090+1052422671+1053697035+1055906736+1056673973+1056063333
1271+1055993528+1056300441+1055072259+1052461245+1050035051+1048338139
1260+1047943373+1049789627+1052552637+1054188326+1054939903+1055645033
1248+1056135350+1056395018+1057057061+1057693536+1057833323+1058272768
1236+1058636834+1058267194+1058421049+1059545098+1059840244+1059244113
1225+1059459633+1060421423+1061425679+1062267057+1063201774+1064221602
1213+1064479058+1064234961+1064305739+1064907444+1066402372+1068533066
1202+1069959604+1070231924+1070330836+1070746394+1071168410+1070962091
1190+1069681710+1068380539+1068726291+1070619081+1072777556+1073741823
1178+1072678643+1071515666+1071844078+1072223715+1071524691+1070237055
1167+1068932521+1067802810+1067135901+1066525261+1065349366+1064162236
1155+1063588489+1063479225+1063018812+1061863001+1059903856+1057051576
1144+1054589373+1053076043+1051343743+1048853318+1045993075+1042615089
1132+1038963633+1035793735+1032246058+1028103577+1024944296+1022763438
1121+1019814811+1015496180+1010651578+1005781672+1000873192+995571539+990432852
1107+986627984+983984058+981812755+979196167+975499944+970906781+966738024
1094+964384024+962774081+961675070+961630214+960380268+957350954+955477274
1080+955578487+954764624+952234121+950436704+949392900+947837722+946196283
1067+944672425+943406023+942688684+942164925+941753702+941082015+939693963
1053+938125249+935769568+931909316+929004926+928915479+929604064+929582565
1040+929676701+930053153+930569747+931224535+931939397+933001868+933622683
1026+933222343+932830496+932354423+931185961+930497110+931151103+932463864
1013+933964012+935039224+934950397+934959864+936179375+937102856+936667746
999+935901039+936002075+937039332+937770030+937679699+937484439+936763208
986+935216966+933866161+932955686+932042291+930897274+929227524+926997916
972+924790516+923443250+922934707+921861796+919358630+916693471+915291086
959+915098834+915581543+915829178+914769007+913531182+914637536+917740814
945+920356959+921658396+921966371+922323536+924325768+927411262+930543293
932+933978698+936179109+936066395+936416659+939448628+943612431+946553626
918+948055100+949228075+950662133+951557214+950910831+949980272+950784757
905+952420533+952062483+949765902+948389440+948153128+947233098+946094097
891+945640408+945549458+945573788+945187072+944726925+945393834+946582910
878+946814267+945928387+945738524+947990515+951287725+954424092+958440233
864+962434257+965619106+970338166+976652127+981204769+983147192+984134285
851+985343976+986983468+987515191+986867480+987263662+988386827+989275095
837+990641383+991835060+991200886+988838304+987384959+988889530+992132329
824+995621791+999338540+1002874451+1005742567+1008429226+1011849502+1015701791
810+1018065612+1018907255+1019627956+1019622559+1020022545+1023566684
799+1028615039+1031023008+1029695913+1027314310+1026938477+1029003082
787+1031730172+1033213244+1034044448+1036821260+1041421323+1045197880
775+1047259743+1047993272+1047889139+1047563559+1046917706+1046754827
764+1048201006+1049406981+1048345306+1046475695+1045080123+1043992613
752+1044203179+1044835141+1044670847+1046616013+1048775107+1044997843
741+1038952485+1036925481+1037114548+1036780828+1037205410+1039148895
729+1040192965+1038371926+1034452928+1030938516+1029668487+1029598770
718+1029625047+1029628851+1029233023+1029048468+1030410333+1033272698
706+1034455759+1031629048+1026970150+1023626845+1023215888+1025631466
694+1029224087+1031120594+1030010258+1027701468+1025101513+1022539867
683+1021914628+1025505303+1033288181+1037926376+1034296684+1029792526
671+1025677737+1015720371+1010795789+1018585568+1023134228+1019900630
660+1016997213+1021463239+1030654872+1035936885+1031687882+1022448651
648+1017361721+1017389059+1016037546+1010058986+1007019232+1013687970
637+1020192413+1015475124+1005671346+1000954322+1001147547+998376839+992081103
623+994634168+1010445436+1022217117+1019045362+1016152915+1018254325+1015689405
609+1007836368+999476912+999006855+1010602387+1023104589+1028750934
##END=
