##TITLE=Sample description
##JCAMP-DX=4.24
##DATA TYPE=INFRARED SPECTRUM
##DATE=24/8/2023
##SAMPLING PROCEDURE=Instrument type and / or accessory
##ORIGIN=Default
##XUNITS=1/CM
##YUNITS=ABSORBANCE
##RESOLUTION=4
##FIRSTX=4397.6552
##LASTX=599.8556
##DELTAX=-1.9287962
##MAXY=1.3618922
##MINY=0.32104447
##XFACTOR=1
##YFACTOR=1.268361e-009
##NPOINTS=1970
##FIRSTY=0.58135569
##XYDATA=(X++(Y..Y))
4398+458351923+458306433+457127885+455870011+456529564+458202813+458864950
4384+458259910+457551813+457326714+457208995+457270839+457186110+456029178
4371+454407858+453608499+453452340+453284432+453594072+454449118+454614347
4357+454435631+454555323+453578423+452128112+452302363+453452763+454127871
4344+453961326+453113376+452357299+452459416+453370665+454495453+455175260
4330+455135645+454812001+454394840+453888768+453671329+453184618+451751459
4317+450525307+450767464+451581907+451605733+451141062+450869158+450956283
4303+451456435+451987977+451701599+450378781+449349531+449662178+450620421
4290+451330680+451222407+450050814+448627101+447993582+448576771+449662460
4276+449852924+449315554+449229556+449477917+449184537+448564035+448716059
4263+449381815+449048068+447792121+447545875+448636969+449102580+448285975
4249+446981343+445719757+445243150+445321817+444964573+444669501+444631671
4236+443714829+442590276+442925950+444289277+445171156+444759540+443859005
4222+443994252+444569640+444241062+443516940+443289445+443720140+443908912
4209+443193531+443006121+443838516+444272735+443739877+442629046+441906945
4195+442042709+442594882+443482823+444305819+444313949+443480567+442374623
4182+441796839+441816012+441846041+441939699+442120530+442035848+441662203
4168+440953401+440080780+439478136+439373387+439598063+439757700+439907468
4155+440042339+440033034+439913765+439746750+440068702+440893531+441339123
4141+441113085+440741225+440282100+439439319+438914074+439174652+439421180
4128+439006134+438207104+437631341+437349756+437287490+437391016+437407182
4114+437517757+437827021+438073079+438262556+438283657+437906252+437196933
4101+436462755+436429013+437125456+437293975+436892134+437223532+437943659
4087+437735102+436801671+435828625+435038900+434941248+435541072+436165756
4074+436537192+436600586+436333241+435864293+435195389+434507358+434206224
4060+434368586+434690256+434735276+434741338+435064371+435121750+434675594
4047+433882721+432995767+432855632+433622800+434447958+434576532+434096306
4033+433518898+433235574+433280077+432965456+432149744+431855377+432692471
4020+433666786+433506538+432743506+432444346+432708590+432836600+432079912
4006+431153671+431035623+431307292+431745600+432451254+432801684+432541058
3993+431767311+430706810+430173670+430073903+429856229+429975498+430416532
3979+430524100+430371653+430267751+430218924+429939877+429363597+429265850
3966+429647296+429455093+428779421+428527537+428900993+429498421+429743774
3952+429448514+428860250+428384441+428331386+428039134+427244475+427252745
3939+428119774+428688113+428331668+427060871+426346806+427121493+427606653
3925+426705319+426186276+426987186+427355943+426561237+426320443+427182396
3912+427706091+427793593+428206383+427690630+425345940+423511034+422998476
3898+423656807+425859625+427187519+425396740+424184732+426065221+426568098
3885+424456401+423249750+422229147+422108421+424001363+425249979+425172064
3871+423700840+421677115+422228489+422641843+421412448+421858932+423718369
3858+425505529+425304679+418893364+415094180+419681679+424863458+427351714
3844+426611567+424106535+421425653+418867894+418600689+420178917+421099518
3831+421657801+422458992+423016898+423766866+422838652+418825882+418519485
3817+420341279+420458199+422697624+426204980+427512760+425634855+424320778
3804+424605887+422338078+420529864+421696570+423283774+425376391+427234324
3790+427896227+427875362+427138692+426375049+426696343+426103944+424489014
3777+425152233+427043249+427575073+426455173+425786127+426261701+426246898
3763+426251315+425845621+424114054+424121244+426448688+426783469+421709070
3750+418011956+420884383+422395175+419726887+420184462+423380862+424376042
3736+421329786+418493403+419757386+422929490+425122251+424812141+423349893
3723+423226864+424428440+426192714+428051493+428815089+426162498+421762878
3709+422233752+425675270+428368323+429044276+428128938+428473588+430706340
3696+433341826+434913334+434021211+430747178+429497622+431829719+434752757
3682+436537850+436927567+436163876+432196502+427862297+427998390+426805321
3669+425113322+427612997+430143124+430391296+430436316+431533237+432576162
3655+434572021+438432626+439520712+432389269+425435650+424585492+424290091
3642+422654437+420435689+417312176+412627917+408189575+405827778+401262883
3628+392473888+389238013+389810534+389014701+384900237+378981155+376452461
3615+375950313+374201100+371728070+368547789+365345397+363989778+362880122
3601+360358383+357743433+355606312+352675684+350068159+349448809+348471909
3588+344531768+340949858+340014853+339443859+338410168+337422483+336148937
3574+334392839+333191828+332303417+328784078+323039577+321427467+322948222
3561+323380185+322566917+321928323+320848014+318638524+316936045+316405912
3547+315703502+314670163+314105819+313987348+313988828+313739129+312865991
3534+311750789+310692990+309203604+307413036+306025367+304969401+304279866
3520+304285905+304406631+304144948+303560984+302440120+301072259+300404811
3507+300290711+299417643+297902410+297289757+297360341+296944449+296059445
3493+295360159+294871357+294338827+293841824+293507255+293208329+292610267
3480+291985584+291946462+292121747+291578033+290597327+290272297+290187262
3466+289388021+288265254+287440848+286894197+286433050+286020001+285602277
3453+285075457+284503523+283932435+283369266+283052272+283095271+283240739
3439+283138740+282737322+282338676+281903188+281316522+280981529+280831691
3426+280381799+279834584+279507298+279202240+279012058+279226418+279642874
3412+279787966+279426939+278960506+278787923+278893728+279203486+279434035
3399+279551824+279873494+280139430+279917739+279858903+280671913+281522283
3385+281562791+281491173+282246334+283584989+284621477+285209412+286047822
3372+287534482+289096568+289977789+290476930+291439919+292894249+294549593
3358+296507269+298432355+299882338+301127429+302321673+303291030+304355526
3345+305998064+307758673+308918213+309475625+309675911+309961608+310367044
3331+310509928+310582485+310549520+310186895+309858293+309799316+309808644
3318+309604035+309342939+309511270+309879088+309752934+309385797+309633382
3304+310430462+310940199+310754787+310340046+310483024+311261282+311969050
3291+312428529+313118251+313959340+314719717+315526571+316274848+316992532
3277+318096196+319561710+320879382+321989790+323023670+323640952+323968473
3264+324513244+324919009+324951998+325315399+326145514+326842732+327318752
3250+327774025+328233245+328675430+329211249+330140004+331088660+331413925
3237+331437422+331538928+331758646+332160346+332500484+332782750+333107804
3223+333107686+332734864+332501447+332780894+333575107+334434593+334475031
3210+333809322+333652928+334095230+334298124+334166425+334339972+335225187
3196+336119096+336182632+335894703+336120295+336849234+337626364+338178795
3183+338500043+338951556+339884939+340904109+341345143+341439036+341782299
3169+342305924+342555459+342371621+342056953+341936226+342179770+342725340
3156+343076099+342996915+343046634+343712320+344507543+344724958+344347507
3142+343780695+343565888+343857835+344300255+344688068+344928275+344941974
3129+344951090+344987181+344710907+344454417+344853368+345459301+345475232
3115+345012628+344708252+344887250+345435170+345891970+345880621+345611630
3102+345379389+345351122+345803974+346612332+347109570+346922724+346593206
3088+346864264+347535095+347847202+347761345+347899929+348410301+348744283
3075+348633637+348555135+348879202+349194316+349098074+348947248+349169245
3061+349570099+349653325+349344155+349124155+349074248+348889587+348691251
3047+348692708+348961158+349239030+349032353+348648135+348743743+349002935
3034+348789186+348431871+348560445+348930636+349072768+349100705+349187056
3020+349198945+349259613+349438588+349237973+348816395+348866607+349133178
3007+349267602+349531729+349887211+350007115+349971917+350299602+351184723
2993+352134884+352807054+353384369+353988375+354681670+355545573+356408866
2980+357174601+357770266+357947596+357839723+357831663+357903634+357759105
2966+357443662+357195654+356881714+356398481+355979111+355947015+356495828
2953+357256863+357561381+357460862+357651913+358267269+358790165+358854734
2939+358474205+358175491+358303571+358346194+358137614+358093840+357986154
2926+357568993+357365770+357375615+356736716+355575508+355056677+355263260
2912+355567073+356131182+356968182+357494744+357619417+357672919+357644441
2899+357578322+357882745+358426600+358755578+359009060+359315528+359535316
2885+359767088+360007084+360058165+360041389+360195621+360446966+360597697
2872+360569384+360466750+360485265+360595348+360730947+361013072+361317543
2858+361368860+361155204+360770657+360315149+359898341+359735532+360112983
2845+360739829+361129686+361554766+362202030+362683313+362997558+363450011
2831+363957164+364318097+364715403+365245160+365669300+366007770+366291634
2818+366413817+366551508+366875668+367343112+367859570+368331572+368754067
2804+369225740+369762851+370274586+370687753+370916705+371016002+371169482
2791+371342230+371477994+371801356+372328951+372726586+372990361+373354701
2777+373742185+374028681+374292455+374522629+374704470+374942233+375103961
2764+375181359+375510125+375972400+376282768+376676714+377206236+377581949
2750+377855779+378192158+378570761+378934984+379308511+379775884+380256580
2737+380666668+381053378+381579610+382376243+383134435+383638228+384063824
2723+384398253+384681459+385235183+386002727+386450269+386520242+386782982
2710+387378741+387950393+388362173+388597023+388814673+389327630+389915729
2696+390341490+390745939+390876416+390587829+390400208+390574789+390865796
2683+391150928+391376168+391454177+391484041+391536580+391590716+391741448
2669+392044650+392349637+392534439+392688460+392859093+392969715+393072749
2656+393327688+393775817+394315702+394735729+394905422+394967830+395120229
2642+395505810+396051451+396470633+396839954+397476668+398297409+398864244
2629+399076137+399296489+399602745+399900449+400398532+401110436+401689489
2615+402056273+402552383+403342859+404118016+404559566+404827476+405280023
2602+405910487+406527041+407092936+407594168+408021291+408513501+409211071
2588+409985100+410623929+411073092+411364874+411673668+412113903+412585059
2575+413103679+413668775+414135843+414542195+414885717+415070918+415282342
2561+415611813+415877513+416130479+416596748+417327543+418122484+418659196
2548+418922030+419156575+419418657+419744745+420239867+420821035+421357090
2534+421757850+422025242+422288687+422600677+423094202+423812638+424306116
2521+424400949+424554335+424936674+425339737+425748908+426247885+426637225
2507+426764625+426952692+427303404+427586070+427858021+428142613+428355634
2494+428606204+428983749+429273604+429269939+429202644+429257063+429403635
2480+429600679+429669242+429601008+429563507+429555988+429485310+429316039
2467+429066598+428777636+428534445+428298584+427954874+427619905+427479019
2453+427530947+427601625+427449601+427022478+426567957+426257142+425936976
2440+425526394+425187008+424962990+424747337+424425479+423886464+423170613
2426+422469941+421969555+421664051+421322972+420915210+420575354+420137469
2413+419499580+418892049+418354068+417797712+417321763+416847317+416201533
2399+415519142+414952495+414482889+413978603+413274030+412560764+412072079
2386+411387055+410047930+408137412+405766029+402974196+399913419+396720262
2372+393422215+389862039+386082686+382560598+379725578+377620530+376126961
2359+375590085+376517359+378599239+381617322+385545880+388427706+387922103
2345+384442732+381172976+379733755+379471743+379998727+380676843+380912867
2332+380973771+381213320+381872943+382950103+383831959+384447878+385502129
2318+387106015+388653251+389740162+390503288+391324005+392320642+393196130
2305+393866209+394530603+395111488+395538236+395942614+396315507+396660768
2291+397132018+397765537+398357419+398716308+398944978+399176186+399395316
2278+399690059+400139505+400630210+400988817+401220260+401510820+401954297
2264+402549563+403192997+403694182+404135968+404743405+405455120+406111055
2251+406730663+407390169+408095494+408777463+409433444+410154652+410903023
2237+411599231+412308973+413094985+413946271+414853667+415706786+416357974
2224+416971333+417825721+418818739+419715515+420608296+421705029+422947348
2210+424100567+425126198+426188485+427278686+428249570+429203114+430407932
2197+431834653+433288207+434746131+436106685+437351730+438697998+440096992
2183+441428692+442843618+444411977+446042743+447730043+449522467+451450936
2170+453493036+455413282+457087048+458772326+460548255+462268873+463961718
2156+465616733+467179782+468662237+470051880+471340675+472343797+472912276
2143+473251804+473559188+473866995+474055909+473893123+473383245+472605973
2129+471460931+470040930+468532723+466829727+464778182+462380858+459840675
2116+457450542+455181229+452707447+449865895+446846519+443912719+441152982
2102+438471348+435630783+432597215+429642691+426896723+424244507+421570675
2089+418873110+416213846+413620090+411151853+408832962+406517548+404124924
2075+401778119+399613131+397637809+395750975+393769826+391625210+389569928
2062+387658916+385627202+383610502+381845123+380166447+378444748+376697438
2048+374874868+372990549+371207782+369575864+368026632+366580855+365159985
2035+363692403+362273671+360906750+359505170+357987282+356310932+354641819
2021+353242308+352002809+350592042+349118610+347857000+346680308+345400089
2008+344170835+343088858+341841441+340369183+339085863+338117492+337195458
1994+335979126+334311799+332745813+331818351+331177478+330364350+329313530
1981+328205965+327177772+326153315+325118073+324162180+323228796+322119704
1967+320968459+320220840+319762701+319155616+318343710+317398766+316372665
1954+315417241+314629114+313951633+313165903+312123894+310837730+309647762
1940+309153133+309007782+308565386+307931726+307344778+306810698+306232538
1927+305481371+304401720+303218637+302470572+301885762+301379384+301394117
1913+301362302+300683905+299828624+299500352+299538228+299421191+299083802
1900+298690490+298222412+297589011+297040527+296627079+295967338+295488146
1886+295565003+295609459+295501609+295444136+295335205+295093894+294778427
1873+294272590+292999115+291148889+290682009+291748831+292596616+292711421
1859+292543983+292364210+292164300+291917020+291646197+291202837+290373004
1846+288987661+287691323+287995112+288956903+289134351+288818414+288489812
1832+287507320+285669689+284710294+284928297+285072120+285435708+285970259
1819+285961354+285468040+284841453+283913520+282740000+282154979+282197743
1805+282146027+281549469+280332291+279322167+279071152+278697484+277266228
1792+275735346+276250183+277593866+277925005+277277835+276430426+275808092
1778+275606514+275222201+273555955+270815532+270126609+271808668+273364668
1765+273865571+273145679+272221882+272233560+272476586+272847834+272791254
1751+270865087+268282868+268064584+269247338+269858864+269477911+268797305
1738+268706490+268002176+265668553+265472825+267666009+269580568+270500136
1724+270404575+269931468+268926020+265865948+262688440+263997348+266870081
1711+268528409+268505006+266864066+265229328+264973426+263747038+260906848
1697+260380851+262374665+264998332+266503485+266397961+265455343+263129755
1684+259793362+260685439+263466111+264857422+264145918+262655780+261821035
1670+260729542+260677708+262303141+262859191+261872751+261667696+262133072
1657+261519572+258347891+253117592+253118438+254287869+253700921+255152666
1643+258436286+260430828+260685768+259386869+258891276+262895329+267568027
1630+270673401+273104677+275779379+278852726+283138552+287580348+290585814
1616+294076369+299858841+305302866+309322685+312897852+316998547+321253920
1603+325401702+329603550+333606357+337119211+340523721+344403946+348674545
1589+353064931+357433065+361677512+365819232+369865884+373237711+375479838
1576+378971592+384919998+389836639+393604902+398539378+404331319+409527619
1562+413107203+414029355+416220002+424801709+433532291+441153170+447771491
1549+453904323+458813446+461853216+463302400+465563771+475750210+486976708
1535+494180003+501163745+509890662+517328737+523003711+528364676+533417646
1522+539262925+547136769+555547185+564500046+572903460+579280658+583448036
1508+586342268+594574673+607445095+616759994+623234938+628360089+634884941
1495+643394231+650271486+654907717+660627007+670015685+679918613+688307976
1481+695859022+702934214+709055250+713834154+718555773+727058390+737699772
1468+746326828+753350420+761770799+770757119+777107437+781190838+789896654
1454+803528323+815875944+826275874+835350025+844764973+854986704+865269150
1441+875199428+884015679+891923171+900406709+909761975+918870901+927694766
1427+935956588+942341681+948036064+953459013+957057300+962298479+971530246
1414+979615467+984243005+987929735+991086190+992389600+993686149+995919183
1400+996396449+994910892+994192832+994519719+997055579+1000810636+1000890149
1387+996626153+995425000+999428653+1003979686+1006978901+1008470003+1008569347
1373+1009642301+1012446494+1014256117+1014890435+1015323808+1013188708
1362+1009253196+1008330151+1009686005+1010304251+1009363536+1008349982
1350+1008088886+1008160410+1008493312+1009042571+1008982044+1007508799
1339+1005789403+1004719645+1004497178+1005662051+1007164055+1007876664
1327+1008171407+1009391826+1011798642+1013813439+1014479148+1014870886
1315+1017087566+1021605139+1026872070+1031264359+1034291770+1036643040
1304+1039358979+1042391278+1045410042+1049178634+1052929274+1055370866
1292+1058206732+1061936695+1063874235+1063809196+1064724628+1066765929
1281+1067469045+1066920725+1066994975+1067875162+1068151201+1067286616
1269+1066100314+1064948599+1063808914+1062741035+1061547495+1060687233
1258+1061226248+1062881075+1064137680+1064256197+1063566146+1062916790
1246+1063220274+1064069915+1064506484+1064668142+1064415975+1063926961
1234+1064105912+1064568798+1065303493+1066434813+1066717902+1066317611
1223+1066589046+1067516320+1068318310+1068891442+1069687605+1070732645
1211+1071268652+1071136413+1071262919+1071673078+1071740560+1071533037
1200+1071438111+1071827968+1072800074+1073741823+1073484393+1072023837
1188+1070621647+1070177465+1070671084+1071442810+1072404672+1073111453
1177+1072451101+1071093555+1070145321+1069144455+1067979769+1067307669
1165+1066873826+1066329078+1065644947+1064366350+1062999311+1062372324
1153+1061151529+1057985393+1054566244+1052619870+1051003295+1048550050
1142+1046166731+1044641042+1043295337+1041062209+1037037409+1031546132
1130+1026407681+1022411453+1018406766+1013587589+1008524328+1003356083
1119+998007384+993015741+987761874+981491915+975411058+970514154+965839058
1105+960322405+954297094+948964278+944307322+938635966+931927183+925672826
1092+919748551+913802471+908824926+904688939+900259902+895764133+891145712
1078+885980757+880817682+875293039+868876837+862862146+858397958+854580117
1065+850287830+845940279+842424042+839713272+836995641+834026690+831161406
1051+828747541+826987824+825504054+823979304+822618186+821665629+820992683
1038+820451507+820149621+819642656+818585397+817508872+817009519+817189316
1024+817431333+817145518+816729721+816845324+817604738+818802225+820136087
1011+821364589+822288387+823101467+824455724+826037617+827087827+828041981
997+829241348+829861755+829735155+829595678+829104973+828037940+827306722
984+827087827+826494111+824555632+821298329+817539230+813854192+810389836
970+806874256+803470428+800647344+798365530+796545850+795276181+794938393
957+795765007+797142291+798896556+801520670+804392815+807048602+810524895
943+814869626+818925536+822559257+826156229+829650191+833426114+838234294
930+843613539+848234592+851953465+855272424+857727549+859444031+861322735
916+862869383+863288847+863168168+863097114+862612517+861581575+860157392
903+857616363+853792412+850040926+847402151+845181617+842684761+840222305
889+838078934+836596761+835538469+834063345+832057289+830285166+829503853
876+829816078+830946082+832202592+833364646+835184044+838128935+841969615
862+846151279+850518098+854961891+859479465+864545075+869630611+873997806
849+878043659+882007368+885676051+888998676+892111709+896046846+901607861
835+907246698+911079107+912376032+911591806+912039841+916352993+922536202
822+928054171+932255855+934431369+935815702+938572149+941555293+943761917
808+946225971+948913149+952534276+957699137+962002890+964921559+969662257
795+975236995+976929228+978856523+987554821+997214604+1002009721+1005944200
781+1011266207+1016646862+1022216618+1028745699+1034781724+1038400031
770+1040751207+1042737901+1043713955+1043431900+1041606675+1040074313
758+1042314772+1047601910+1051291835+1051442120+1050216155+1049413977
746+1048055209+1045775275+1043884729+1042191086+1040914838+1040015477
735+1037389202+1034476361+1034335662+1035063967+1033968831+1032555363
723+1032896535+1033264306+1031246219+1029291856+1029717523+1030360299
712+1030166310+1029276067+1027720114+1027643045+1028790248+1028472573
700+1026779963+1024697684+1023317486+1023970413+1024824096+1023226037
689+1021007195+1021058794+1022506098+1024015809+1026794907+1030552126
677+1031972832+1031829314+1032570025+1028314393+1016526370+1015072769
665+1029155669+1038886695+1039877974+1037791184+1037239951+1036751313
654+1034037348+1034049096+1038637630+1040236628+1034685199+1027557892
642+1025281248+1027027054+1031634291+1039101079+1040592369+1031683258
631+1023416737+1021965203+1025563303+1030623180+1029925140+1022632980
619+1014936206+1007133792+1000428486+1001792799+1011107181+1020425134
608+1031563707+1046111748+1049112937+1040702333+1038553417
##END=
