##TITLE=Sample description
##JCAMP-DX=4.24
##DATA TYPE=INFRARED SPECTRUM
##DATE=24/8/2023
##SAMPLING PROCEDURE=Instrument type and / or accessory
##ORIGIN=Default
##XUNITS=1/CM
##YUNITS=ABSORBANCE
##RESOLUTION=4
##FIRSTX=4397.6552
##LASTX=599.8556
##DELTAX=-1.9287962
##MAXY=1.3535786
##MINY=0.42906773
##XFACTOR=1
##YFACTOR=1.2606183e-009
##NPOINTS=1970
##FIRSTY=0.58716536
##XYDATA=(X++(Y..Y))
4398+465775696+466400576+466824507+466217216+464909819+464628066+465787327
4384+466242559+464791662+463333719+463465352+464343758+464775727+464697570
4371+464698658+464553265+463408803+462151998+462381600+463073620+462850874
4357+463265160+464817288+465246231+463872403+462234316+461721069+462123298
4344+462259281+462055590+461920410+461172030+459657869+459351812+460951790
4330+462191668+462222637+462058379+461636482+460628475+459491767+459051287
4317+459672573+460526109+460793206+460462231+459419094+458256333+458163566
4303+458629956+458346879+457814530+458325365+459379283+459762882+459482736
4290+458812891+458154866+457984131+457837131+457630508+458076094+458557709
4276+458107111+457357549+456701132+455947834+455834546+456486707+456954327
4263+456967755+456705245+456600279+457039104+456984304+456139752+455896107
4249+456178665+456151099+456009868+455841685+455200824+454278966+454383412
4236+455447873+455804380+455518701+455507543+455267681+454609325+454198681
4222+453853474+453551956+453921229+454199437+453586425+453062256+453060034
4209+453008969+453110011+453696309+454747389+455853459+455796815+454363364
4195+452909488+452145409+451813016+451894956+452410236+452833127+452691281
4182+451955855+451009599+450393561+450125992+450103864+450654369+451659208
4168+452084983+451409511+450356539+449714543+449737428+450060270+450191950
4155+450392474+450778201+450778390+450385476+450066842+449745939+449227349
4141+448529702+447885247+447821511+448047661+447643069+447029158+447102776
4128+447282732+447102398+446959701+446473263+445781101+446109285+447071712
4114+447183534+446432080+445747057+445635235+445949236+446037606+445741431
4101+445518401+445400054+445311448+445556605+446051979+446167064+445744788
4087+445400622+445547811+445542279+444719382+443789390+443442246+443494823
4074+443969582+444485666+444252424+443636953+443405791+443146307+442172107
4060+441005375+440763574+441417674+442068796+442416083+442668191+443023137
4047+443207064+442888005+442363647+441771817+441202588+440917383+441009867
4033+441220272+440925326+440439408+440467683+440625463+440469102+440594399
4020+441407840+441595786+440690713+440300730+440445082+439954389+439379912
4006+439577031+439822377+439354710+438745197+438543397+438608505+438464814
3993+437607118+436654195+436408044+436549796+436928667+437414869+437435815
3979+437326593+437700358+438296254+438709736+438837350+438700232+438439660
3966+438566234+438920235+438222257+436986020+436758215+436800864+436186953
3952+435565998+435136346+434657378+435035398+435938959+435580230+434631846
3939+434784236+435810824+436376744+435206087+433439439+433439912+434300588
3925+434006446+433477691+434086967+434331368+433400810+433241611+434404325
3912+435366704+435920282+436386105+435327460+432330675+429927043+428923198
3898+429720373+432577345+434918895+434024082+432347271+432983451+432648079
3885+431183943+431887264+431904711+431823906+433788570+433995146+432270201
3871+430859020+429456918+429907090+430616369+430090970+430589040+431879698
3858+432863827+431308484+423874418+421295890+426701508+431510898+433445964
3844+432988794+431733077+430062270+427265252+426541694+428844899+430948714
3831+432021403+432796876+433436744+434502199+433880439+429600419+428170514
3817+429172563+429283676+431305789+434180255+434966319+432968557+432347933
3804+433938691+432502403+430384687+430756040+431371180+432921701+435105281
3790+436205866+435952387+434859462+434023940+434336333+434153635+433093476
3777+433701997+435541080+436780722+436318965+434928163+434375293+434529197
3763+435775552+436885971+436095368+436215512+438680232+440052594+437489243
3750+436832164+442818359+448994012+451633959+456196254+463636655+469626490
3736+470676956+468910639+471139894+476798329+480936362+480846384+477635553
3723+473834074+470253734+467445510+466345634+468341789+474604394+486181598
3709+501103631+516309168+531445057+546458203+560942120+573933721+583789479
3696+590099319+592821348+589476047+578023478+566340882+561049119+557243149
3682+551667742+544879407+537578109+525867238+514246629+511158306+506611567
3669+499182041+497073402+497190614+496216320+495189495+495873903+498200181
3655+502806684+509804998+515441352+514722334+512012078+512237756+511940399
3642+509693554+506569202+504022259+501979579+499947585+498173419+492947710
3628+483293467+479235720+477950830+473488773+464351796+454205915+448884223
3615+445581050+442402465+441911772+442507857+442036975+442675803+444060790
3601+443213542+440225741+437506170+434858185+431640782+428981496+425653217
3588+419518983+414162397+411986712+410550708+408554743+406577785+405483016
3574+404736905+403770790+402567839+399072229+393425567+391442202+392304178
3561+392359711+391786605+391868474+391689677+389770450+387541384+386635578
3547+385607264+383898324+383203278+383455598+383452927+382865613+381929522
3534+381213624+380666854+379656271+378582803+378108729+377547916+376560359
3520+376019783+375892216+375431547+374733120+374003487+373096427+372781458
3507+373641660+373960767+372514763+370892681+370189194+370064677+370123709
3493+369551147+368128760+366902996+366226224+365652101+365086466+364373098
3480+363833846+363853302+363794460+363085654+362403776+362766807+363771197
3466+364079571+363139910+361495369+360012296+359031666+358384729+357630083
3453+356760566+356568340+356771464+356525101+356530751+356888180+356748556
3439+356322356+355980743+355712795+355380260+354885737+354420931+353795318
3426+352858234+352327210+352438653+352404492+352209974+352275838+352244939
3412+351851315+351217074+350627112+350367651+350338029+350383325+350447629
3399+350517512+350968346+351593392+351355137+350697633+350872600+351649208
3385+352482768+353171289+353286539+352853033+352466172+352688326+354002366
3372+356048309+357260999+357314854+357633322+358668988+359921278+360962453
3358+361307848+361525157+362794727+364957079+367080422+368622290+369474786
3345+369955645+370318251+370778684+371642031+372568925+373398772+374455314
3331+375114946+374824185+374168926+373724168+373656791+373799795+373902232
3318+373916913+373569721+372776990+372127807+372215680+372891932+373392909
3304+373512273+373484684+373270354+373166310+373454684+373819725+374089776
3291+374442808+374975771+375726540+376704711+377714964+378623134+379457214
3277+380151503+380590139+380856266+381556419+383071290+384484598+384867039
3264+384765595+385135389+386136137+387129723+387691268+388208014+388738590
3250+389259496+390012203+390484102+390493866+390841815+391665634+392386898
3237+392849482+393126981+393317646+393738905+394468279+395225856+395451060
3223+395077201+395149424+396022677+396761317+397065199+397276455+397226147
3210+396621788+395664113+394976703+395139589+396140598+397347000+397948807
3196+397561141+396871106+396852524+397190213+397379199+397739347+398257417
3183+398761302+399130149+399272705+399594081+400322461+401093915+401735486
3169+402490297+402938531+402290294+401026917+400448042+400702183+401164555
3156+401732980+402070385+402212609+402726140+403032670+402466325+402128305
3142+403140331+403874054+402809687+401527067+401705225+402675643+402667037
3129+401578368+401265691+402779474+404119259+403080661+401230277+401377324
3115+403491447+404294723+402317055+400740340+402186982+404540873+403738685
3102+400608660+399892005+403046050+406124633+404948350+401694303+401135004
3088+404339168+407171317+405437152+402118140+401850098+404240206+405657297
3075+404396805+402706612+402964111+404786598+404952936+402604247+401015238
3061+401827355+403615185+403543552+401479501+400284825+400619393+401122332
3047+400831736+400129219+399942171+400186856+400225817+399811437+399205138
3034+398787023+398739079+398857332+398801255+398719362+398872556+400476695
3020+407692081+420763163+429071285+425041954+415304400+407690899+403467806
3007+401264604+400084963+399568548+399403345+399354881+399509446+400029880
2993+400876607+402264336+403826488+404315905+404151269+404961589+407076894
2980+409312580+410089093+409772918+410005073+411287079+413342525+414824629
2966+414902314+415042789+416303376+418612916+420435829+419612223+417383961
2953+416218127+416754920+418058818+417592758+415004916+412894622+412519581
2939+413082900+412726582+410781823+409000329+408856592+410579408+412463599
2926+411661080+408847797+406984174+407004647+407947972+407818183+405919193
2912+404182806+404108053+405282445+406311350+406154752+405402400+405085373
2899+405493749+406363171+406687857+406095224+405768978+406431920+407491038
2885+408128779+408258473+408594460+409603648+411395308+413913504+416488533
2872+419033301+422558274+427378918+432750540+438222399+443672982+448462987
2858+452091319+454428519+454781243+452821401+449293024+444905106+440275056
2845+435993664+431843386+427468139+423340745+419920313+417099984+414696637
2831+412526910+410646974+409331209+408275495+407016184+405916781+405371430
2818+405031897+404690474+404577848+404671655+404683523+404486310+404304605
2804+404292831+404209993+404048478+404041243+403975427+403651734+403496223
2791+403799679+404155808+404338742+404626974+404960691+405050621+405053269
2777+405172183+405205233+405011046+404797284+404732082+404828868+405121261
2764+405635831+406282981+406695754+406809089+407192830+407781681+408023812
2750+408110859+408287694+408522496+409047186+409902944+410629764+410872699
2737+410955726+411360981+411971062+412604878+413423331+414311430+414949690
2723+415336552+415650363+415995806+416355103+416742201+417132704+417266086
2710+417130387+417044286+416936294+416588345+416335859+416462953+416666171
2696+416749341+416867215+417045705+417143531+417115588+417087171+417178189
2683+417262209+417037809+416471227+415998549+416018643+416358885+416632838
2669+416805323+416999794+417139701+417126321+417087171+417140931+417248545
2656+417411479+417715313+418125580+418334094+418237733+418276646+418741902
2642+419296095+419597329+419881021+420298711+420606801+420916735+421433623
2629+421928335+422262430+422674399+423364386+424157212+424694667+424901716
2615+425163895+425808869+426592901+427208324+427779208+428483947+429218569
2602+429869785+430551356+431183470+431597850+432024618+432574792+433138489
2588+433711690+434147394+434483853+435042491+435671011+435973948+436177922
2575+436654809+437174014+437509386+437797239+438173084+438707041+439219484
2561+439489559+439691075+439949992+440142004+440267964+440451749+440754874
2548+441093745+441325522+441511766+441879053+442336176+442604691+442823560
2534+443135669+443354112+443487494+443758326+444210248+444536164+444487227
2521+444426185+444795837+445429747+446013303+446510757+446870385+447058000
2507+447156867+447193416+447288358+447519379+447692336+447853616+448248090
2494+448706915+448995336+449131555+449118506+449030419+449012877+449039970
2480+448958125+448839210+448882048+448895523+448672730+448509796+448616181
2467+448671737+448470458+448206955+447927707+447639948+447490678+447382970
2453+447171383+446963200+446840361+446593690+446060017+445562705+445366957
2440+445262747+445066196+444720516+444249445+443877051+443761163+443676812
2426+443179688+442380243+441775552+441334411+440957005+440756151+440469811
2413+439873867+439221848+438723731+438337626+438028401+437653170+437017747
2399+436303740+435861416+436144825+438257672+444049678+456268973+477972201
2386+510207085+550884656+596473841+644543255+694390805+745534546+797189076
2372+848944694+899909000+946118148+982463404+1007658885+1022265263+1026381168
2359+1019333113+996396674+958745109+913941468+870151555+845358822+853486326
2345+886849502+911209604+908424690+895562643+884620625+877787326+877073934
2332+879662722+877154030+868556636+859450865+850544530+838028587+819735816
2318+795895344+771507582+756393489+752236023+747007099+728797496+698009397
2305+665260367+640529952+623528028+608256770+592139257+574607395+554961647
2291+534776174+516396072+500160921+486047081+475109745+467784853+462956597
2278+459092091+455597521+452541208+449836247+447610917+446049190+444828367
2264+443521538+442055699+440625842+439376271+438266419+437151271+435962269
2251+434802440+433787388+433009551+432550536+432301313+432053460+431778515
2237+431559410+431480590+431593595+431888777+432375498+432936736+433421188
2224+433993869+434792227+435639994+436447809+437179971+437725607+438332756
2210+439226434+440185031+441163959+442142981+442948053+443824426+445023500
2197+446435390+447921087+449308201+450535455+451782567+453199421+454732495
2183+456150910+457397171+458769249+460438590+462230344+463908338+465407652
2170+466911648+468574133+470349575+472159249+473879229+475437315+476870245
2156+478094473+479089808+480046655+480998868+481809709+482377708+482700645
2143+482954928+483196492+483209353+482799133+482011083+481175845+480416968
2129+479391042+477886857+476106214+474319992+472627814+470979750+469171353
2116+466993257+464559365+462112801+459656214+457174378+454777650+452468866
2102+450169255+447884964+445737979+443767357+441826995+439953349+438348690
2089+437039024+435995130+435258002+434894829+435062869+435869974+437147725
2075+438789973+440947407+443447636+445831314+448052910+450282874+452430426
2062+454421237+456306752+458116804+459866430+461491515+462993099+464423334
2048+465705009+466738595+467430947+467690525+467624189+467418323+466927724
2035+465973713+464738706+463396273+461870622+460208421+458578750+456841985
2021+454890370+452779320+450462924+448069600+445702281+443315388+440983767
2008+438739996+436458731+434004555+431508629+429296017+427367617+425503049
1994+423598149+421651309+419984285+418726204+417589401+416567541+415661569
1981+414852006+414296441+413932984+413656809+413538179+413635438+413895442
1967+414326324+415124823+416324558+417734084+419234865+420827561+422551276
1954+424422937+426495311+428795252+431170656+433500244+435783685+438152375
1940+440767120+443386736+445819163+448096740+450032657+451489985+452555061
1927+453283772+453599806+453641603+453796972+453759525+453252755+452741022
1913+452226876+451376272+450191809+448907959+447634510+446340495+444995367
1900+443560924+442057495+440575486+439423553+438530631+437446075+436726584
1886+436768854+436750839+436564737+436726394+437095289+437391511+437684802
1873+437941024+437661870+436825450+436999969+438503917+439858926+440341014
1859+440221816+439993586+439707718+439117496+438216962+437121720+435747041
1846+433597125+430808003+429290910+428777663+427641381+425801730+423757537
1832+421127991+417367696+414020219+411971818+409847198+407811752+406066429
1819+403968476+401426876+398723334+395896528+392872178+390303248+388391398
1805+386565198+384445283+381729945+379087468+377510492+376252789+373972635
1792+371288550+370568420+371051903+370832514+369749708+368621817+367818495
1778+367426574+366979640+365689336+363712543+363327053+364745728+366114544
1765+366823326+366589327+366142818+366527245+366918032+367217824+367338629
1751+365883996+363308305+362259991+362366281+362207508+361410899+360319015
1738+359904374+359071997+356066347+354419063+355297422+356141265+356340157
1724+355863294+355127348+353974777+350832458+347110839+347400559+349419953
1711+350571650+350349069+348598616+346646836+346059522+344560869+341282708
1697+340362930+341705197+343772015+345267240+345406934+344870827+343330660
1684+340761329+341585668+344270510+345963326+345961931+345404712+345524336
1670+345663392+346783079+349242834+350864704+351472704+353080271+355367565
1657+356768060+355968355+353675765+356007575+359314838+361733481+366262584
1643+372111684+376917292+380240465+382324351+386242924+394521920+402778718
1630+410167392+417910636+426183012+435248688+445763795+455547685+464592368
1616+476838897+491160732+504265005+517456562+532200199+548634029+566145181
1603+585013092+605651670+627522229+649903198+673241818+697524755+721268488
1589+742982969+761425720+776235458+786719406+792050365+792313301+786387770
1576+774484603+766193928+760816490+751439084+741998367+737170631+734202357
1562+732549281+729726447+725648368+731160276+740406049+748848736+756303842
1549+763689869+770891922+776994619+780607064+783090933+793454170+806956701
1535+817072511+826096862+835617864+843619409+849864992+855594445+860609087
1522+865113744+871608883+879838706+888258508+896099105+902327005+905980302
1508+905789660+907442358+918066356+927762207+933279079+934943692+936317614
1495+940444299+943729930+942828639+940458673+943565672+949263256+953174713
1481+955446049+957063569+956808246+952583876+945590763+943527185+948420406
1468+952504253+952504348+951399933+951901029+951197093+945186691+939724666
1454+944164452+951067540+956210411+959671554+963508021+967844354+971108709
1441+973115738+974549047+976411677+980225260+984376626+987117473+990840463
1427+996554123+1000669933+1002366509+1003377967+1002891150+1003551870
1416+1008677625+1013435431+1015005196+1014933516+1014738903+1014243009
1404+1014023147+1014912523+1014335492+1011337714+1009237918+1009592155
1393+1011793324+1012998923+1009994998+1003969938+1001436565+1004147246
1381+1008307028+1011414028+1013685648+1014666561+1013953642+1013863901
1369+1014746184+1015327565+1015494092+1014723773+1013667113+1013918275
1358+1014704576+1015012855+1014460412+1013164883+1011782828+1010816950
1346+1010495621+1010193110+1007869480+1003832726+1002575684+1005099980
1335+1007810377+1008554881+1007122612+1005364097+1004974588+1005616962
1323+1006831733+1008449253+1010298927+1013367250+1018249408+1023300173
1312+1026885667+1029691953+1033294752+1037439404+1040903573+1043544655
1300+1045372958+1047378663+1051060424+1055202901+1057857505+1059044380
1288+1059725620+1060637218+1061750049+1062397435+1062611907+1063751121
1277+1065544719+1065874654+1064718512+1063556886+1062742027+1062002063
1265+1061358932+1060852919+1060251964+1058817899+1056825149+1056394031
1254+1057839916+1059451668+1060496129+1060648850+1060173854+1060568092
1242+1062046886+1062953000+1062627037+1062235542+1062720466+1063756700
1231+1064260160+1063882944+1063739395+1064280775+1064764092+1065498288
1219+1066957224+1068088968+1068197149+1068259372+1069215888+1070511701
1207+1071092987+1071109063+1071360509+1071595784+1071650064+1071871061
1196+1071679474+1071444765+1072296221+1073633452+1073741823+1071686566
1184+1069356884+1069035176+1069660718+1069607668+1069297781+1068894938
1173+1068134075+1067441865+1066005719+1063469604+1061648866+1060608093
1161+1058597186+1055993362+1055187392+1055841492+1054976325+1052895819
1150+1051363218+1049153727+1045440477+1041867276+1039060328+1035949357
1138+1032505615+1029282679+1025661156+1020785618+1015038293+1009359622
1126+1003943271+998862056+994393522+990103619+984658332+977576423+970585391
1113+965228521+960956113+956231972+950114523+943352808+937572859+933517286
1099+930439129+926730134+921984527+918015197+916055166+915276619+914749424
1086+913520657+911109177+908815146+907298053+905813869+904298005+902977417
1072+901904303+900983343+899959686+900240825+902848810+905041942+904527418
1059+903353688+903837856+905279203+906395249+906578231+905639776+905140288
1045+906021153+906562249+905973871+905836659+907085851+909065646+910721559
1032+911085536+910484770+910180746+910300086+910514085+911287809+912634497
1018+913535788+913845391+913793002+913153276+912911381+913718486+914382704
1005+914068089+913473092+913294744+913117152+912796769+913159422+914144781
991+914249274+913163394+912008388+910845532+909379126+907718769+905613298
978+903242670+901228548+899291118+896583368+893505778+891137324+889234977
964+887246483+885429338+883821747+882665228+882628537+883215402+883545809
951+884419582+886377438+887840062+888564423+890132959+892587560+895543162
937+898655363+900769061+901802174+902923516+905477220+909289385+912242339
924+913958206+915880695+917814248+919136538+920375896+921108957+920102700
910+918015102+916745389+916617255+916635411+916268975+915371751+913990074
897+912312506+910164198+907880284+906603479+906269006+905554290+904580941
883+904224813+903862632+903340827+903526929+904596450+906781733+909797194
870+913024858+917496229+923870230+931086231+938259867+944825361+949687187
856+952797119+955875371+958523829+958414512+955984687+952927995+949829412
843+947567721+946653853+946414133+947109936+950244076+955373708+959020479
829+958785677+957106501+957358609+959691979+962913118+965273155+965986264
816+966717055+967953860+968891652+969616392+970139521+970773668+972465515
802+975614974+980114998+986014571+992299682+996811054+998872647+999789163
789+1002465895+1008355445+1014387597+1017543203+1019247249+1022884375
777+1027400002+1029147547+1030013282+1032286509+1034006348+1034756809
766+1036374801+1038856826+1040736478+1042441469+1044062015+1044883210
754+1046056940+1047551621+1048123167+1047463298+1046373541+1045646532
743+1044339561+1041899049+1038851909+1035994180+1034546593+1035280032
731+1037581345+1039252766+1038507695+1035807511+1034054102+1035471714
719+1037173112+1034173159+1026618429+1019828062+1018111155+1020595733
708+1023276721+1024439671+1025314768+1026577105+1028134860+1028559831
696+1027432532+1027751497+1030307944+1032964534+1034159636+1034056277
685+1034546025+1035384431+1034039161+1030331207+1027452485+1028393776
673+1033903083+1042519863+1048528469+1043578698+1035414597+1033429412
662+1034788015+1036075316+1037862295+1039333430+1038051423+1035257053
650+1032277242+1029061210+1026811056+1026885289+1029712190+1033775800
638+1036400333+1037902863+1038151378+1031250370+1017145844+1005151044+999149058
625+995980403+994686860+996605093+1000220848+1001620303+998727680+995331504
611+998321527+1007743804+1016964186+1018579058+1011834082+1007601958+1008992524
##END=
