##TITLE=Sample description
##JCAMP-DX=4.24
##DATA TYPE=INFRARED SPECTRUM
##DATE=24/8/2023
##SAMPLING PROCEDURE=Instrument type and / or accessory
##ORIGIN=Default
##XUNITS=1/CM
##YUNITS=ABSORBANCE
##RESOLUTION=4
##FIRSTX=4397.6552
##LASTX=599.8556
##DELTAX=-1.9287962
##MAXY=1.437598
##MINY=0.5384869
##XFACTOR=1
##YFACTOR=1.3388675e-009
##NPOINTS=1970
##FIRSTY=0.67721862
##XYDATA=(X++(Y..Y))
4398+505814530+505538380+504299380+502984209+502528871+503394493+505001529
4384+505287829+503738756+502452522+502420513+502308548+501496126+501002414
4371+501634179+502734592+502615549+501456327+501339554+502303295+503067013
4357+503368004+502890853+501967936+501488914+501048802+500288557+499430369
4344+498470057+497738347+497304379+497111123+497460773+498082210+498305293
4330+497787273+497349610+498083412+499253452+499768222+499869368+500297371
4317+501452632+502365710+501285686+498578103+496595552+496473081+497252826
4303+497524568+497070923+496990700+498012938+499108321+499093140+498751103
4290+499087664+499332206+498549611+497786160+498005994+497422398+495355795
4276+494604765+496213092+497586761+497403834+496706804+495764655+494529350
4263+493713411+493853467+494073701+493523672+493822927+495464955+496298345
4249+496281829+496730711+496537455+495035127+493697607+492531840+491622367
4236+492337560+493816249+494538432+494588515+494535226+494858031+495370219
4222+495643119+495960136+496220883+495644766+494626445+494001536+493646054
4209+493420522+493049058+492149825+491331616+490903079+490022944+489119749
4195+489246760+489811213+490500496+491683892+492586331+491940320+489956389
4182+488528540+488996254+490635566+491605807+491323691+490514252+489440239
4168+488304077+487332768+486722505+486857976+487473580+488082685+488516876
4155+488798680+489063299+489100027+488533259+487594048+486968827+486411631
4141+485752843+486400769+488048718+488097644+486350952+484895013+484538195
4128+484746854+485055992+485250316+485243995+485192041+485146855+484978530
4114+484837672+484905786+484874267+484205818+483299329+483220041+483702713
4101+484024983+484400098+484426809+483449846+482300240+482159338+482847998
4087+483283881+483104648+482975767+483409824+484291205+484930405+484418751
4074+483167286+482293562+481795887+481636154+481669321+481230633+480837578
4060+481154595+481468408+481157667+480622419+480208306+480074527+480666670
4047+481454830+481391390+480735096+480140771+479615851+479217141+479219456
4033+479580102+480137788+480511834+480168818+479524499+479159668+478879289
4020+479015783+480061083+480875730+480372224+479392990+478520201+477821124
4006+478071898+478681136+478397285+477875303+477966344+478385488+478980747
3993+479689708+479640292+478334603+476776359+476143214+476937517+478319911
3979+478988048+479104776+478815138+478274458+478149049+478033256+478003606
3966+479073747+480609998+480467004+478510852+476780277+475722913+474791893
3952+475113452+477460968+479476819+479856029+479603786+478061347+476016380
3939+475311337+475860654+477304484+478012866+476672630+475766897+476771106
3925+478128348+478494959+478060546+477273499+475933264+474223656+473292993
3912+473225725+474191648+476576381+478452355+477822860+476163381+474331837
3898+472616576+473238547+475327631+474128698+470584297+471413636+473672693
3885+472940449+472438946+471725222+470111019+470275560+470947080+472050832
3871+472841840+471058866+470541737+471209518+469834112+468681300+470041836
3858+473217267+475409590+470278409+463770754+465114150+468536659+470866501
3844+471547993+471068215+469572832+466872995+465771825+466557402+466814008
3831+467070614+467840030+468252496+469602481+470898109+468163592+466029277
3817+466068943+465120071+466138793+468870727+470272087+468706364+467678249
3804+468653743+466432438+463912368+464690332+465205814+465808197+467313107
3790+468677071+469807535+470288559+469602170+469153955+468708991+467564059
3777+467604660+468568356+468931139+468079185+467218772+467462022+467649579
3763+468446242+469664051+469234445+468630015+469808959+470813613+468863426
3750+467299707+470416773+473319304+473523555+476838418+483597203+489478080
3736+489683845+483933898+480618857+483095789+487690965+490075209+489294306
3723+487030486+483878472+481997290+483173563+486182182+487868728+486617308
3709+486992289+490706440+495888684+501093010+505661563+510424620+515562256
3696+520758034+525826845+529539883+530682634+531370848+533319521+535363642
3682+536856799+537824680+538229088+534632155+529252159+529988142+530711749
3669+528686148+529420751+531724727+533481613+535533481+538607631+541396950
3655+544182218+549231975+554967097+556205429+553993963+554427397+556412931
3642+557750228+557687502+557365631+557598331+558260368+559397777+557810151
3628+551259045+548412608+549650807+550901337+549663495+545299949+542225621
3615+541143149+540646142+541699188+542084809+539920799+538359661+537941497
3601+537202531+537068753+538570547+539747799+538800352+538269289+538778404
3588+535923553+530861109+529003210+528802386+527482184+525155814+523487253
3574+523517704+525936984+530424781+533588904+531241210+527201449+525386288
3561+523720086+521191869+520428418+522419383+523678194+523134042+524738407
3547+528154728+528044322+524312185+521607629+521597880+522974576+523319240
3534+522684002+523189690+524626487+526432522+528777767+528816677+525384596
3520+522699807+522677369+523056490+523127275+523989469+524547333+523771149
3507+523886141+525664574+526822283+526115059+524673232+524096269+524244116
3493+523650637+522839729+523029245+523948868+525301168+526713568+526616206
3480+524407811+521967786+520755675+520812347+521989333+523429201+523972908
3466+523637370+523242579+523613553+524542970+524611707+523280152+521598859
3453+520693081+520652302+520787906+520872625+521136933+521255531+521241730
3439+521673339+522214508+521919394+520785013+520034516+520461139+521196143
3426+521435030+521378536+520568518+518777931+517855326+519015661+520565268
3412+520502764+519527982+519513425+520263476+520269976+519914716+520183787
3399+519982964+518928226+518325532+517908837+516769025+515716246+516200031
3385+518113623+519633047+519696842+518811187+518180891+518491142+518786345
3372+518581159+518481036+518047958+517278141+517353511+517949616+517628369
3358+516037315+514283189+514030234+515168177+516136948+516529069+516624294
3345+516470260+515934165+515324660+515572451+516071906+515740687+515241811
3331+514719473+513597112+512533960+512135830+512035974+511964566+511883275
3318+511826425+511723943+511323898+510522650+509500144+508971796+509550940
3304+510693379+511069028+510179811+508910271+508365630+508621078+508483827
3291+507700654+507336268+507554187+507852195+507735022+507125917+506699473
3277+506789311+506791537+506247652+505776199+505769521+505292014+503962997
3264+503154582+503460470+503568695+502488226+501059086+500538351+500820511
3250+501403839+501763728+501511085+501171006+501066788+500808268+500299152
3237+500308323+500947433+501400411+501331318+500686331+499836870+499349791
3223+499280386+499128310+498733073+498453718+497929822+496853449+496010354
3210+495969530+495880893+495263775+494992389+495378856+495283185+494170485
3196+493951720+495710921+497410912+496559447+494282672+493872387+494939011
3183+494878866+493481424+493548291+496196753+497482854+495174782+493171841
3169+495190987+498194308+496895964+492755502+492328122+496640071+498669100
3156+495383931+492587756+495639513+500691495+499455701+493558664+492736760
3142+499631416+503576085+497629766+491407342+494363518+501578842+501077651
3129+493798664+492112251+500861245+508739498+503327848+492916081+492459898
3115+502008626+505986238+496750611+488414394+492966076+503474092+503025166
3102+492059185+487422517+495679357+505557301+501551997+489841041+488021160
3088+499177948+507633208+499847955+487797053+486315159+493829160+497596021
3075+491140764+484357761+485976060+493637818+496197021+489282821+482801699
3061+483978996+490456912+491958973+485410406+480017677+480131422+482788788
3047+483209534+480781128+478774269+478398532+478901994+478736072+477437951
3034+476552519+477331463+479052645+479638466+478767725+478607324+485345809
3020+515205973+574664442+623006101+613475938+573989138+541818987+521619382
3007+507650125+497239381+490661164+487373725+485096282+481965593+479105800
2993+478645121+482121008+486478899+485054434+479548850+477237484+480988986
2980+487142895+487500826+481516622+477048101+478425866+484332652+487150419
2966+482080807+476183904+477016003+486233734+494897609+490643179+480176520
2953+475998751+480778858+489531547+490097735+481098858+474285938+476232919
2939+485348213+490382833+484054856+476261099+475563135+482482722+490710892
2926+488742497+479062216+473578313+476624105+484522569+486026901+477928369
2912+471352156+472379603+478298899+482130757+478969573+473709065+472261984
2899+475372328+480276820+480679225+475456691+470960524+471159568+475291749
2885+478484631+476435123+472223030+470637764+472293949+474623345+474354230
2872+471693837+469640011+470059377+472406937+473554718+471536953+468864183
2858+468247555+469325709+470253167+469357762+467112862+465785225+466185715
2845+467140018+467639563+467607020+467154709+466661843+466707519+467152973
2831+467417815+467336346+467129868+467131738+467421555+467454142+466888265
2818+466419973+466579172+466808710+466672884+466435198+466221998+465965971
2804+465745425+465795865+466154063+466374341+466290334+466144224+465930133
2791+465648553+465506583+465515887+465577812+465809577+466135454+466206238
2777+465950434+465701485+465763767+465785937+465464067+465332247+465543088
2764+465519671+465234217+465255185+465770000+466342110+466628632+466872105
2750+467259462+467458060+467307409+467266229+467451783+467269034+466863156
2737+466985806+467434109+467708967+467993887+468382624+468402925+467936502
2723+467655589+467838873+468064271+468238918+468475312+468656325+468792330
2710+468862091+468813744+468872241+468973254+468918585+469059932+469628881
2696+470151976+470113601+469733188+469601146+469776683+469923372+470019176
2683+470324575+470793268+471187125+471526402+471794805+471832735+471726291
2669+471809852+472188350+472549753+472793003+473194562+473787017+474289233
2656+474404670+474169522+474145571+474657091+475323046+475765962+475952674
2642+476084627+476508089+477113054+477395080+477489282+477842404+478280379
2629+478640135+479035505+479312278+479459190+479749941+480215162+480701306
2615+481163633+481627518+482022755+482320718+482756779+483490180+484169358
2602+484396448+484433710+484693877+485118051+485703873+486482817+487045667
2588+487172767+487176106+487412812+488032780+488759013+489127584+489228997
2575+489499270+489989466+490487764+490885850+491208477+491553987+491954210
2561+492349714+492707689+493151897+493736961+494132154+494147246+494152811
2548+494526456+495145756+495725567+496268250+496755908+497111969+497401340
2534+497615743+497829477+498154374+498513329+498843880+499163925+499538416
2521+499866074+499884238+499691828+499727532+500242613+501074712+501800100
2507+502180156+502347680+502434892+502480791+502558699+502708816+502952289
2494+503195539+503324821+503490431+503803175+503950799+503756608+503637075
2480+503829085+504138000+504405246+504474116+504406002+504435118+504483955
2467+504420382+504334372+504325602+504417577+504583365+504771768+504871490
2453+504712425+504404355+504274984+504324177+504278145+504000393+503696374
2440+503600303+503475562+503186413+503008827+502865522+502576017+502316873
2426+502102382+501740623+501301268+500976326+500649603+500320833+500236870
2413+500151617+499777704+499472440+499393018+499085973+498430969+497781219
2399+497295163+497016921+497386694+499458461+504331968+512823198+525750807
2386+543281249+564003993+585605626+606531777+626015210+643915780+661582093
2372+680020004+698028399+714324203+729342677+742053702+750580993+756209493
2359+757468037+748936472+731511183+712338313+695643443+685897452+688320071
2345+698279662+700075280+690817348+680602665+673890224+671886481+675319942
2332+680536822+680866127+677154958+676902626+681156656+682962201+677720212
2318+667082691+656602498+653106221+656225602+657288308+650920798+638436908
2305+623529508+611098416+602961377+596246977+588544885+579715668+569839416
2291+559341549+549473355+541006432+533791864+527811444+523109290+519185144
2278+515595690+512452447+509747757+507303013+505425347+504107816+502658154
2264+501101201+500080565+499507832+498871170+498161809+497628297+497184000
2251+496626047+496087549+495678823+495362963+495318978+495490464+495571266
2237+495594549+495733581+496118623+496651556+496987628+497240005+497682921
2224+498051492+498320563+498906028+499684171+500260955+500680232+501235826
2210+502084753+503013725+503804510+504452614+504892636+505295753+506094552
2197+507288856+508384238+509118263+509737295+510562227+511598311+512538056
2183+513241541+513907986+514646462+515421800+516239430+517100377+517941291
2170+518610853+519068327+519569741+520187171+520675719+521090366+521576733
2156+521968231+522197057+522325360+522287341+522190824+522191180+522099472
2143+521851859+521600595+521329209+520876276+520041951+518931254+517911553
2129+517169871+516542068+515594221+514119806+512355485+510695204+509427445
2116+508342213+506824793+504854796+502998410+501335993+499628033+497940239
2102+496404433+494892845+493304195+491858139+490689968+489685715+488648919
2089+487367270+485805465+484120298+482599183+481423978+480379926+479201872
2075+477995059+476925630+476008055+475374242+475078148+474616356+473426683
2062+471927515+470779734+469971809+469435848+469147189+469015191+469025653
2048+469081880+469189125+469543539+470012410+470164664+470183940+470471665
2035+470953580+471700025+472770967+473772637+474446784+475027842+475638683
2021+476265106+476978518+477236549+476647032+475800420+475048677+474257491
2008+473304612+472145123+470847002+469517406+468164038+466684592+465412514
1994+464684678+463702284+461912498+459909914+457899983+456098756+454761281
1981+453466989+452001611+450598782+449356310+448224822+447406969+447028961
1967+446386333+444985597+443575467+442599661+441774774+441069999+440383698
1954+439477609+438597519+438071753+437868480+437979065+438271419+437904274
1940+436778262+435969357+435728912+435671349+435550124+435378015+435327175
1927+435603903+436357916+437097238+437175858+436781156+436425985+436422468
1913+436573609+436711217+436859731+436826698+436779731+437153466+437742359
1900+438180913+438546500+438679923+438415348+438161458+437911931+437638230
1886+437743116+437917317+438168002+438920814+439447336+439202795+439117542
1873+440090854+441504768+441617490+440717010+441095597+442572727+443646786
1859+443646073+443222656+443228132+443802156+445153076+447274971+449061596
1846+449696789+449329687+448488373+447709652+447188115+447275327+447990743
1832+448008194+446069761+444012863+443578850+443000018+441572303+440524956
1819+440044733+438857820+436890182+435226874+433403878+431188449+429282826
1805+428402424+428903526+428279597+424984500+422329761+421108346+419454698
1792+417153215+415306668+414624419+414656473+414081602+412792608+411486874
1778+410094374+408676587+406908482+404682992+404639230+406239455+406187946
1765+405186632+404638829+404474065+404645730+404278628+403855166+405038429
1751+406591731+405931207+404504828+404409246+404426564+403383624+402195821
1738+402387963+403442790+403793953+403766173+403973007+403709190+403677448
1724+404271416+404876737+405324996+405767823+406403061+406959367+407211699
1711+407528271+407866391+407910731+408339268+409645803+410005381+408679391
1697+408334371+409123109+410895799+413526899+416101772+417539860+417307072
1684+417255430+420030681+422494970+423263452+423099712+423396028+424723309
1670+426362087+428431717+430940480+432935630+434400963+436580955+439499601
1657+442017223+442627619+440786904+442191736+445211396+446931465+448917222
1643+452174967+455017531+456637967+456716587+456234806+458445337+461885253
1630+464586871+466512037+468094677+469875247+472823054+475899162+477192742
1616+477880734+480978925+484877294+487665100+489538358+491597036+494135493
1603+496781907+499371649+502172811+505096666+507788267+510668805+514203590
1589+518035626+521813795+525816160+529931202+533569761+536652948+539199418
1576+542167569+546632305+551029284+555065439+559863843+565093945+570004135
1562+574317953+577654051+582395961+590985044+599811411+608450088+616404334
1549+623289641+630023718+637027534+641270167+642561298+650644515+661727090
1535+670079601+677509416+685194413+692396872+699119063+705118136+710320725
1522+716518397+724027233+731998218+740008602+747381790+755465763+764249660
1508+769775856+769973074+774902986+783006102+789518566+793345215+797697097
1495+804949194+812053043+817643346+822577354+828645877+835191195+840879261
1481+845885656+850452118+854567427+857783992+859194167+861466579+867338953
1468+873592406+878144354+882452073+887458380+890925229+890941167+892591653
1454+900942027+910409552+917707148+922128834+926393459+931779866+936561887
1441+940423351+943722988+947555158+954061033+960840697+964884598+968473162
1427+974196308+978751284+980487246+981286624+981428995+984569701+993026296
1414+1000254531+1001979185+1000668376+1000397525+1001240887+1002546710
1402+1004853313+1006312280+1005973759+1005550030+1006028963+1008445794
1391+1010130382+1007429254+1002388490+1000886251+1003149760+1005623219
1379+1007155998+1008986963+1011156271+1012459690+1012671599+1012276807
1368+1012210296+1011964731+1009613520+1007980752+1010214878+1013128271
1356+1014412191+1014653660+1014268039+1012856351+1011425075+1010871618
1344+1010205351+1007733317+1003183149+999876389+999827507+1001937961+1005016162
1331+1006877578+1007498080+1008597425+1009152395+1008002032+1007133739
1319+1008301197+1010554378+1012832667+1015172659+1017667309+1021926948
1308+1030368051+1039780017+1043479521+1042060354+1041105250+1042588524
1296+1044773146+1046641418+1049019607+1051867023+1054230521+1056538193
1285+1059433066+1061650365+1062552848+1063085381+1063532616+1063965337
1273+1064641933+1065056046+1063442243+1059722171+1057044371+1056651270
1261+1056819640+1056417458+1055727953+1055847263+1056504893+1056755978
1250+1057470860+1059238430+1061678590+1063637413+1062725313+1060301804
1238+1060515405+1062730656+1063273606+1062089497+1061600326+1061609051
1227+1061180425+1061409519+1063191869+1065834411+1067121714+1066528012
1215+1066486877+1067651308+1068035950+1067588092+1068594659+1071138636
1204+1073286931+1073741823+1072611849+1071266494+1070350299+1070455185
1192+1071850312+1072327553+1070544223+1069085345+1070196977+1072077447
1180+1072563057+1071520340+1069450932+1068232900+1069311767+1070511457
1169+1069552079+1068316685+1068534381+1068576763+1067567969+1066128056
1157+1064280708+1062747217+1061948640+1060664543+1058944874+1057463292
1146+1055553884+1052990675+1050163649+1047726072+1046026169+1044305432
1134+1042266565+1040408176+1038258101+1035105286+1031274095+1026319787
1123+1020354191+1015807318+1012659757+1008263535+1002999020+998758257+995107901
1109+990758513+985669046+981410119+978664294+976034040+973317865+970989181
1096+968071336+964660580+962410872+961456836+960227674+958172424+956210574
1082+954530527+952436812+950275073+948548816+946826832+944753507+942033770
1069+939038641+937000129+936042443+935221162+934591222+934270064+933352178
1055+932437140+932146166+930953243+928670680+926340304+924189872+922700098
1042+921828778+921089857+920912316+921596836+922569837+922534489+921341209
1028+920879016+921249234+920663279+919608541+920318259+922752096+924147758
1015+923211084+921642156+921547509+922858140+923675147+923738987+924007702
1001+924127991+923560467+922766342+922697160+923701502+924971443+925209885
988+924148381+922926699+921786575+920036989+918443754+917621137+916570585
974+914879230+912744915+910382752+908538609+907104484+905146284+902774328
961+901186523+900754603+900360880+899667634+899531941+900053077+900471998
947+900896707+902517900+904881754+906810304+909135872+911908586+914073709
934+916081770+918278144+920319594+922179229+923840133+925917020+929167063
920+932969584+935941920+937438461+937980253+938078818+937909201+937845807
907+937181410+935872025+935885737+936741209+936555922+935619070+934198656
893+932875917+932218643+931181980+929679385+928388520+927893561+929069033
880+930813009+931680589+932671665+934341116+935513027+935787974+936598927
866+939022792+942096987+945990504+951760929+957414894+961245995+964264096
853+967003332+969283669+971201446+973004632+975319515+978703382+981948706
839+983481218+984739940+987220611+989313169+990197221+991402698+992893630
826+993606196+994913533+998290454+1002466932+1005436686+1006985937+1008930870
812+1012055638+1013941272+1013788929+1015004112+1018795681+1022436776
800+1025653520+1029439658+1031171702+1030832470+1032205605+1035062192
789+1036609751+1036276395+1036122360+1038067026+1041295345+1044338109
777+1047142788+1050423638+1053374160+1054069008+1053392946+1053782485
766+1055250178+1056220597+1056456635+1056524125+1056727665+1057705830
754+1057767889+1054522208+1050920912+1050795547+1053619458+1056133518
743+1055543378+1054657545+1056189077+1056364036+1053638957+1050407878
731+1047745304+1045531656+1044125132+1045209073+1047598392+1048354587
719+1047600529+1045514649+1042789125+1041371205+1041028945+1041835624
708+1043869683+1043422626+1039651714+1037831166+1038995687+1038619058
696+1036293045+1034232363+1032309600+1032008120+1035203939+1039512103
685+1040882033+1039755710+1039860774+1040878204+1039266004+1035096382
673+1033646586+1036918088+1042287578+1048263590+1050073454+1047355676
662+1041775791+1033276191+1028757631+1030323443+1030192914+1029256241
650+1033268622+1040212561+1042271195+1038920094+1039468208+1039022309
638+1028244330+1021829096+1026983294+1028061269+1023720696+1022775029
627+1019782393+1009909302+1000253551+998956632+1004755550+1011796094+1016738560
613+1016205582+1011545186+1004807904+996989796+994145763+998940962+1004527525
600+1003118775
##END=
