##TITLE=Sample description
##JCAMP-DX=4.24
##DATA TYPE=INFRARED SPECTRUM
##DATE=24/8/2023
##SAMPLING PROCEDURE=Instrument type and / or accessory
##ORIGIN=Default
##XUNITS=1/CM
##YUNITS=ABSORBANCE
##RESOLUTION=4
##FIRSTX=4397.6552
##LASTX=599.8556
##DELTAX=-1.9287962
##MAXY=1.5073167
##MINY=0.39264834
##XFACTOR=1
##YFACTOR=1.4037981e-009
##NPOINTS=1970
##FIRSTY=0.56637567
##XYDATA=(X++(Y..Y))
4398+403459501+403575543+403567688+402812120+401883827+402063601+403016945
4384+403594947+403294079+402191744+401277717+401487382+401915035+401330154
4371+400103158+399416927+399730151+400621929+401428788+401410233+401014553
4357+401495662+402462126+402907612+403084498+403062844+402171236+400770920
4344+399955781+400146637+400893373+401175092+400862632+400862632+400996465
4330+400662393+400805609+401673652+401365353+399326828+397874626+398573298
4317+399769384+399829336+399528850+399534752+399787429+400528645+401404416
4303+401460378+400557603+399752187+399884704+400086981+399434038+398812048
4290+398741480+398850644+399393744+400175764+400619933+400852017+400961351
4276+400793041+400342630+399755839+399509234+399768832+400075942+400255928
4263+400075644+399218216+398080257+397414874+397763212+398574317+398488379
4249+397490664+396964760+397477502+398162162+398061023+397568535+397753489
4236+398315696+398570835+398717108+398818841+398848266+398636945+398028202
4222+397489815+397274885+397469647+398118386+398440824+398120382+398006463
4209+397973259+397297898+396854365+397258962+397449903+397398612+397976614
4195+398533386+398325971+397741345+397263718+397445317+397954450+397426762
4182+396332028+396407776+397246564+397409566+397216248+397595751+397935131
4168+397423196+396957245+397410713+398001113+397760749+397014268+396396651
4155+395809435+395436556+395586056+395783408+395938045+396225369+395959530
4141+395309177+395472476+396104402+396193440+395774406+395349216+395637389
4128+396706733+397414534+396971086+396158708+395922590+395924458+395654161
4114+395301747+395291853+395544233+395469165+395307351+395660402+395988742
4101+395719506+395175599+394637339+394284670+394521212+395283192+395750204
4087+395242940+394190410+393615253+393864151+394226925+393943678+393320966
4074+392924521+392942184+393338969+393487959+393203098+393170532+393355613
4060+393362831+393444481+393589607+393564981+393487832+393332982+393258338
4047+393439895+393488936+393567613+393938285+393784242+393040011+392643481
4033+392520306+392457933+392696258+392715662+392380571+392464514+393108923
4020+393825598+394049572+393541798+392865842+392638089+392667895+392527736
4006+392438444+392533044+392085520+391064707+390757300+391600420+392602975
3993+393218044+393692699+393927203+393704927+393337143+393044129+392523193
3979+391950881+392073164+392668617+392729462+392177742+391783378+391748688
3966+391602712+391281718+391245925+391612223+391906808+391887871+391787157
3952+391729157+391565136+391239004+391177013+391111540+390476897+390558504
3939+391785883+392475001+392029134+390954907+390155181+390793603+391820063
3925+391615111+391166313+391199559+390526405+389569536+389880977+391012737
3912+391790766+392225169+392375604+390885273+387789335+386089466+385879419
3898+386516397+388601756+390284853+389564102+389170417+391136294+391567726
3885+390087798+389916601+389026649+388811421+391006623+391816199+390536213
3871+388722978+387511394+388417354+388662218+387841093+389160014+391625386
3858+393437135+392361040+384252284+379936015+385150303+390986327+394032885
3844+393653721+391070015+387846952+384338222+383447208+385511677+387794769
3831+389775465+391375341+392159697+392697447+391251784+387090238+386810897
3817+388262631+388443934+391000678+394202638+394726165+392292001+391191789
3804+391961241+389787396+387766024+389032296+390830415+392646283+394143407
3790+394885728+395325651+395304464+394908019+394812273+394029701+393167177
3777+394256010+395810370+396215094+395203707+394116063+393778467+393355910
3763+394084516+394963132+393458832+392363503+393580563+393672149+389482494
3750+386135195+388567831+390324510+388570973+389694368+393310775+395080108
3736+392630106+388920754+389357621+392700334+395538246+396120579+395420888
3723+395411122+396573240+399057804+402233142+404754433+404430806+402201042
3709+405248789+413643766+423586987+434376513+448021528+464150598+479455188
3696+492026826+500996152+505946809+506709298+505963241+506884614+507561589
3682+505307708+499845923+492684354+481259676+469650979+465222150+458729362
3669+450757750+448616174+447314449+444053343+440687319+437863079+433328526
3655+428583161+426527312+422409414+412499056+407303195+409480521+411982875
3642+412473453+411467968+409782154+407565468+405657548+404841178+401450527
3628+395236953+394934981+397353647+397307621+393350985+388110032+386493299
3615+386337430+384705667+382396759+379360391+376589438+375924945+375487570
3601+373253178+369976574+366968696+364081871+361904842+361192116+359410938
3588+354571270+351460577+351832374+352030405+350694500+348587253+346383433
3574+344540412+343622776+342743056+339031157+333442099+331878420+332941331
3561+333346565+333140488+332571508+331095105+328930495+327409594+326802422
3547+325647098+323735675+322634635+322555044+322366842+321317497+320117059
3534+319737577+319150892+317280760+315412816+314888589+314676419+313621511
3520+312503678+312212427+312189541+311482674+310174007+308841372+307769119
3507+307047243+306091606+304675452+303618060+302888138+302037822+301269155
3493+300633069+300006557+299534958+299171165+298647978+297813903+296842173
3480+296247612+295961265+295572824+295104537+294490827+293589814+292781171
3466+292315326+291545535+290155515+288908244+288222501+287784616+287514891
3453+287526568+287404900+286447798+285037971+284340318+284133391+283884684
3439+283802971+283572415+283185991+283096507+283050736+282685032+282083231
3426+281671989+281547668+281284673+280917058+280825409+280953191+281064839
3412+281110228+280929754+280291098+279704286+279940764+280635615+280950495
3399+280740363+280476965+280610458+280769469+280822904+281313036+281767693
3385+281744277+282081618+283039187+283980919+284761686+285583406+286280507
3372+286597616+287061593+288303302+289620864+290223195+290692182+291582687
3358+292474826+293102144+294024557+295549492+297302987+298944983+299999933
3345+300456203+301292975+302843004+304338939+305156774+305501949+305826552
3331+306001337+305988365+306046641+306137186+306249768+306467139+306646425
3318+306643070+306709307+306971219+306865558+306324624+306227243+306929418
3304+307974687+308810546+309075260+309006943+309122560+309412580+309665872
3291+310004636+310558415+311258637+312147124+313411336+314852689+315839067
3277+316290964+316664821+317207263+318012126+318844610+319361618+319404715
3264+318994089+318883864+319816997+321323356+322379049+322529632+322010224
3250+321589259+321838412+322371131+322898669+323418778+323668949+323894622
3237+324297669+324564506+324629427+324606966+324433094+324264848+324553976
3223+324942460+324750989+324247355+323889824+323937400+324548520+325300224
3210+325712889+325768957+325593747+325535599+325907184+326373963+326523633
3196+326531127+326791468+327344291+327837034+328091218+328363448+328842731
3183+329375111+329866389+330368919+330640151+330440888+330384990+331194885
3169+332301126+332820406+332920377+333052957+333187533+333234005+333491883
3156+334070288+334447435+334460428+334589526+334918036+335208587+335488055
3142+335668148+335663074+335633267+335596688+335635751+335912120+336227489
3129+336414884+336768317+337296323+337471299+337404468+337673279+338117385
3115+338220094+338117024+338304228+338720629+338984579+338999079+338957001
3102+339185009+339736346+340159350+340204336+340329485+340712003+341081274
3088+341532747+341967511+341999929+341754258+341794892+342270821+342585446
3075+342495390+342451274+342688899+343030826+343238708+343244716+343238623
3061+343282845+343085089+342663890+342372108+342247978+342205455+342268868
3047+342487046+342790823+342939750+342805557+342553644+342508892+342588249
3034+342351112+342067249+342440192+343268833+343746142+343409990+342497385
3020+342268422+343482405+344639130+344536102+344143988+344314209+344985176
3007+345716754+345987943+345736285+345210848+345064320+345773671+347130763
2993+348841968+350324486+351088249+351419752+351781932+352479181+353741674
2980+355234679+356154141+356466155+356606866+356511247+356146987+355734513
2966+355376961+355086283+355050299+355235252+355169016+354918610+355040299
2953+355488120+355715385+355820791+356305148+356951553+357299381+357281548
2939+357336831+357755439+357968714+357805754+357614644+357327787+356955459
2926+356572177+356191229+355940017+355823445+355776760+355763895+355776824
2912+355913820+356148388+356193989+356066717+355995661+355960525+356113677
2899+356622449+357226266+357550275+357423788+357044921+356906291+357316917
2885+357965020+358324355+358232473+357912837+357754208+357859848+358060342
2872+358064503+357752340+357554521+357612775+357653069+357697949+357757902
2858+357809151+357807919+357487265+356902300+356498934+356524749+356884382
2845+357347615+357764865+358123054+358500775+359046295+359700724+360163236
2831+360458755+360851293+361322934+361805954+362327442+362785029+363093285
2818+363374155+363747799+364139149+364496064+364877648+365331626+365924404
2804+366447633+366517733+366347046+366395705+366643499+366992431+367493836
2791+368044070+368395168+368464929+368629077+369233447+369886475+370155031
2777+370269757+370539715+371083962+371774481+372199417+372355838+372570088
2764+372868919+373163376+373512818+374013968+374525648+374879973+375264954
2750+375797906+376286149+376598694+376809421+377072840+377429712+377871971
2737+378457998+379026786+379371685+379635359+379971214+380409184+381034019
2723+381805764+382409624+382593771+382674274+383139886+383988228+384775598
2710+385090648+385137820+385313136+385600587+385960941+386251365+386286394
2696+386378191+386699355+386900996+386909445+386936874+387005956+387133844
2683+387399980+387716686+387907584+388057594+388421855+388900204+389185914
2669+389300003+389461732+389648978+389701034+389829856+390310116+390748851
2656+390701211+390459446+390389303+390473585+390745624+391220364+391674766
2642+391998096+392264912+392439590+392498482+392572361+392717318+392913651
2629+393194903+393520653+393750911+393903256+394246584+394846623+395370489
2615+395674711+395895501+396058121+396199809+396403869+396703506+397061016
2602+397289745+397269577+397047641+396797299+396711319+396767917+396909350
2588+397008578+396858738+396633533+396541905+396385527+396120367+396069500
2575+396320861+396549590+396513924+396343364+396261842+396273561+396199554
2561+395961101+395731182+395700866+395877583+396009590+395894652+395854060
2548+396094212+396224775+396065934+395962672+396099137+396251949+396302900
2534+396332537+396413592+396523435+396460808+396250505+396176413+396276873
2521+396456264+396673700+396783118+396737814+396722189+396802862+396990066
2507+397290297+397498179+397467269+397277177+397060719+396875722+396746390
2494+396733780+396797851+396771994+396647757+396568697+396456264+396276491
2480+396204564+396185797+396124358+396045086+396026998+396179895+396264984
2467+395994984+395609960+395427469+395322382+395106348+394929037+394945893
2453+395035610+395042743+394926022+394732491+394634495+394689013+394713554
2440+394665278+394691178+394791085+394780428+394610675+394490302+394460962
2426+394310486+394155975+394283269+394482702+394464656+394346322+394324115
2413+394453489+394598744+394569234+394425848+394367764+394349379+394192108
2399+394049954+394209007+394561634+394690117+394405425+394085280+394151560
2386+394354431+394131476+393192313+391464039+389095306+386329320+383329001
2372+380353392+377620525+375169080+372799710+370575211+369246567+368881627
2359+368892369+369547478+371469070+374925235+379369562+382733930+383016626
2345+380475761+377812060+376783223+377100184+378090043+378931209+379216241
2332+379312242+379886847+381032745+382255198+383291169+384287525+385447393
2318+386821809+388185567+389294356+390258825+391220407+392235784+393398752
2305+394520193+395321872+395868497+396369392+396838528+397175147+397385237
2291+397501364+397627893+397984087+398556739+399043920+399262247+399332729
2278+399393999+399467708+399564389+399626719+399610245+399620987+399740978
2264+399888568+400059552+400318640+400551828+400749095+401088390+401514514
2251+401781924+401900047+402059822+402295727+402593496+402862435+403044162
2237+403313865+403592867+403690226+403843505+404239186+404684502+405000443
2224+405192615+405354344+405559508+405776604+405939776+406043335+406107067
2210+406172157+406364627+406760689+407239973+407595911+407771184+407937923
2197+408174678+408481023+408929651+409381081+409769204+410217067+410603874
2183+410857527+411196227+411666551+412084566+412481563+412918556+413251227
2170+413555450+414023057+414595582+415153670+415628877+416013858+416390814
2156+416764968+417121246+417526310+417957359+418309010+418478890+418509758
2143+418615100+418784302+418830922+418795596+418803324+418814491+418688386
2129+418349091+417892948+417458120+417037898+416467496+415619833+414626152
2116+413692382+412923100+412304082+411644642+410858928+410040223+409188569
2102+408244948+407245026+406341274+405568128+404698556+403644710+402649840
2089+401832451+400995064+400035817+399169982+398533895+397873904+397003356
2075+396103977+395308837+394619804+394044222+393362703+392384223+391384937
2062+390630856+390043470+389551873+389097471+388575091+388034836+387538611
2048+386916536+386132265+385448709+384938515+384510990+384178659+383885985
2035+383505547+383000533+382455862+381971484+381588159+381306100+381071468
2021+380731452+380113368+379366335+378879791+378688765+378531538+378254022
2008+377882501+377542315+377259280+376944612+376606167+376327632+376040096
1994+375439293+374534098+373949727+373851858+373830203+373704650+373443312
1981+373148982+372914987+372668892+372433496+372244933+371936295+371303520
1967+370568757+370298460+370495897+370569309+370208913+369629722+369113116
1954+368762485+368525009+368253820+367844934+367263748+366453195+365832521
1940+366080570+366703197+366864670+366542530+366148675+365920327+365772865
1927+365458240+364640724+363709755+363476865+363483319+363484295+363958653
1913+364318031+363967400+363403537+363353817+363714044+363961923+364015294
1900+364025824+363871866+363469137+363219900+363184276+362944464+362927948
1886+363413345+363795863+364003109+364205810+364388217+364607520+364803471
1873+364631850+363411859+361503005+361337922+363076599+364602637+365195118
1859+365235964+365224967+365438327+365669604+365650752+365328908+364705135
1846+363602078+362624277+363360738+364852852+365599843+365869970+366118826
1832+365558827+363849999+362995501+363643476+364453180+365411237+366391077
1819+366886112+366940079+366701541+366066601+365269083+365204884+365898291
1805+366475613+366315796+365427457+364904482+365400707+365931494+365351369
1792+364427322+365502228+367476937+368382472+368245158+367825063+367641213
1778+368071626+368386761+367339750+365254731+365358078+367816529+370083232
1765+371242293+371148288+370828695+371303605+371861396+372641930+373188894
1751+371829212+369593546+369656089+371168201+372246929+372558200+372670845
1738+373253900+373005639+370980827+371245096+374152344+376969281+378770925
1724+379285662+379214924+378630426+375972076+373085378+374858871+378432522
1711+380769156+381226616+379939709+378752540+379055828+378290962+375834337
1697+375952120+378975240+382663362+384953376+385469387+385012947+382867253
1684+379884129+381986939+386009430+388335407+388484610+387902999+387718512
1670+387328563+389031277+392773577+394813844+395044654+396428666+398663312
1657+399612538+397694767+393993907+395932780+398686453+399909033+403960014
1643+409842107+414035031+415963119+415978871+417580404+424649623+432021493
1630+437254973+441336313+445513060+450133636+455867885+461419514+465287028
1616+469888328+477057242+483823002+489106839+493804268+498871986+503998807
1603+509020159+514423987+519839024+524302161+528085605+532182994+536432517
1589+540416115+544426590+548628260+552752866+556716041+560158408+562503067
1576+566129665+572870587+578962259+584076938+590829451+598709095+606020122
1562+611721846+614905294+619728232+631269419+643748708+655845690+667432479
1549+678846712+688499085+695926578+702402510+711402068+730150000+747989638
1535+760732855+774144385+789068071+801003197+810201381+818984480+828121012
1522+838717814+851677405+865582231+879573589+891607222+900431252+906146478
1508+908810136+915438073+929879672+941628656+949493865+954516745+959215320
1495+965767679+971005235+971897735+972035983+978365429+986156333+990532980
1481+992331906+993895522+994668116+992107210+985925014+981838281+984740987
1468+988703482+989173679+987593420+986666103+984432730+976503663+970309238
1454+974770379+979954351+982239354+982468466+983521803+985703205+985988278
1441+984121502+981190773+976994495+976132396+980168347+982975009+983004560
1427+983185183+983244967+983230615+983814774+982413778+980798617+983066806
1414+985404375+986020803+986164825+985399534+982877691+979984497+978662816
1400+976322275+971149173+967029831+966316341+967852273+968994520+966604472
1387+960298293+956186595+957781885+961756864+964186485+964214338+962786933
1373+961677040+962488697+964236502+965090619+963676121+959995472+957837167
1360+959836588+962510691+962588901+960708453+959672609+960087015+960516535
1346+960212610+959091593+956483132+952751447+951342978+953372800+955315325
1333+955712916+955469623+955323392+956448740+959574018+963160152+964892502
1319+964957805+965860241+968710720+972581249+975816667+978074751+980883451
1306+984310956+987145896+989144382+991197217+994524603+998503827+1001597601
1292+1003843117+1005849161+1007411842+1008391469+1009904558+1012310826
1281+1014368926+1015820024+1016732480+1016586673+1016062298+1015593969
1269+1014548700+1013535699+1013193645+1012987632+1012607618+1012017431
1258+1011756304+1012125278+1012363391+1012239409+1012812783+1014871647
1246+1016893741+1017669477+1018470689+1019075398+1018403518+1017804668
1234+1017904618+1017766370+1017609439+1017642218+1017748367+1018358935
1223+1019131614+1019831518+1021102672+1022284067+1022195581+1022000607
1211+1022975478+1024565758+1026001401+1026053796+1025028143+1024919446
1200+1025208766+1024801324+1025058969+1026646446+1027559836+1027288775
1188+1027193835+1026032566+1023897615+1023939565+1025200189+1024478122
1177+1022599456+1021935898+1022393697+1021874672+1020266134+1019323192
1165+1018672457+1017767559+1016970253+1016015932+1015311613+1015053544
1153+1014813138+1014309058+1012798941+1010764789+1009196163+1006462702
1142+1002120448+999042215+997568953+995672879+993217528+991076207+989135041
1128+986509852+983067825+979204260+975420774+973167615+973369298+974224688
1115+973164898+970132012+966354640+963075743+960622514+958118165+957046231
1101+959221859+962879919+965619750+966841990+967182516+966853539+966084597
1088+966996373+970089297+972580654+973277755+973429591+973720014+974492778
1074+976637920+980252672+984006266+986654469+987706022+988123909+990039345
1061+992398822+992387528+991585297+991824599+991895677+992882522+996229269
1047+999669003+1001048768+1000893281+1000863899+1002073317+1003387356
1036+1002466578+1000115168+999190908+999411952+998587812+997089754+997423571
1022+999508336+1000658565+1000009528+998751536+999084419+1001192791+1002132336
1009+1001510304+1000498153+998778031+997799848+999046800+1000726415+1000563965
995+998741091+997146905+996756702+996685964+996019094+994783606+993372250
982+991640919+989593435+988972421+990373332+991927352+992606959+992271614
968+991316953+990810750+990308284+988605740+986651497+985911766+985617522
955+984839408+984033950+984145704+984896134+983757284+980428794+977669687
941+976362272+976268097+977375442+978261318+977919349+977791121+979474388
928+982416071+984842040+985871005+985659981+985414140+987037114+989417227
914+989732617+988517170+987131205+985938006+985821073+985828461+984342291
901+982954713+983308486+984130758+984584990+985823705+987302741+986965018
887+985715094+984643414+982961252+981900527+982306865+982841855+983099840
874+982667771+980903492+979433202+979881915+981325285+983583624+987906601
860+993874207+999146071+1000869334+999693205+999780586+1001263699+1000710451
847+998630866+998216037+1000387164+1003899928+1007337963+1010454664+1013104565
833+1014249954+1014098034+1014427860+1014661133+1012239749+1008226981
822+1006747605+1010180800+1015416488+1017467454+1018484276+1022091385
810+1025818315+1026868850+1026353645+1026910035+1027695962+1026092434
799+1023823395+1023742043+1025877504+1028245558+1027392801+1023530424
787+1021980905+1022772097+1021356325+1020365574+1023443552+1025905272
775+1024293253+1022429363+1022688536+1023069993+1021421119+1018515866
764+1017634236+1018410566+1017648842+1016022046+1015145851+1014096845
752+1012438205+1011674952+1012324838+1013840984+1016221776+1017893324
741+1017712531+1015878958+1013303616+1013219206+1015344901+1016172353
729+1015437633+1014504372+1013854995+1013216658+1014055150+1016730781
718+1017547194+1016638899+1016199188+1013697385+1008924167+1007145281
706+1009330675+1010370000+1008959663+1008848844+1011442698+1013675137
694+1012059466+1007518416+1005179149+1008340008+1013695178+1016851791
683+1017320969+1015105599+1013179888+1017273499+1024096835+1023896766
671+1016774090+1009133493+1009036940+1018691988+1028745307+1033031090
660+1030532600+1026606280+1025023472+1022190741+1016592023+1013155602
648+1012952560+1010745172+1009133917+1012873585+1014956226+1018694196
637+1031115994+1033521498+1019910408+1010971397+1012640822+1017044387
625+1012223444+1000467157+1001272870+1016392039+1029112837+1035082396
613+1040390690+1044167807+1045957478+1043331269+1035789942+1040160135
602+1061086412+1073741823
##END=
