##TITLE=Sample description
##JCAMP-DX=4.24
##DATA TYPE=INFRARED SPECTRUM
##DATE=24/8/2023
##SAMPLING PROCEDURE=Instrument type and / or accessory
##ORIGIN=Default
##XUNITS=1/CM
##YUNITS=ABSORBANCE
##RESOLUTION=4
##FIRSTX=4397.6552
##LASTX=599.8556
##DELTAX=-1.9287962
##MAXY=1.2841693
##MINY=0.34373051
##XFACTOR=1
##YFACTOR=1.1959759e-009
##NPOINTS=1970
##FIRSTY=0.48386636
##XYDATA=(X++(Y..Y))
4398+404578699+404179275+403930585+403736592+403282197+402929122+402987258
4384+402784493+401837403+400989166+401185053+402341461+403488201+403459470
4371+402501565+402460424+403405072+403284266+402086367+401323502+401023455
4357+400870079+401406058+402180062+401535686+399840981+399244524+400087902
4344+400896942+400850568+400462756+400038862+399255513+398409519+397926218
4330+397797463+398575728+400305618+401075834+399554938+397522035+397083139
4317+397605239+397759063+397478900+397153012+396910601+396833104+397262729
4303+397719317+397627342+397631877+397758963+397388819+396711774+396260045
4290+395980979+395305081+394526043+394882931+396494033+397737583+397406212
4276+396069665+395139271+395193469+395585866+395991645+396437293+396352046
4263+395564037+394991178+394995714+394988487+395388933+396175820+395961368
4249+395086543+394716349+394578323+394506009+394877773+395284922+395191003
4236+394836009+394346528+393637986+393026179+392936845+393026503+392675895
4222+392241909+391919708+391577996+391700198+392179686+392625783+393213917
4209+393598963+393408359+393184488+393109159+393023064+393243695+393262260
4195+392516140+391678170+391058713+390849369+391467057+392209290+392117987
4182+391376478+390885028+390994871+391275407+391295192+391049617+391110319
4168+391675728+392002463+391630151+390949817+390725348+391217221+391620931
4155+391242040+390712490+390785253+390963672+390760957+390570677+390347953
4141+389718578+389260545+389561589+389882070+389376841+388656487+388629849
4128+389000841+389219952+389131241+388641885+388062796+387746626+387786820
4114+388163319+388292224+387787194+387231180+387060336+387276607+387783830
4101+387779594+387056324+386825427+387128589+387056524+386846533+386807061
4087+386853261+387016429+387149471+387015258+386264877+385172162+384790629
4074+385055292+384871890+384275607+384075833+384103891+383869031+383612816
4060+383761083+384373488+384880885+384807749+384479044+384292452+384427188
4047+384601620+384165964+383263653+382405498+381575926+380869302+380599681
4033+380733245+380928833+380865814+380631303+380773863+381413829+381764661
4020+381513579+381509916+381866853+381658955+380867708+380174640+379979725
4006+380307856+380638479+380697188+380744010+380573217+379902377+379261290
3993+379100838+379023639+378772383+378574402+378276199+377801146+377671493
3979+377956415+378023796+377696238+377387195+377227290+377276704+377559683
3966+377670397+377416873+376946081+376483413+376401630+376844113+377392104
3952+377382211+376429290+375340985+375323965+375385091+374839194+375298473
3939+376269485+376022540+374977195+373954775+373715629+374970043+376016434
3925+375304877+374654097+375055639+374589109+373051392+372820744+374464838
3912+376283664+377140324+376568636+373742093+369547356+367428657+368216840
3898+370869798+373924947+374907123+373002601+372207765+374107527+374388936
3885+372243449+370856317+370309947+371798025+373788292+372623611+370049321
3871+368424065+368366154+370469677+371121105+370165044+371207623+372935345
3858+373222535+370500202+363587469+362746184+369026054+374027862+375482723
3844+374122803+371576945+368631489+366320791+367274484+370048424+371988106
3831+373247429+374135960+374344780+374136807+372011181+368227854+368862910
3817+371317465+372554361+375171038+378008994+378452549+375944519+374012288
3804+373230659+370945801+371199176+374131325+376506887+378870712+380975481
3790+381903608+381772361+381139896+381158685+381886738+381298081+380216180
3777+381224221+382880152+383295250+382110783+381244680+382000567+383083266
3763+384097836+383682589+381471042+381220458+383181695+383199736+379375942
3750+378120107+381642534+383986549+384823921+387696290+390726993+390930057
3736+387999153+387121761+391975726+398617217+403446985+405966554+408730526
3723+414047532+421726021+431222887+441510627+451694206+461912173+474632041
3709+491722074+509773376+525943455+539892719+552913606+565727019+576742040
3696+584597852+588989297+590038580+587835157+585621517+586332750+586884703
3682+585365451+582253338+577174182+566993195+558604619+558559067+556123002
3669+552263374+554445865+557351550+557386237+556049492+554489074+551602128
3655+549623323+550195310+548076711+540628024+538788615+543758875+547753464
3642+549374334+550445545+551474892+551942868+552689835+553882650+551284762
3628+545797635+547702181+553318986+556391627+554646312+551305444+551888993
3615+554274623+555877601+557013501+557202087+557630043+559787914+561361638
3601+560842679+560423594+561440133+562244712+563336904+566256644+567726008
3588+564782197+563690253+567463413+571728321+574034011+573977595+572926419
3574+573181538+575115389+576729581+575226377+572059692+573556018+578280080
3561+581768916+583589038+584792617+584769443+583781062+584410263+586882410
3547+588507218+588952218+590162875+592796247+595968016+597693246+597926935
3534+599034378+601032270+602007892+602384266+603531629+604755492+605952194
3520+607142218+607798829+609044323+611446897+613420468+613681219+613522037
3507+614045134+613574815+612981149+615067703+617733719+618684472+619353493
3493+620484858+620879821+620375713+620659439+622324764+623715435+624199508
3480+624853179+625777368+626080381+625977217+626685759+627748597+627150994
3466+625315274+624176284+623712694+624039330+625400197+626576166+626951494
3453+627413987+628618065+629289478+628974604+629351277+630456328+631107058
3439+630246312+628115303+627076885+627796741+628570022+629149086+630198069
3426+631125299+631812111+632438471+631962272+630742097+630720318+632034587
3412+632828800+632274356+631513335+631050492+630564625+630549574+631375384
3399+632057363+631704512+631333022+631772989+632588881+633812546+634923975
3385+635013583+634534344+634434619+635092975+635925862+635914798+634892677
3372+633864576+634096271+635140669+635242388+634826592+635781482+637740152
3358+638593971+637134924+635291877+636060972+638281339+638532820+636686335
3345+635332594+635620606+636538267+637100137+636721670+635654645+635290182
3331+635866605+636239490+635785220+634820861+634359614+634889438+635568625
3318+635827582+635722275+635340917+634591658+633180554+632270219+633252520
3304+634684007+634000782+632060303+632462493+635080466+636479209+636073930
3291+635373112+634449371+632661295+630536865+629388606+630058075+632420031
3277+635334987+637051047+636911152+636878309+638145930+639105854+639188435
3264+639232192+639801637+641328115+642486741+641544062+639791520+639053724
3250+639252526+640823658+643457728+644472274+643992387+644999207+647081475
3237+647705293+646937893+646339641+646366653+646417288+646443453+647112275
3223+647411948+646087164+644262557+642801815+641839848+641873439+641921881
3210+641332999+641550890+642890426+643740757+642734285+639991170+637594228
3196+637246510+637411772+636102237+634562453+634672096+635469698+635285099
3183+634405215+633343573+631930127+630718823+630111800+629299994+627583784
3169+625712729+624734515+624187347+623394380+622330047+621031975+619892387
3156+618732167+617223381+615938516+614848816+613519994+612313025+611603686
3142+611032746+609668888+607266015+604906650+603547726+603127994+602662311
3129+601210938+599408160+598071165+596597565+594778191+593048525+591202837
3115+589745684+589583213+589954653+589713787+588809832+587616967+586094825
3102+584264438+583375682+584117267+585071509+585205771+584646094+583089963
3088+581100095+579997237+579159167+577687510+576453630+576088668+575930982
3075+575295452+574567075+574192644+573534737+572264126+571049133+569953452
3061+568516832+567417164+567203111+566794891+565529961+564081928+562724998
3047+561048608+559371072+558458046+557703903+556159284+554376890+552964341
3034+551594652+550024018+548389592+546794637+545233821+543962612+543173682
3020+542337356+540876414+538919439+536783995+534880096+533838937+533251601
3007+531990409+530160619+528614056+527741947+527448951+527251345+526763783
2993+525926261+524731603+523375221+522176625+521159089+520328893+519704976
2980+519009192+518312661+517705638+516751546+515608619+514492604+512894759
2966+511023304+509569241+508236332+506496450+504886294+504046629+503516606
2953+502725732+501807523+501108500+500500729+499315939+497556719+496106343
2939+495324440+494803387+494192876+493472971+492654038+491433015+489635819
2926+487995712+487165665+486378529+484809739+483085107+481854316+480670323
2912+479340504+478316440+477710713+477331996+476792504+475730463+474524790
2899+473861600+473682833+473326294+472596671+471897000+471378788+470753375
2885+469835215+468828445+467779113+466532872+465434998+464748235+463970419
2872+462762852+461597249+460711634+459751561+458885881+458275868+457412330
2858+456343213+455551093+454871756+453791026+452116381+450406650+449516599
2845+449195744+448621514+447867720+447180807+446587191+446289660+446099380
2831+445560934+444670434+443897452+443546445+443433912+443243482+442640696
2818+441724779+441069165+440796004+440561518+440102812+439419538+438691908
2804+438023236+437451947+436936576+436275479+435528662+435033126+434725528
2791+434280976+433717112+433264636+432961872+432728532+432460505+431872172
2777+431146785+430814118+430558252+429918884+429095167+428356872+427842647
2764+427537989+427294333+427055062+426900566+426738743+426357186+425945178
2750+425618542+425087571+424504520+424192935+423718381+422815123+422208549
2737+422326664+422600572+422478619+422037207+421542767+421084261+420649527
2723+420238765+419984792+419910036+419779660+419582652+419463191+419323446
2710+419076700+418885672+418833642+418748320+418546427+418273915+417928864
2696+417614264+417524805+417576312+417410029+416908936+416333810+415997281
2683+415938074+415912881+415744230+415409869+415073614+414983284+415105834
2669+415288091+415397435+415254326+414947550+414776208+414770203+414760983
2656+414687696+414564871+414464498+414320667+413940256+413571158+413586359
2642+413927672+414378877+414609975+414431431+414175814+414192783+414556673
2629+415163123+415558011+415441790+415232621+415317046+415497957+415621480
2615+415923621+416520800+417245864+417974166+418443064+418511691+418623626
2602+418971543+419193270+419190629+419326437+419921150+420856353+421772170
2588+422327960+422438051+422389808+422409345+422583029+422968773+423490174
2575+424023437+424352864+424338062+424163232+424017357+423959994+424010629
2561+423981225+423777439+423634404+423622992+423683295+423849155+424035946
2548+424250797+424536616+424618698+424394479+424239733+424451094+424861258
2534+424964422+424536715+424023088+423889723+424169511+424597866+424790090
2521+424745934+424778279+424875362+424888918+424921213+425087322+425334616
2507+425573638+425656667+425498084+425379221+425529332+425684327+425573189
2494+425347425+425271223+425288068+425241370+425275459+425474959+425575731
2480+425540595+425611863+425602544+425265492+424896693+424732827+424666094
2467+424581320+424437937+424298392+424158697+423820847+423304928+422957260
2453+422817465+422599874+422318441+422092228+421841096+421568783+421320791
2440+421072001+420831933+420548755+420067672+419431943+418993920+418830353
2426+418550564+418020665+417528668+417196051+416865179+416465630+416034534
2413+415555021+415037133+414513738+414032281+413707265+413486933+413147962
2399+412679313+412203538+411778697+411464620+411094102+410369163+409376746
2386+408370623+407242572+405730622+403753138+401265616+398348244+395276424
2372+392119009+388860797+385779907+383142373+380940620+379080853+377776177
2359+377424722+378132567+379966194+383050547+386767092+389350078+389250228
2345+386815658+384219565+382625008+382017761+382318008+382712872+382618679
2332+382623713+383420094+384502493+385208369+385623716+386131636+387221237
2318+388668872+389731212+390415034+391047873+391649364+392305825+393172203
2305+394115904+394798033+395190554+395559751+395900118+396055437+396131813
2291+396271284+396428671+396605869+396886430+397187873+397345111+397296893
2278+397056426+396878007+397049723+397293803+397345560+397482289+397762103
2264+398015826+398279667+398465437+398496835+398663566+399094712+399521023
2251+399835748+400121019+400455878+400959139+401521433+401875978+402108670
2237+402547789+403240957+404004021+404622855+404985175+405337478+405907944
2224+406629544+407507709+408540694+409569269+410503575+411370003+412301743
2210+413480852+414818695+416048090+417268889+418792077+420541579+422274484
2197+424036594+425909045+427887451+429962343+431961232+433940684+436284151
2183+438869081+441340531+443938319+446833439+449733243+452612265+455627793
2170+458626525+461381003+463974555+466632747+469187077+471415967+473537955
2156+475532209+477212336+478668294+479759788+480438428+480764017+480428111
2143+479472723+478115993+476160313+473573240+470618713+467377322+463565538
2129+459071576+454306995+449491929+444568167+439728681+435074989+430473079
2116+425930475+421471051+417008462+412578193+408320337+404367811+400783760
2102+397360012+393902724+390592955+387623427+384934835+382311878+379589097
2089+376831131+374152232+371711432+369672847+367779838+365729193+363721782
2075+361959572+360318741+358696102+357085274+355334626+353414082+351691991
2062+350257414+348845463+347489006+346238056+344897921+343402991+341902304
2048+340547641+339359586+338160268+336821304+335575412+334584415+333591624
2035+332438430+331347658+330439815+329512187+328518050+327542951+326584349
2021+325704066+324720121+323546718+322706355+322261704+321704568+320927425
2008+319983126+318905187+317899189+317084343+316406276+315716797+314837686
1994+313643301+312392451+311642169+311230834+310714890+310178462+309662194
1981+309059357+308384456+307690890+307038340+306429150+305654598+304469832
1967+303300964+302948138+303118683+302990849+302500322+301835039+301054058
1954+300378757+299911480+299442009+298718092+297698338+296506446+295737799
1940+295916318+296239465+296056935+295722275+295501868+295231025+294801599
1927+294190664+293210531+292333563+292158882+292033067+292081883+292868994
1913+293322766+292808491+292221777+292420903+293064507+293506592+293703949
1900+293742274+293406792+292776296+292419533+292141239+291437382+291155774
1886+291640620+292029329+292184573+292297530+292377918+292357186+292137975
1873+291472667+289665055+287405889+287526272+289653069+291242940+291807676
1859+292070246+292466455+292927055+293216736+293258575+293008739+292412107
1846+291307879+290700707+292361073+294663748+295921925+296683918+297350322
1832+296997795+295808419+296082726+297745809+299384471+301237062+302853821
1819+303554987+303688527+303536671+302745473+301655424+301419792+301889835
1805+301984976+301083985+299533486+298746225+299020806+298993470+297773668
1792+296982645+298962919+301525622+302516519+302447569+302318738+302539993
1778+303407666+303927423+302676448+300323637+300476713+303117038+305669350
1765+307007715+306859024+306716887+307589919+308438679+309109295+308729731
1751+306087836+303451025+303939135+305623748+306521524+306673379+306788081
1738+307239585+306346070+303797422+304571152+308267063+311767586+313945542
1724+314687375+314838508+314006717+310746263+308632473+312766034+318421512
1711+322364843+324132236+324194433+324672999+326423522+327234780+327419952
1697+330762489+337902432+345383365+350302965+353576378+356040078+357293246
1684+360566833+368986508+377622378+384484651+389872676+395287638+400465273
1670+405819956+414665568+424267642+431473520+438564274+447436275+455450221
1657+460302516+462087452+467840911+479645610+487029658+493454331+504528908
1643+515846643+524325924+529966102+532958107+537076442+545639400+553167629
1630+557807415+560858128+563365910+565177659+567413476+569749367+569466837
1616+567902981+569634940+571854361+571734800+570456414+569830702+569363973
1603+568608184+568367419+568602802+568582468+568712644+569908399+571863431
1589+574136577+577154447+581190949+585869260+590722153+595021848+598563711
1576+604985892+614695964+622670688+630604346+641542965+653015945+663154072
1562+670502237+674173030+681623612+697654096+713007236+726725203+738697008
1549+750123090+759703384+765813282+769161925+774237991+789869674+805768088
1535+815977434+825188580+835689526+844311442+850462705+856016116+861342467
1522+867141079+875006260+883283997+892048050+900887458+906591578+907534905
1508+904410781+906813057+919463351+928657603+932373997+932518427+932994676
1495+936626346+939754457+938260523+934169250+934820728+938112406+939383864
1481+938596728+937601171+935187134+929192261+921252723+917575799+920402891
1468+923169778+922059096+919937407+919446805+916588117+908461886+906309397
1454+915680373+925256581+932512048+938084596+944468901+952434056+959928545
1441+966120476+970590615+973396077+978046629+984710423+990457404+996474903
1427+1003055269+1007912248+1012270552+1016064694+1016019441+1016953997
1416+1022875708+1027209890+1028009984+1027688232+1027127160+1025963151
1404+1024855958+1024202287+1021770408+1017718307+1014742999+1013958853
1393+1016531473+1019315305+1017474402+1011415537+1007709708+1008889964
1381+1012509972+1016170449+1017788180+1016163372+1014257879+1015692406
1369+1017535004+1017367450+1016476353+1014859419+1013990251+1015598612
1358+1017239866+1017361669+1016275607+1014394534+1012272845+1010892939
1346+1010261297+1009237831+1006373162+1001278656+998066020+1000074378
1335+1003304258+1004017534+1003157934+1002919611+1003575973+1004273999
1323+1005128914+1006488885+1008140405+1010439317+1013484000+1016926985
1312+1020684545+1024295185+1027577792+1031058554+1034771062+1038385588
1300+1042089224+1045563707+1048180184+1050400951+1052774918+1054596285
1288+1055253644+1055867844+1056945832+1057951955+1059030043+1059296775
1277+1058333113+1057762472+1057930126+1057563421+1055983666+1053711866
1265+1051871162+1050640172+1049257176+1048314846+1049151720+1051221378
1254+1052972674+1054204661+1055941803+1058208320+1059345416+1058811655
1242+1058361820+1058788430+1059607363+1061127711+1062761489+1063080849
1231+1062677463+1063304022+1065020630+1066358971+1066758270+1066666270
1219+1066321294+1066284215+1067299507+1069191246+1070786549+1071339648
1207+1071586244+1072253371+1072950002+1073383490+1073741823+1073577259
1196+1072579808+1071815498+1071720308+1071381112+1070823529+1070622284
1184+1070120718+1068942356+1068125417+1067613285+1066363656+1064762970
1173+1063596569+1063122214+1062788202+1061413978+1059470309+1057665588
1161+1054861820+1051220581+1048204705+1045833129+1044291650+1043310945
1150+1040685796+1036044414+1031261394+1027201019+1023381361+1019091734
1138+1014674821+1010370441+1004677285+997175321+989985939+984493530+979614223
1124+973941899+967853431+962019932+955874051+949569686+944104887+939282495
1111+934478841+929895371+926176584+923143165+919827066+916740121+915195951
1097+914800439+914591420+914895928+915769284+916107980+916058043+916596190
1084+917555266+918656778+920625964+924131844+927772885+929865867+931054695
1070+932443671+934304709+936725424+939796819+943037464+945605399+947578273
1057+949928218+953385358+956937687+958947939+959429769+959027978+958674330
1043+959363286+960594775+961806029+963453563+965427732+966880799+967096397
1030+966556555+967558193+970860137+973120375+972192697+970722984+971267311
1016+973392090+975015502+974826119+973692512+972519333+971620361+971349842
1003+971726216+972505777+972683399+971872639+970805216+969511032+967926194
989+966100740+964148499+962715068+961799550+961003045+960157698+958880957
976+956915359+954046903+950431679+947158540+944981930+943813835+943479922
962+943546007+943477530+943441846+943772170+944156120+943695221+941875847
949+940401450+941289956+943944310+947288915+950511120+952327204+953032208
935+953815158+954842312+956102607+957811740+959547486+960712890+961608971
922+962755835+963894526+964251862+963926721+963603674+962728624+960952111
908+959175298+957451413+955501465+954141794+953487924+952739761+951719484
895+949970182+947705359+946624779+946958890+947377826+947169106+946674018
881+946363430+946187902+946400210+947669077+950722531+955291549+959922066
868+964319642+968912382+973843719+979391149+984592806+988101876+989535407
854+988858312+987392188+986223295+983845441+980320024+979128206+981033201
841+982099428+980314143+978260532+978639498+982418688+987331386+988144836
827+984335345+980765672+980585659+983139141+985004166+985025098+986397229
814+990113524+993252798+993820150+992610789+991980642+993484643+996224120
800+998633073+1000554016+1002353056+1002365416+999723023+999417319+1004470060
787+1010239269+1013380238+1014925803+1016950708+1021114744+1025600134
775+1028512547+1030763416+1031268371+1030247995+1031945764+1036128440
764+1038606170+1039173721+1039843938+1040303840+1040293274+1041163938
752+1041975894+1042151621+1042948326+1041894957+1038301562+1036757790
741+1038736744+1041031769+1040120936+1035593483+1030877644+1027934729
729+1025706687+1025821413+1028256282+1027856684+1025332605+1024782697
718+1023554996+1019650912+1016812956+1017041213+1017749904+1017475897
706+1017735053+1018687251+1019498509+1019524723+1016964263+1013257338
694+1012765739+1014185913+1012434817+1008696394+1007768118+1008127049
683+1007575047+1008973691+1010745121+1008839827+1007145944+1009451534
671+1010579261+1006853796+1005992501+1011482419+1015245063+1015921759
660+1017787681+1022371849+1025521390+1026138879+1027228330+1027099251
648+1023145828+1019465217+1017575572+1012585725+1005748496+1003950752
637+1001969007+989178868+979300046+989122352+1005476682+1011082522+1009337705
623+1007714891+1005140676+999044433+994576586+999880909+1013781132+1022614260
609+1020132543+1012021463+1000514844+995938052+1004805767+1012242244
##END=
