##TITLE=Sample description
##JCAMP-DX=4.24
##DATA TYPE=INFRARED SPECTRUM
##DATE=24/8/2023
##SAMPLING PROCEDURE=Instrument type and / or accessory
##ORIGIN=Default
##XUNITS=1/CM
##YUNITS=ABSORBANCE
##RESOLUTION=4
##FIRSTX=4397.6552
##LASTX=599.8556
##DELTAX=-1.9287962
##MAXY=1.4262027
##MINY=0.59230369
##XFACTOR=1
##YFACTOR=1.3282547e-009
##NPOINTS=1970
##FIRSTY=0.72211707
##XYDATA=(X++(Y..Y))
4398+543658570+544644909+545746845+546383478+546214795+545386773+544560007
4384+543995038+543524619+543170964+543141347+542853612+541746695+540469031
4371+540306496+541610771+542614342+542427709+542271995+542050002+541349288
4357+541402913+542133647+541668704+540095856+539368038+539885305+540306765
4344+540174476+540750798+541993909+541658831+539503020+537555515+536659553
4330+537334778+539840745+542200241+542507227+541091529+539384866+538505955
4317+538737418+539512444+539376384+537724557+535674739+534615569+535267190
4303+537265672+539132088+539247595+538302136+537934884+537610935+537017785
4290+536803645+536514429+535731236+535124355+535331630+536172935+536889445
4276+536911792+536799786+536806203+536105848+535072211+534604889+534430866
4263+534105302+533962736+534519223+535275312+535434257+534979455+534166151
4249+533398440+532797706+531772012+530491296+530081324+530735189+531673513
4236+532063561+531556121+530824354+530604066+531009057+531724131+532049515
4222+532516793+534360143+536102078+535229810+532851062+531738222+531729112
4209+531041098+529351531+527871169+528333017+530455621+531598393+530704181
4195+528924327+527580294+527740181+528756227+528901082+528307573+527748124
4182+527228613+527304047+528141672+528797198+528969964+529101626+529216729
4168+529074836+528344415+526974803+526028851+526311694+527121812+527775228
4155+527823603+526706903+525366549+525004817+525093758+525181756+525228875
4141+524651700+523892649+524122406+524630115+524308859+524246215+524808985
4128+524641289+523903285+523406211+523191935+523550347+524054781+523524141
4114+522354758+521760980+521545179+521302095+521592028+522331738+522537622
4101+522167228+521857415+521813438+521996077+521975839+521381343+520382573
4087+519305273+518500271+518184759+518471552+519115185+519664762+520182882
4074+520747896+520675334+519648383+519012647+519245366+519197664+519091940
4060+519091312+518232999+517101267+516869535+517198644+517188951+516964983
4047+517228845+517695628+517594661+516931193+516075527+515612334+515740046
4033+515399270+514541945+514386634+514321566+513778721+513912446+514255825
4020+513763912+513585043+514308508+514781753+514710627+514669298+514771971
4006+514986156+514880387+513800844+512397980+512034811+512921619+514113259
3993+514913056+515175661+514576902+513229637+511899336+511237169+511281594
3979+511864872+512895099+513119830+512140266+511765206+512093193+512030279
3966+512129990+512640661+512483196+511767315+511418282+511036625+510820016
3952+512083590+514156384+514681055+513799991+512608261+510503338+508584553
3939+508272676+509238283+511091237+511938017+510186614+508820009+509678052
3925+510284395+509428012+509125244+509253765+507844170+505620643+504650234
3912+505221530+507145071+509677514+510548616+508592810+506271008+504403604
3898+503288834+504905524+507525203+506602809+503423861+503912319+505568678
3885+504750438+504133236+503453927+502746482+504037025+505032250+504932898
3871+503572710+500587125+500056037+500472157+499115559+499103488+501317097
3858+504103349+505075060+498679649+492211003+494257456+497789475+499718895
3844+500607005+501602454+501732231+498956883+496423409+496616728+497566001
3831+498846582+500346060+501272313+502820390+503698852+499710414+496685430
3817+496736363+495777756+496519260+499007367+500394480+498929510+497773096
3804+498654205+496311761+493817597+495260937+496387464+496934797+498058453
3790+499133240+500042575+500164453+499542090+499615191+499374439+498281299
3777+498505132+499878424+500798798+499482093+496955574+496355828+496802597
3763+497501427+498053875+497185690+496731023+498828453+501092142+499136785
3750+497119590+501581228+505857625+505450704+507588655+513342541+517859465
3736+517539241+513563234+512647212+516204272+520233411+521101596+519171278
3723+516880754+514313354+512494639+513544297+517511149+520904373+520910072
3709+522769757+528826231+536405384+543832593+551432253+559852128+568089274
3696+575575582+581860063+584775958+582047728+579129770+580641544+582442309
3682+582158164+580637640+578738285+573143614+567192594+567729247+567031091
3669+564311477+565998306+569488279+571876001+573433098+575769215+579253578
3655+583362997+588243179+592924297+595041741+595626455+597005625+598172135
3642+598127036+596525020+594371497+592738742+592185351+593142836+590978050
3628+581959595+577933373+579503798+580437949+578140199+573311399+569831523
3615+567809617+566252520+565916231+565413548+564457858+565206049+566922315
3601+567701425+567675936+567465430+565929379+563833026+564116004+564995857
3588+561622109+556335994+554183638+553856817+553376886+552659030+552608052
3574+553055136+554144058+556910970+559063191+555963626+551612693+550627969
3561+550513091+549731962+550355133+552571749+553519317+552969920+553789595
3547+555513850+555114333+553571461+553614496+555020456+556381452+556963383
3534+556858332+556173414+555699764+557304608+560461926+561274063+558553597
3520+555900129+555472745+556532768+558231623+560103918+561303007+561222907
3507+561814396+564671684+566878114+565977709+564583461+564379821+563981561
3493+563276404+563362653+563613232+563768856+564597821+565158033+564715078
3480+564438831+564834309+565664127+566681833+567439403+568084069+568440461
3466+567733286+566433857+565974882+566766826+567640755+567702636+567667545
3453+568003564+567990910+567803738+568101570+568322666+568387644+568798828
3439+569113892+569136284+569450899+570070569+570578323+571034920+571364433
3426+571420526+571368876+571075173+570629749+570266177+570111943+570906894
3412+572598030+573707460+573678023+573070738+572345073+572353330+572929922
3399+572734404+572047556+571661277+571276973+570913355+571386377+572938627
3385+574158538+573696107+572352119+572026824+572894740+573204777+572773579
3372+573422149+575556555+577564909+577793993+575780972+573304982+572484588
3358+572530854+572161806+571958301+572396455+572908561+572633751+571587908
3345+570391376+569469073+569445020+570505357+571831979+572234548+571101155
3331+569507530+569160696+569248335+567787449+566199613+566390509+566973741
3318+567167868+567876076+568432115+567544948+565965189+565163194+565036379
3304+564848220+564097157+562730417+561708403+561746681+562321253+562265608
3291+560973629+559599485+559625781+560336906+560157947+559055203+558036734
3277+557976647+558696029+558984571+557777405+555811098+554611246+553749523
3264+552709738+552020557+551766343+551925557+551935026+551229376+550438913
3250+550024677+549401327+548223598+546962852+546681624+547817575+548953570
3237+548926960+547668322+545601542+544141194+544283805+545376093+546053337
3223+546038977+545622633+544621126+543087363+541586853+540796300+540631746
3210+540623534+540615142+540693987+540922442+541048495+540680794+539864214
3196+539407886+539391821+539015100+538125824+538049672+539643926+540756676
3183+539408514+537274467+537634360+540229402+541278566+539479730+537631712
3169+538833090+541429254+540827129+537162954+536419295+540434972+542307491
3156+539061725+536694869+539440151+543345301+542306279+538067039+537929948
3142+543556480+545896636+539513924+533164644+536056037+544296235+545265208
3129+538026876+534547584+540672178+546671303+541470763+532620946+533620344
3115+543991538+547800074+537866630+529207619+533576367+543478264+542390957
3102+531268701+526535887+534444104+543695950+539139627+527152237+524608620
3088+534936151+543667993+536601665+524422796+522059216+528574307+531941458
3075+525641226+519167150+521298819+529061598+530736625+522984840+517036647
3061+519616208+526622763+527760913+520973210+515310150+515349549+518284291
3047+518576872+515476050+512988796+513120817+514841436+515242883+513480575
3034+511821119+512131291+514127843+515217618+514116266+513583652+520661737
3020+550353113+607130907+650729536+638357571+598578069+567134078+548462375
3007+536860097+528755016+523228418+520119923+518165059+515458056+513220348
2993+513687581+517556293+521944965+520926989+515546772+512755449+516323862
2980+523079705+524011746+518115608+513672593+514793376+520235385+523457457
2966+519879082+515140704+515873817+524428046+532807220+528850733+518768665
2953+514650720+519187209+527776305+528957040+521198300+515256480+516896101
2939+524643219+528746983+522582900+514942852+514253223+521239450+528806307
2926+525877848+516229761+511448886+514725571+521849293+522905278+515790395
2912+510066889+510649449+515692031+519526998+517050289+511754077+509656378
2899+512707927+518033308+518522933+513294436+509003007+508960376+512121015
2885+514758464+513496012+510384465+508993987+510042163+511753853+511623896
2872+509736030+508314588+508891449+511115649+512557823+511601908+509862935
2858+509361463+510178716+511127451+510553462+508341692+506562153+506467109
2845+507079196+507101050+506612008+506486001+506944348+507536331+507730189
2831+507181779+506350750+506163489+506561929+506822380+506686455+506129429
2818+505476237+505408611+505874812+506156578+506242378+506645305+506954535
2804+506594732+506146840+506174169+506368161+506501348+506839118+507249449
2791+507164816+506744298+506467513+506388624+506619727+506981370+507113256
2777+507170785+507137039+507017224+507210633+507516138+507579276+507637209
2764+507809392+507968248+508188716+508532364+508838452+509069376+509137046
2750+508789090+508313422+508364354+509094640+509962960+510234719+509899059
2737+509728177+509946267+509989346+509782385+509808323+510205865+510595824
2723+510670629+510558488+510498401+510639442+510892668+511039273+511046094
2710+511057357+511271273+511534776+511658270+511819728+512014573+512251869
2696+512691369+513138901+513250145+512992252+512816883+513113996+513577863
2683+513724916+513578536+513497403+513599268+513798376+514071930+514258652
2669+514372050+514629360+514981041+515340395+515616776+515777472+515965854
2656+516183944+516423169+516809673+517337665+517732111+517780845+517727803
2642+517944816+518348282+518550845+518471462+518393246+518646966+519314876
2629+520081197+520564000+520710022+520745248+520850703+521146156+521635422
2615+522080307+522510338+523153029+523801599+524168537+524463362+524995932
2602+525537790+525856712+526194168+526461754+526521572+526922390+527773388
2588+528434837+528713597+528887440+529103241+529380071+529808084+530421517
2575+530972754+531164143+531182093+531568282+532272227+532854158+533235456
2561+533477643+533914810+534680098+535195032+535309192+535435334+535717235
2548+536122720+536571689+536811318+536760476+536851750+537457285+538370749
2534+539057956+539205503+539107497+539169648+539360274+539430682+539321144
2521+539397475+540016877+540823494+541095074+540857015+540858945+541285880
2507+541594706+541625849+541679474+541750779+541642273+541533273+541678935
2494+541939970+542253462+542612996+542703911+542647594+542806674+542995550
2480+543047290+542941746+542653562+542513464+542761755+543042130+543012019
2467+543078343+543625363+544022097+543706810+543130218+542764178+542625830
2453+542741516+542921822+542730701+542231025+541844163+541634150+541435491
2440+541209549+540975618+540717052+540495462+540354871+540151814+539840386
2426+539548298+539325676+539242434+539231305+539031210+538689133+538259595
2413+537703960+537279897+536891509+536282429+535718357+535270959+534784521
2399+534479644+534474528+534810099+536414898+541020717+550375909+565603367
2386+586444927+610971752+636526202+661428357+685229160+708372014+732205306
2372+757027674+781301139+803321101+822780170+839006307+849032327+852114301
2359+849013031+837539901+817671667+793821817+771284992+758586522+762853898
2345+778247346+784641949+777089227+767426870+759780360+755903570+758828215
2332+764213772+763451266+758121353+755965856+757725920+757085832+749190224
2318+735879936+723510396+718851176+721177510+720812591+711484772+695170726
2305+677190044+663269195+654129221+645766516+636136827+625251552+612994825
2291+600474192+589362795+580015680+571996579+565162880+559621159+555360065
2278+551962310+548912690+546159555+543876884+542134859+540883850+539900921
2264+538892997+537709569+536500743+535597510+534984706+534353143+533768833
2251+533357470+532908097+532469181+532306780+532329128+532270163+532173369
2237+532215461+532356367+532635306+533116360+533575694+533928676+534330930
2224+534812657+535313231+535859173+536572317+537273704+537621077+537915857
2210+538548810+539269449+539869105+540402348+540944296+541744856+542920789
2197+544171619+545212705+545995001+546638275+547463605+548598479+549727385
2183+550563709+551271468+552233082+553463807+554634222+555566084+556337340
2170+557166619+558273626+559531635+560535206+561208233+561843295+562605622
2156+563321548+563880145+564368064+564610117+564626541+564786608+564951431
2143+564767716+564332344+563908595+563514822+562972964+562245056+561531059
2129+560788433+559639378+558109655+556427268+554509516+552493308+550745360
2116+549159140+547324854+545400818+543800373+542349718+540650414+538762951
2102+537083841+535608774+534014700+532240142+530353218+528575743+527206983
2089+526096566+524777214+523276254+521998366+520897193+519795391+518792224
2075+517989376+517369391+516708257+516069380+516052866+516558152+516595801
2062+516059956+515663401+515707602+516205798+516913512+517567646+518289765
2048+519235090+520411293+521833542+523488466+525026042+526205117+527331510
2035+528556312+529699577+530680981+531565679+532290042+532734074+533018713
2021+533278401+533347193+532741524+531373527+529945713+528808775+527610853
2008+526134575+524540142+522976852+521325295+519406510+517369167+515707692
1994+514570305+513178122+510983314+508485380+506128352+504264493+503014966
1981+501890144+500579856+499240803+498030810+496969261+496214743+495705194
1967+494849125+493643080+492705340+492084951+491689877+491553055+491365031
1954+490974938+490673067+490589780+490664362+491007471+491669504+492289129
1940+492595263+492832065+493360237+494265443+495144219+495706271+496145367
1927+496798065+497834619+498922599+499669175+500129227+500543911+501255036
1913+502051063+502334221+502111016+501901003+501953327+502158313+502225221
1900+502046800+501920165+501903830+501720833+501269755+500509672+499824664
1886+499642205+499645301+499833909+500287320+500434687+500181012+500301679
1873+501315751+502465658+502413290+501950275+502738674+504140595+505103824
1859+505315676+505079323+504980330+505418394+506448127+507689129+508452308
1846+508206441+507031584+506076253+505547184+504803256+504202971+503988650
1832+502828243+499725537+497049945+496330653+495304690+493343184+491701275
1819+490467139+488583042+486100993+483921219+481593898+479128273+477171211
1805+475882507+475204365+473422358+469960073+467477531+466216694+464382543
1792+461951337+460485425+460156361+459894384+458726752+456967092+455432566
1778+454271935+453113951+451162901+448651101+448527696+450066844+450279189
1765+449775295+449412665+449144764+449301915+449204537+449083690+449906328
1751+450416864+449209428+448378399+448946420+449126007+448019718+446840867
1738+447029250+447514387+446801647+446642029+447400855+447690071+447873158
1724+448068586+448084966+447946393+447053886+445926282+446465313+447606111
1711+448358969+448567724+448153893+448023757+448724067+448245616+446254763
1697+446022179+447633080+450175350+452692041+454587940+455552740+454905606
1684+454299488+457323439+460576116+462050554+462236379+462623062+463836690
1670+465211283+467681036+471035533+473441833+475123546+477761803+480995318
1657+483537767+484077786+482117672+483355173+486209724+488368273+491848552
1643+496305479+499672406+501372383+501165781+500819665+504603609+509854005
1630+513943769+517056751+519948144+522985513+526880163+530882870+533803073
1616+537084873+542329479+547722845+552234069+556370502+560815223+565320748
1603+569683438+574184879+579054695+584111457+589309888+594872251+600803481
1589+607127317+613718919+620113881+625799468+630672021+634536919+636758921
1576+638979665+643985002+649373790+654016900+659458236+665595799+671437100
1562+676221565+678940864+683786582+695322043+706707757+716681453+725423392
1549+733948093+742423478+749578119+752816436+753610937+762996509+776395559
1535+786042479+793685130+801909083+809354824+814741997+818736896+822579133
1522+828136559+835827943+843530455+851560731+859749323+866551565+870929871
1508+870539823+869136511+877893931+887594880+892892843+894082463+895505431
1495+900098416+904259082+905026524+903675804+905388570+909503643+913049260
1481+915312546+916971104+917817615+916134017+912067318+910452378+913710799
1468+916950372+917245915+917659836+920473282+921793757+918374865+916417174
1454+921869235+927710268+931030076+932367334+934927598+939616884+944177560
1441+947453392+948595087+948359765+952017029+958771436+963309943+966283591
1427+970025847+972489901+973656007+974295199+972780059+974523071+982717407
1414+989388257+991083433+991462262+992923194+993163182+992489079+993180952
1400+992778877+990361762+988218740+987432540+989984010+993460161+992441871
1387+986922408+984444174+987439272+991627939+994152932+994700938+994158317
1373+995249124+998022093+998731737+997616339+996799445+993757858+989982753
1360+992092299+997262100+999529514+999131658+998303276+997148837+996051837
1346+994618369+992859562+991581359+989884299+988226638+987618949+987560792
1333+988036550+988677895+989142345+989389783+989705160+990694102+992061425
1319+993655993+996180088+999114605+1001673613+1004451698+1008770770+1016056310
1306+1023860957+1027602046+1028186311+1028626080+1030289036+1033838333
1294+1037392386+1039384899+1041503061+1044262568+1046554124+1048683684
1283+1050402643+1051665499+1053530838+1054796117+1054260496+1053627318
1271+1053729632+1052784128+1050285701+1048174360+1047728936+1048218785
1260+1048678210+1049450947+1050508547+1051196202+1052071702+1053789135
1248+1055664437+1057038761+1058169775+1059256185+1060452716+1061619450
1236+1061676261+1060323477+1059500122+1060126479+1059607551+1057728570
1225+1057919645+1060201868+1061588577+1061268533+1061086791+1061994870
1213+1062990902+1063719752+1064935490+1066409524+1066656154+1066211090
1202+1066922439+1068149933+1068827178+1069712281+1070748700+1070632206
1190+1070185795+1071217907+1072984253+1073741823+1073615098+1073624701
1178+1073482449+1072534073+1071220958+1070627898+1070747713+1069989156
1167+1067885443+1065644864+1064645511+1064837215+1064015026+1061827937
1155+1060153314+1058714371+1057190257+1056523961+1056191621+1055805073
1144+1054657904+1051266476+1046790702+1043575720+1042509773+1042449732
1132+1041267560+1037889684+1032376414+1026395015+1021628545+1017399132
1121+1012830468+1008667110+1004734586+998959160+991253776+984751295+980901250
1107+977908486+975370748+973299705+969870941+965749047+962426187+959265862
1094+956620426+954763882+952194104+949072281+947740678+948259785+947680726
1080+945008365+942198329+939548226+936831081+936355053+937974571+938465227
1067+937795342+937359163+936595939+935465912+934558461+933625612+932275611
1053+930691544+929362274+928455811+927935627+927196635+925652417+924312557
1040+923885981+923409415+922583905+922585610+924026258+926215501+927938948
1026+928229734+927752091+927399737+926931338+927147991+928730622+930191643
1013+930365666+930295303+930744406+930582858+929585928+929089348+929940436
999+931670883+932820655+933143033+933109557+932219428+930861438+930024261
986+929709961+929380134+928409142+926620179+924607920+923264650+922409792
972+920881550+918572761+916268999+914380325+913268875+912923163+912204006
959+910723868+909795507+910091767+910943484+911639306+912430083+913605882
945+914353131+914705216+915524532+916986182+919625605+923237905+926072172
932+927849648+930196310+933704322+937006181+938869366+939882720+941087598
918+942478615+943507854+943784999+944122544+945825528+947847479+948028682
905+946209024+943690762+941724456+940832622+940577645+939984136+938976526
891+938366234+938288153+938637186+939138882+939325829+939550380+940140120
878+941146563+942860047+944931001+946536428+947976448+950251850+953556311
864+958025623+964453702+972762917+980132192+983521556+983899309+983651961
851+983375804+982853735+982242546+982894840+985033555+986340297+986190776
837+985722018+984479176+982800694+982559359+984696099+988717923+992462244
824+994601586+996131444+997969949+999966322+1002298445+1006241379+1009947108
810+1010376287+1010369556+1012637957+1015622554+1018425858+1021023548
799+1022816639+1023454754+1023982566+1025426086+1026961330+1028297600
787+1029938208+1032144503+1036035384+1040612932+1042767801+1043561540
775+1045369171+1046459260+1045632404+1044791458+1045353016+1046414924
764+1046161294+1045422212+1046124497+1046561125+1045084847+1043663943
752+1043732332+1044660514+1044702696+1042573405+1040335160+1040772506
741+1043133797+1045548489+1046957097+1044808689+1039597245+1036245306
729+1035597499+1035123536+1034331592+1034352863+1035240658+1034974553
718+1033656950+1033422796+1033541444+1032009700+1030590054+1031281120
706+1031210577+1029120776+1027572250+1027561929+1028368053+1029437679
694+1030879314+1030807336+1028740331+1029214294+1032678688+1034383557
683+1032689279+1029441628+1028185683+1030815413+1034461728+1035990060
671+1033537315+1027628702+1027044796+1030871775+1027139571+1017737215
660+1012255717+1012844379+1012483230+1011732840+1017667929+1025397187
648+1027294657+1024148332+1018176805+1014471346+1011340817+1002212286+986574362
635+963173705+947888584+960715754+985094584+994775250+994151137+993141552
621+994974403+1000150217+1002466365+1003458358+1011164820+1021155209+1026345204
608+1028988576+1030682226+1030820439+1031193525+1028056265
##END=
