##TITLE=Sample description
##JCAMP-DX=4.24
##DATA TYPE=INFRARED SPECTRUM
##DATE=24/8/2023
##SAMPLING PROCEDURE=Instrument type and / or accessory
##ORIGIN=Default
##XUNITS=1/CM
##YUNITS=ABSORBANCE
##RESOLUTION=4
##FIRSTX=4397.6552
##LASTX=599.8556
##DELTAX=-1.9287962
##MAXY=1.523478
##MINY=0.59059936
##XFACTOR=1
##YFACTOR=1.4188495e-009
##NPOINTS=1970
##FIRSTY=0.83520561
##XYDATA=(X++(Y..Y))
4398+588649906+589056470+590243144+591261152+591404109+590708857+590625889
4384+591674732+592252693+591560509+590188070+588851255+588575381+589768861
4371+590905334+590481252+589006101+587507047+586849814+587517759+588227420
4357+588068835+587976877+587769730+586615109+585462000+585266279+585350760
4344+585353364+586145741+587568632+588281359+587832660+587151440+586986890
4330+586569403+585719600+585360758+585328411+585066862+584115061+582674148
4317+582618065+584146694+584910672+584819974+585616468+586653967+586130870
4303+584301036+583295295+583991512+584745576+584580606+584615390+585174910
4290+585019182+584085403+583458164+583070630+582673391+583285801+584822453
4276+585399827+584788804+583945764+582859534+582045355+582013428+581854129
4263+581031254+580651113+581561872+582707713+582829917+582450701+582596221
4249+583263116+584043351+584281795+583751556+583219846+582527494+580921736
4236+579056867+578098554+578104898+578202947+577775294+577253204+577323066
4222+577868008+578746461+579923977+580682326+580414770+579589753+578846947
4209+578143672+578012856+579163696+580829064+581249072+579875541+578592162
4195+578429124+578085699+576874660+576084300+577036311+578337082+578242688
4182+577420359+576917551+577158558+577843601+578437400+579123535+579337320
4168+577857464+575792421+575407155+576621261+577581632+577320377+576978128
4155+577284627+577325460+576895034+576169957+575532510+575752764+576319845
4141+576462802+576363451+576093374+575389385+574493078+574226488+574843518
4128+575418035+575246680+574813524+574616711+574825286+575800822+577240602
4114+577736393+576702591+575111242+573652181+572833885+573324552+574713710
4101+575724366+575384008+574403892+574091176+573915200+573410460+573127865
4087+572630015+571938334+572159302+572998981+573179410+572348049+571105167
4074+570448648+570889282+571680188+571976688+572106749+572652111+573168446
4060+572871651+571972362+571148352+570980484+571566805+571955432+571505808
4047+570534599+569988228+571104495+573383827+574475308+573549006+572127543
4033+570959479+570073338+569969786+570567240+571649983+572597542+572463112
4020+571674559+571464555+571684389+570565055+568088407+566767681+567736370
4006+569364182+570126144+570281788+570219572+569771209+569100827+569169134
3993+570328586+571007748+570351313+569310200+568367683+567522670+567268472
3979+568141296+569542931+570159037+569664884+568683088+567850257+567257508
3966+566527599+566073396+566504368+567078927+567167104+567039144+566907110
3952+566991086+566702777+565755597+565698381+565862342+564835513+564666342
3939+565500266+565697667+566173378+566658458+565843942+565747825+566941473
3925+567356985+566856195+566424719+565672923+564362448+563567173+563731933
3912+563754786+563858800+564844167+565064925+562849993+559615793+557779112
3898+559100005+562571514+564989813+564332958+563341626+564504229+564307416
3885+562642804+562630579+561412818+560515587+562578824+563476937+561977589
3871+559478550+557846158+559377728+559380206+556549798+557152378+560896274
3858+563478198+561757881+554212074+552239283+558079771+563049788+564557118
3844+562916788+560376243+559011156+558201136+558373121+559556309+559919562
3831+560090833+561008774+561779138+562557399+561733390+557472907+556264892
3817+557774911+558332834+560587885+563920638+565109202+562137098+559203726
3804+558453653+555536958+554472195+557151453+559622977+562155750+564536828
3790+565838271+566464963+565897588+564389292+564011546+563346079+561426639
3777+562047955+564803838+565961190+564549599+563634682+563862581+562945522
3763+562697332+563065836+561403912+559914899+560457783+560111585+556050394
3750+553527283+556711702+558452266+556133614+556928973+560449381+562055348
3736+559634992+555366317+554357846+557218416+560358179+561006884+560064703
3723+560182161+561566614+562839995+563410731+563366495+561098800+556541985
3709+555729654+558753178+561555355+561809427+560535037+561196471+562929180
3696+563678749+563413966+561283136+556597101+554748825+557928076+561483562
3682+562689644+561694070+559782108+555942346+553057327+554335875+553278127
3669+550259140+551154187+553105133+553542364+553125340+552063811+549186857
3655+546967598+547649448+546452482+539465774+535727129+538548714+541327367
3642+541384709+539606757+537243785+534392456+531817548+530170622+525297142
3628+517103931+516222496+519170739+519375492+514593801+508108977+505783477
3615+505381071+504377767+502882074+499512310+496429638+496451441+496245932
3601+493602801+491177739+490106254+488347164+486447216+486467423+486244942
3588+482398081+478253922+477152484+476986800+476176150+474574425+472560465
3574+470743780+469740812+468886136+466037832+461528067+460006790+461057775
3561+461109950+459875008+459406144+459372410+458036940+456364934+455889769
3547+455279712+453450382+451840970+451315604+450929960+450028612+449485266
3534+449855366+449736186+447840650+445558881+444510753+443452837+442165929
3520+442345434+443778576+444634428+443571219+441378300+439844168+439208612
3507+438710972+437835123+436887397+436522884+436321576+435667116+434974889
3493+434710777+433934785+432169855+430634631+429931650+429555626+429404183
3480+429653465+429718916+429256857+429018581+428990393+428346687+427505328
3466+427164592+426636831+425373028+423999203+423058409+422596560+422440874
3453+422334297+422088502+421449627+420597219+420151754+419907891+419402983
3439+419026203+419309429+419978341+420172717+419705113+419022465+418209630
3426+417509632+417489635+417826759+417544667+416709736+416252298+416526660
3412+416851264+416626053+416300735+416397230+416979686+417798402+418328348
3399+418430262+418675343+419282417+419355723+418937480+419257002+420033247
3385+420317942+420309289+420447415+421011513+421998518+422830971+423465981
3372+424175180+424814895+425682089+427153165+428995560+430582329+431468218
3358+432117931+433363334+435130155+436489612+437386886+438329823+439014320
3345+439424623+440066565+441127253+442328631+443188222+443623646+443770846
3331+443844404+443849698+443620832+443598399+444038655+444409679+444298187
3318+444046636+444221899+444576876+444660432+444860479+445375427+445287712
3304+444302976+443839069+444698492+446133314+447404931+447752767+447043736
3291+446755890+447844767+449702495+451200247+451576564+451547620+451889112
3277+451967796+451848112+452532356+453815652+454853403+455490388+455923670
3264+456519234+457281195+457757201+458200860+458872292+459356153+459418116
3250+459371696+460051110+461441907+462125521+461691777+461486940+461829651
3237+461609607+461100918+461084073+460925320+460500230+460789631+462110986
3223+463573828+464239085+464112133+463743965+463674482+463973797+464221861
3210+464277019+464297520+464488871+465005668+465504526+465664035+465889792
3196+466432508+466860371+467121374+467721601+468700960+469591385+470057225
3183+470267060+470548606+471009530+471893780+472918089+473495967+474033474
3169+474732296+475119830+475227037+475365668+475667587+475853814+475843438
3156+476384641+477369672+477775732+477775522+477931250+478173600+478615873
3142+479200514+479362963+478804872+478082693+477999851+478584786+479261637
3129+479493654+479309738+479287893+479743356+480381139+480575095+480070691
3115+479528983+479745666+480646678+481497952+481631373+481038246+480222680
3102+479589266+479486260+480060273+480991994+481893552+482396317+482227818
3088+481887922+482033652+482186691+482041928+482478907+483615968+484233461
3075+483782325+483247800+483420206+483634200+483250111+482937857+483396723
3061+483974768+483767999+483261285+483532916+484206911+484032909+483138492
3047+482818215+483667346+484937618+485722391+485949618+485853165+485584853
3034+485179212+484777647+484693167+484782058+484697452+484571382+484824277
3020+485383293+485801914+486153950+486638400+486957669+486811309+486486411
3007+486628780+487201280+487453083+487283702+487438128+488421226+489906585
2993+491124346+491882779+492451708+492868985+493435100+494528388+495681707
2980+496235346+496361373+496551548+496809863+496777095+496454087+496268659
2966+496161368+495705610+495107274+495028549+495260355+495081985+495035817
2953+495518334+495771691+496082936+497032595+497677519+497453275+497016422
2939+496512018+495970352+495934602+496343939+496693665+496806838+496723324
2926+496509329+496311088+496013705+495408858+494837660+494309311+493850655
2912+494281543+495540935+496591541+496837295+496483914+496122887+496132087
2899+496804317+498004350+498744005+498341726+497491335+497366442+497841481
2885+497955788+497826232+498180999+498910950+499205770+498730604+498290811
2872+498611887+499282899+499655730+499604352+499208122+498725269+498607392
2858+498754550+498743585+498689393+498611424+498094040+497269064+497007179
2845+497651012+498402555+498662298+498951488+499825447+500954148+501748079
2831+502039286+502155862+502669717+503514227+503928269+503749520+503509438
2818+503591314+504165369+505021179+505576834+505681226+505767807+506085312
2804+506431636+506675247+507054715+507717619+508168251+508027689+507981479
2791+508607541+509326780+509635757+509859161+510111174+510167802+510265852
2777+510742740+511436773+511818594+511627410+511327843+511503567+512087620
2764+512583412+512883189+513240435+513688126+514077677+514213072+514083264
2750+513969798+514129642+514626190+515351184+516161708+516707827+516667540
2737+516559199+516987650+517533433+517738857+517937939+518362483+518852184
2723+519345455+519740593+519960805+520265539+520789603+521264558+521607395
2710+522023412+522560792+522983488+523062382+523073766+523313260+523631059
2696+524013468+524460278+524817733+525094574+525385823+525883001+526535823
2683+526886473+526922307+527097989+527363445+527481155+527680992+527987323
2669+528121794+528166114+528262693+528365573+528506808+528611369+528816121
2656+529540989+530290222+530361175+530197424+530191164+530327358+530786098
2642+531290670+531511176+531732144+532018856+532310231+532849125+533462500
2629+533919601+534425307+534887324+535151519+535442685+535785059+536030519
2615+536356510+536898007+537367712+537717564+538276411+538939021+539391124
2602+539739380+540162580+540536965+540714706+540860519+541213438+541848616
2588+542565082+542861415+542721188+542783824+543338554+544084805+544733216
2575+545145494+545185654+545052359+545201408+545724337+546453700+547208394
2561+547591140+547515229+547636804+548166623+548519079+548540084+548645863
2548+549107627+549610225+549686219+549634086+550000826+550656420+551221443
2534+551707363+552346154+552981374+553199360+553375168+553955440+554180441
2521+553838151+554010850+554859393+555441597+555473608+555532841+555978222
2507+556618567+557103899+557245386+557277985+557498491+557826750+558143877
2494+558345605+558403074+558577916+558761664+558642064+558546493+558852361
2480+559422131+559993330+560390988+560361876+559949472+559752407+559882425
2467+559866168+559633143+559370418+559206582+559268882+559436330+559432886
2453+559219017+558784223+558217141+557942233+558016085+558004995+557729037
2440+557575200+557838177+557942695+557423252+556808323+556600167+556545892
2426+556243048+555862445+555625471+555166185+554396284+553893939+553831093
2413+553743840+553457716+553196545+552951590+552639630+552389297+552160054
2399+551770629+551257781+550794630+550442888+550163569+549904541+549476846
2386+548692325+547561733+546143967+544318250+541845634+538976830+536073494
2372+532691968+528594061+524481702+521177221+519102642+517872321+516669683
2359+515617480+515979053+518189868+521559925+525432705+528207493+528068947
2345+525114570+521953718+520599218+520336325+520243736+520436138+520641311
2332+520479912+520791662+521960608+522961056+523554981+524493381+525857922
2318+527264304+528595153+529801194+530668934+531132001+531581247+532280657
2305+532940789+533375709+533816637+534270630+534592714+534942188+535329680
2291+535536449+535596732+535773129+536123863+536374321+536400703+536343781
2278+536283834+536360290+536718964+537127461+537308311+537327257+537289449
2264+537295204+537507560+537871065+538193317+538646596+539465942+540235171
2251+540582965+540770536+541046956+541464989+541984894+542447163+542735387
2237+543034072+543599641+544254942+544914947+545641916+546154553+546528266
2224+546986712+547397645+547862435+548315041+548453713+548611962+549176859
2210+549881352+550535014+551207874+551780543+552307548+552940877+553570930
2197+554194472+554877499+555582244+556304717+557088650+558013859+558996285
2183+559750517+560249669+560789151+561462641+562177721+562988833+563951641
2170+564939822+565667588+566101878+566645435+567334006+567789470+568177466
2156+568892125+569704162+570176555+570350599+570603158+571055722+571467790
2143+571698882+571823607+571897249+571858223+571594783+571101260+570502714
2129+569915930+569383632+568844571+568060513+566971258+565860410+564801149
2116+563818682+563039370+562134997+560853887+559429987+558045618+556848063
2102+555820520+554599272+553066023+551579739+550344755+549078893+547642559
2089+546289528+545044756+543771921+542602932+541539219+540295833+538846181
2075+537509282+536504046+535625088+534545034+533327441+532109890+530846927
2062+529674620+528803939+528049749+526886473+525287438+523879375+522898924
2048+521966321+520819808+519674177+518793623+518012673+517105486+516144821
2035+515232256+514275540+513181706+512040150+510951693+509950069+509085185
2021+508443495+507824953+506825345+505725420+505017020+504379993+503485283
2008+502576457+501747827+500814930+499881319+499133640+498491572+497912014
1994+497244279+496200394+495089504+494391859+494034361+493715890+493134903
1981+492334797+491558972+490833769+490133686+489411297+488692563+488033523
1967+487349573+486790305+486494477+486107446+485416228+484626540+483910536
1954+483350597+482908997+482404635+481748872+481042026+480273175+479513272
1940+479226223+479247858+479036342+478534879+477876134+477254903+476876400
1927+476636150+475954174+474786530+473960714+473330955+472716655+472756606
1913+472964047+472525640+471776659+471462136+471403030+471161729+470852290
1900+470526005+470041219+469429944+469030815+468853243+468447561+468168536
1886+468288430+468131064+467644346+467265928+467011100+466821723+466873940
1873+466879317+465794810+463783916+463330091+464597171+465506207+465642022
1859+465557038+465364720+465104977+464869558+464644305+464362046+463804291
1846+462456259+460886546+461168091+462465459+462927434+462664331+462435003
1832+461698372+459877276+458805707+459319521+459878452+460354878+460898812
1819+460977790+460596725+460109083+459378250+458272779+457565093+457615504
1805+457741742+457256536+455932282+454726284+454572992+454553626+453336285
1792+451711918+452193679+453747933+454273383+453644380+452663089+451829123
1778+451605719+451376307+449632844+446657168+446178684+448172732+449725348
1765+450266846+449737950+448871974+448903523+449151461+449360960+449210736
1751+447417072+445082582+445015451+446159696+446600414+445992500+445236839
1738+445428611+445093000+442651975+441913034+443758958+445624416+446785254
1724+447012314+446750177+445801904+442430335+438722314+440065178+443250059
1711+445072163+445066786+443298916+441473073+441178462+439748933+436581234
1697+436224703+438315036+440793071+442160720+442003900+441172623+438592464
1684+434615879+435817676+439151816+440735140+440089502+438685850+437798113
1670+436501627+436602617+438792385+439596020+438312473+438096672+439216174
1657+439366860+436342244+429909301+429525043+431270943+430806868+432283994
1643+436069521+438409304+438660057+437015189+435777432+439768678+445202728
1630+448771782+450943025+453049993+455578859+459581742+464106042+466973544
1616+469709977+474823330+480001334+483788794+486944394+490499040+494199373
1603+497662732+501030773+504285221+507167384+510034339+513634061+517654755
1589+521531989+525286639+528804653+532031795+535178405+537728318+538833368
1576+540644088+545573735+550009144+552744191+556492456+561557036+566069867
1562+569187996+569354856+569125990+576622227+585361640+592583053+598671606
1549+604547886+609671909+612689719+613008695+613187780+621201695+631948473
1535+639577080+646567275+654708982+661582307+666362023+670455604+674319184
1522+678295895+684054802+691380398+699730722+707658897+713615625+717092721
1508+717450639+720324820+731010433+740321338+746251852+750060485+754608982
1495+761042682+766316341+769266139+772983780+780547777+788615464+794953299
1481+800056065+804225556+807304070+809130963+810513484+815224893+823208394
1468+830080837+834718814+839339063+844817979+848943276+851093640+856695390
1454+866730365+875374586+881232760+885575329+892153036+900753231+907839248
1441+912975286+917221737+921900295+928786853+936101401+941622074+946938834
1427+953849169+960125671+964866738+968283089+968604879+969893972+977462506
1414+985648743+989509047+990001058+989534504+989951151+992927331+996304445
1400+997123959+996569607+995849738+994758089+996324946+999124939+997620928
1387+992523875+991549935+995513245+999705253+1002392073+1004032530+1004360874
1373+1003849623+1004006149+1004794744+1005845897+1006135508+1003648651
1362+1001617593+1004076808+1006839497+1007336297+1007600955+1008323932
1350+1008629590+1008455337+1007524246+1005606109+1003573623+1002016848
1339+1001148183+1001638346+1003018010+1003455157+1003191423+1004157634
1327+1005875471+1007273451+1009003052+1010990336+1012150460+1013329069
1315+1016071929+1019874933+1023901593+1027788362+1031418708+1034977638
1304+1038679063+1042194976+1044184529+1044701830+1045575452+1047888643
1292+1050967157+1053111891+1054391237+1056768367+1060886354+1065216908
1281+1067901124+1068709632+1068489504+1066866943+1063838505+1061828619
1269+1061754515+1062158559+1062034380+1060688743+1059143395+1059042909
1258+1059748831+1060546753+1061467005+1061693182+1061081277+1060841909
1246+1061082453+1061547326+1062719129+1064057288+1064158446+1063035542
1234+1062418176+1062668634+1063282556+1064459400+1065041814+1064393697
1223+1063791286+1064032923+1064835466+1065202625+1064814797+1064882684
1211+1066267725+1067996149+1069361446+1070313037+1069503689+1068028580
1200+1069129724+1071245640+1071505004+1071263452+1071354528+1071444763
1188+1072592285+1073741823+1072764690+1071494754+1071933498+1072378794
1177+1071881994+1071276811+1070644405+1069695839+1067778290+1066060956
1165+1067045650+1069165347+1069484869+1068474213+1066755871+1064663060
1153+1063528729+1063032097+1062515637+1062372554+1061708641+1059719761
1142+1057223998+1056090759+1057022858+1056183011+1050907420+1044690235
1130+1040526289+1038823407+1038379538+1035972331+1031314609+1027459347
1119+1024822265+1021723251+1018210951+1013904258+1008934493+1006212721
1107+1004318697+1000220285+997289391+997558670+998518495+998725432+997585472
1094+994424620+990269916+987719794+987072685+985411980+981707362+978160194
1080+976520325+976431602+975791131+973150604+969789117+967219586+964868419
1067+961617079+958336838+957049846+956857948+954808490+951240066+948640204
1053+947048730+944818045+941568890+938461138+936100644+934283581+933085312
1040+931893261+930599632+930168450+929511091+927679997+926555664+926640943
1026+926036431+923818012+920899301+918797164+918107626+918352791+918328762
1013+917181997+916035063+916026998+916575217+916732331+916144035+915308137
999+915043059+915281251+915135396+914550376+913954267+913376893+913635249
986+914841584+915717054+915686892+914524667+912363717+909906938+907438985
972+904812154+902227584+900781713+900475803+899746356+898370389+896950564
959+895279104+893636043+892602786+891934084+891565664+891737314+892486084
945+894410523+897613804+900740460+903111540+905268457+907343625+909539946
932+912217105+915144302+918653157+922515729+925378652+928080848+932053484
918+935178124+935017061+933884746+934974463+937171121+938609934+939095560
905+937858811+935149978+932913327+931739172+930812870+930048220+929719372
891+929399851+929100410+929159894+929138470+929034371+929096041+928941111
878+928714598+928797356+928822981+928499343+929097301+932291088+936773715
864+939465744+940969336+944787042+950156314+953510828+956435756+961182117
851+964677193+965575012+967033486+970402450+973987594+976114685+976734488
837+977348662+979411562+982473020+984792261+985968601+987875648+992046651
824+996675302+999659715+1001824110+1003802068+1005568721+1006808914+1007726898
810+1011522088+1017964357+1021409443+1021025395+1020910374+1023570813
799+1028333473+1030837049+1029717674+1029859413+1032758715+1035330095
787+1037428535+1040297844+1042697406+1044607729+1048256727+1053137853
775+1056032955+1055431552+1052818751+1051127463+1051641403+1052358163
764+1051586707+1050390959+1050330802+1052922766+1057320451+1059569536
752+1058943852+1058171304+1056742153+1051877327+1046630973+1046038392
741+1048328058+1050448848+1052708855+1054324863+1053001407+1050499427
729+1050624698+1050737871+1047661205+1044190830+1040790443+1035592736
718+1030662712+1028587712+1030642631+1036303783+1041335049+1043757128
706+1044307028+1042606162+1039477741+1034764148+1030591800+1032679738
694+1038810972+1040381862+1037531122+1037787377+1040776412+1039946983
683+1035760268+1033243249+1035805722+1042646154+1046334977+1041810845
671+1031734113+1022888332+1029172647+1045619477+1054771084+1058956119
660+1062173598+1060906099+1057787508+1061394497+1068683587+1068223082
648+1063153504+1063851611+1063107378+1051363051+1039293321+1037629927
637+1036918124+1026016081+1020139002+1033509419+1049127240+1050199482
625+1041481577+1035787154+1042390571+1051795493+1054660012+1049718897
613+1034821616+1025773268+1029996279+1035191549+1039602088+1051706349
602+1064455115+1054321082
##END=
