##TITLE=Sample description
##JCAMP-DX=4.24
##DATA TYPE=INFRARED SPECTRUM
##DATE=24/8/2023
##SAMPLING PROCEDURE=Instrument type and / or accessory
##ORIGIN=Default
##XUNITS=1/CM
##YUNITS=ABSORBANCE
##RESOLUTION=4
##FIRSTX=4397.6552
##LASTX=599.8556
##DELTAX=-1.9287962
##MAXY=1.516827
##MINY=0.57787937
##XFACTOR=1
##YFACTOR=1.4126552e-009
##NPOINTS=1970
##FIRSTY=0.81472719
##XYDATA=(X++(Y..Y))
4398+576734633+576733831+577499935+577897776+578476416+580201575+581372694
4384+580671651+578983369+577160195+575627690+574261681+573497180+574253284
4371+575363729+575573387+576124475+577526728+577862798+576615901+575513979
4357+574820996+573896540+573776753+575348202+577377448+578041951+577041209
4344+575318076+573748821+572605761+572110074+572653861+573638190+574586274
4330+575678871+575873002+574968335+574255943+574379738+575496300+576491683
4317+576147597+575264954+574693783+574155143+573435704+572826643+572700907
4303+573229800+573762702+573770803+574068267+574478808+574114890+573637852
4290+573267057+572313994+571022414+570611450+571845690+573419291+573648612
4276+572634199+571409369+570856087+570826383+570911614+571190470+571370720
4263+571396711+571199372+570531874+570144665+570483605+570820181+570426264
4249+569315988+568277779+568022298+568644945+569541680+569672269+569202530
4236+568987555+568638110+568036011+567852934+568020990+568271998+568507100
4222+568998526+570036397+570702968+570352510+569603747+569208395+569421514
4209+569469994+568737096+567656018+566539287+565685842+565588122+566297983
4195+567477751+568550306+569032280+569278099+569906104+570400104+569796486
4182+568010062+566057692+565450276+566663588+568522711+568921354+567078897
4168+564705859+563200612+562584884+563229852+565116611+566558105+566237562
4155+564950876+564380506+565313697+566240980+565716559+565201378+565376818
4141+564826110+563877984+563995745+564848051+565198424+564898092+564588013
4128+564781132+565322599+565248044+564474809+564120764+564163253+563583516
4114+562629525+562240798+562197971+562149322+562455984+563027282+563839925
4101+564912143+565323317+564992310+565000284+565452808+565548292+564781090
4087+563737100+563317150+562888972+561912154+561542878+562004979+562128606
4074+561749287+561405876+561126978+561010018+561386931+562064219+562758932
4060+563417907+563397233+562390795+561336932+560817363+560444163+559822149
4047+559290724+559929615+561574354+562322948+561933082+561894432+561664437
4033+560358468+559530508+559732108+560134928+560970356+561998313+562091602
4020+560859388+559272496+558327407+557781215+557644086+558421583+559707087
4006+560682387+561103645+560898121+559815820+558289433+557982224+559506247
3993+560787026+560548591+559732066+558970434+558584407+558500611+558029396
3979+557833112+559109925+560618590+560163366+558260278+556854607+556675749
3966+557293080+557561261+556806042+555863232+555515685+555388388+554894051
3952+554557854+554823082+554799200+554799453+554942911+554713801+555735048
3939+557651976+558398588+557475650+554942657+553203237+554436042+555970065
3925+555610072+555128182+555444505+554882152+553778163+554174907+555604418
3912+556650138+557590037+558336859+556900260+552780291+548944621+547172796
3898+548253241+551967521+554948480+553879301+552315869+554220687+554934936
3885+553065476+552641770+551941150+552000094+554633507+555554587+553444034
3871+549972957+547312709+548364758+549327736+548311721+548998417+551400147
3858+554129887+554427181+546676771+542645534+548299611+553376272+555125017
3844+554287057+552572446+550560541+547066679+545512192+547622956+550183248
3831+552339666+553813015+553260282+552298148+550727163+546505044+545949822
3817+548114214+548622179+550985808+554948902+556641826+554216172+552138488
3804+551559511+548024046+546867400+549609968+550920577+551832460+553867023
3790+555801165+556583135+555581127+553893520+553404837+552859783+551995157
3777+553094252+555221302+556150273+554511990+551944863+551153484+551661408
3763+553045392+553564201+551791827+550896443+552666116+554426084+551401328
3750+546618164+548208052+550067850+547512958+547661943+550600498+550720918
3736+545963788+542046347+543995510+548678550+551929589+551410104+549302631
3723+549751653+552127940+554002759+554804052+554842617+552729617+548463152
3709+547593252+549667561+551278841+551403058+551174876+552422871+554102546
3696+555445518+556514233+555884961+552504135+550677164+553205347+556345881
3682+557217343+556321958+554988100+550556069+545903367+546281124+544503771
3669+541300875+542991140+545904633+546929298+546309351+544880347+542338198
3655+540758817+541441294+539112137+531097892+528200264+531928932+535413427
3642+536241387+534575720+531749526+528619624+525769717+523959074+519471179
3628+511020781+508970691+511144238+511313349+506862880+500680501+498833318
3615+498601592+497095839+495680505+493370462+490367013+489309732+488823117
3601+486744841+484175098+482123700+479547670+477594751+478205711+478642032
3588+474916782+470661330+469790206+469893875+469190555+467495268+465190246
3574+463185261+462334263+461779041+458902130+454394067+453356743+454703133
3561+455155741+454505879+453682349+452703675+451314333+449928577+448873743
3547+447708110+446273958+445308406+445040436+444539770+443470675+442868154
3534+442993679+442658368+441241811+439893861+439699560+439316360+437858791
3520+436855518+436655226+436125447+435220357+434564799+433621567+432026785
3507+431096043+430573183+429393668+428713131+429017430+429102365+428043692
3493+426319208+425054884+424500590+424742442+425501079+425410279+424017983
3480+422646910+422136708+422060254+421813718+421205417+420517243+419950545
3466+419426166+418864277+418152391+417453585+417075406+416695539+416084242
3453+415868803+416086816+415545138+413957909+412768985+412537596+412707846
3439+413093578+413265600+412782824+412167940+412234648+412684134+412592152
3426+412246758+411917987+410894841+409781949+409696170+410331560+411457489
3412+412308487+411362048+409586299+409073185+409955828+411414410+412273171
3399+412138363+412308191+412845439+412414518+411840309+412739281+414283304
3385+414951140+414871141+415113416+415940405+416220273+415614841+415815217
3372+417487002+419251823+420241088+420697409+421232463+422119873+422987706
3358+423892289+425126360+426293849+427022571+427680702+428693385+429655435
3345+430289179+431201568+432441546+433303936+433639584+433950042+434530665
3331+434954286+434878844+434794837+435061415+435495922+436037347+436545059
3318+436688601+436556663+436656914+436966318+437073615+437339940+437856260
3304+437877272+437552679+437577235+437866724+438156128+438547766+438992273
3291+439313744+439819389+440957048+442515882+443597170+443692738+443485949
3277+443816407+444752255+445816160+446617876+447588871+448841423+449192978
3264+448765517+449206353+450391775+451246359+451779599+452071576+452211490
3250+452748189+453556866+453718087+452924515+452061197+452276678+453637371
3237+455074392+455879399+456069818+455654087+454902243+454397442+454593683
3223+455554848+456400867+456433398+456380529+456620694+456715924+456738582
3210+457119925+457860925+458229062+458008011+457900840+458154211+458546651
3196+458693611+458580068+459023858+460142910+461326517+462517298+463451247
3183+463661834+463271588+462702400+462762525+463782339+465071050+466066644
3169+466471573+466703679+467821001+469472912+470308636+470006489+469409749
3156+469465951+470040286+470561669+471137988+471767808+472160206+472154806
3142+471862743+471690046+471527517+471283176+471520893+472233792+472701083
3129+472622645+472372734+472229403+472382186+473073608+473641910+473308329
3115+472731842+472989179+473761359+474184812+474458393+474849863+475000367
3102+474591977+473900724+473996672+475015177+475501033+475089437+475058551
3088+475525969+475505590+475231460+475453608+475972797+476279753+476438485
3075+476604811+476570719+476588102+476911008+476881219+476412916+476420004
3061+476878350+476997209+476876494+477195729+477845253+477947994+477482981
3047+477383531+477733061+477817532+477482390+477315009+477806308+478584691
3034+478688740+478047697+477737069+478016431+478336426+478605788+478733254
3020+478621273+478619585+479000929+479416575+479480878+479400584+479397208
3007+479490245+479795640+480395840+481153169+481808811+482450825+483296380
2993+484066703+484721544+485733973+486866654+487580649+488136673+488805691
2980+489396651+489860567+490244610+490386549+490456758+490886540+491257293
2966+490977720+490377140+489851073+489535551+489468211+489373149+489255261
2953+489327749+489452599+489711202+490334651+491096283+491476065+491108013
2939+490534563+490515914+490701353+490754264+491030546+491507120+491707243
2926+491334591+490704855+490396169+490261277+489752678+489194418+489093027
2912+488991595+488816281+489243784+490078453+490488150+490434691+490495534
2899+490677767+490731184+491036579+491735723+492115885+491988799+492085886
2885+492419719+492512882+492598450+492621488+492341999+492302717+492650137
2872+492851526+492663470+492183057+491924749+492395627+493082535+493115234
2858+492894648+493194389+493473962+493207005+492623049+491903273+491720491
2845+492410817+493281687+494013109+494529133+494607697+494473480+494544956
2831+494962374+495514179+495905269+496174336+496541334+496988963+497284654
2818+497397226+497674563+498338053+499124284+499762880+500210846+500374852
2804+500313798+500333714+500715732+501525802+502121952+501847442+501401796
2791+501691537+502470680+503126069+503386993+503406064+503513108+503836478
2777+504307609+504703678+505052153+505671213+506347952+506576303+506401707
2764+506241119+506313101+506537105+507005705+507857630+508724282+509190138
2750+509138578+508805040+508839301+509383848+509931433+510454082+511218457
2737+511815197+511646128+511063185+511067362+511744354+512208987+512424005
2723+512926485+513475125+513896004+514430804+515030161+515575594+516168073
2710+516758063+517047973+517014556+516846289+516844601+517329150+518024665
2696+518492462+518733555+518940176+519274980+519816531+520400192+520611538
2683+520534873+520636812+520849171+520952840+521035497+521206296+521483295
2669+521843711+522183915+522403068+522587790+522767112+522910443+523205754
2656+523654733+524018566+524222318+524258140+524305734+524647880+525224072
2642+525926507+526620250+526860541+526685692+526838010+527377241+527639050
2629+527658670+527891704+528346084+528853670+529382226+529868715+530040569
2615+530062678+530517691+531194768+531608516+532102136+532965032+533696369
2602+533930415+534104378+534639221+535296087+535830002+536262273+536468851
2588+536466066+536556529+536867367+537345755+537777056+537848236+537812287
2575+538199031+538770667+539065303+539213992+539366648+539472975+539640947
2561+539924233+540028746+539707443+539386563+539756978+540732826+541494374
2548+541666944+541722682+541994365+542251955+542285035+542222842+542325878
2534+542709373+543316873+543837285+543987620+544056016+544339133+544650478
2521+544966421+545408101+545737336+545854043+546054335+546441037+546823941
2507+547121067+547421694+547642323+547589328+547438572+547558485+547907846
2494+548195731+548464081+548731755+548749477+548660997+548739181+548811923
2480+548747536+548721713+548904115+549244404+549385119+549180271+548956983
2467+548820446+548721249+548700743+548662685+548596694+548514291+548453490
2453+548398301+548017717+547410471+547154020+547254777+547239292+546946344
2440+546472977+545894591+545365866+544994775+544725751+544518624+544514995
2426+544798534+544957645+544582082+543916904+543439065+543285776+543148901
2413+542766334+542373134+542151324+541978795+541810781+541577030+541252353
2399+540945143+540592153+540091656+539475717+538957119+538775519+538587294
2386+537857307+536669523+535176427+533188108+530624061+527479728+523821186
2372+520166989+516902701+513609384+510090797+507240299+505612944+504687391
2359+504470897+505512060+507647972+510887323+515008600+517834879+517326618
2345+514134059+511271367+510275056+510089152+509909071+510080797+510667833
2332+511275122+512066036+513242007+514387092+514807464+514786747+515509730
2318+517273243+519474597+521322960+522352520+523081452+524125147+525160023
2305+525809927+526394727+527012606+527309309+527406945+527667151+527924151
2291+527904447+527921661+528430893+529263030+529762346+529628002+529408766
2278+529553236+529741165+529840066+530155672+530591150+530690262+530547775
2264+530655748+530970384+531232024+531434342+531640709+532081419+532666134
2251+532856384+532834485+533194437+533715820+533959107+534106404+534548717
2237+535261446+535854052+536132908+536364507+536820744+537354152+537818616
2224+538266878+538664593+539057666+539615968+540257223+540603503+540649621
2210+540815061+541275010+541910991+542421403+542791481+543307886+543827623
2197+544241076+544773935+545398988+545927586+546483567+547320683+548203452
2183+548787830+549257400+549773804+550179789+550478813+550890493+551602000
2170+552511182+553271337+553883351+554531315+555073626+555450623+555854245
2156+556395585+557029878+557584847+557927330+558205047+558511666+558623394
2143+558629680+558793348+558829593+558494198+558044248+557627209+557071312
2129+556396809+555945551+555708087+555214805+554295243+553196739+552186546
2116+551341793+550438645+549346344+548244380+547144484+545941763+544690393
2102+543429191+542240858+541284040+540450426+539430782+538211816+537038039
2089+536014260+535044320+534039063+533039840+531983868+530717392+529369526
2075+528250390+527380996+526430633+525261118+524143205+523307777+522567453
2062+521556754+520339898+519251689+518350017+517452523+516447098+515418213
2048+514464095+513582339+512715729+511840344+511097530+510514123+509781140
2035+508761707+507800205+507152200+506580142+505812013+504899118+503997826
2021+503207080+502521649+501850775+501238719+500655522+499885620+499110149
2008+498655220+498305437+497713887+496974617+496384585+495935944+495436164
1994+494687021+493650499+492873635+492522798+492042975+491427627+491001939
1981+490687978+490289462+489788838+489231548+488652866+487988448+487042220
1967+486051309+485576466+485476172+485305880+485024155+484616483+483999489
1954+483252161+482562215+482110873+481854295+481502108+480712544+479752392
1940+479461722+479551889+479283075+478803295+478418703+478066726+477696268
1927+477291972+476489285+475388546+474808640+474461431+473949331+473909247
1913+474130973+473858109+473158965+472648510+472468808+472302567+472027340
1900+471731142+471391612+470942253+470605677+470319522+469605062+468968111
1886+468976339+469046464+468968153+468867649+468684445+468509681+468435041
1873+468293904+467340123+465422605+464738819+465899600+466931565+467106836
1859+466855617+466523176+466330394+466275290+466131875+465718929+464993245
1846+463701074+462403123+462803284+463977019+464433846+464365999+464166973
1832+463190071+461091627+459904813+460353117+460871125+461446853+462146207
1819+462465738+462377047+461935198+461061459+460024768+459576042+459727643
1805+459814477+459278368+457956662+456877483+456801872+456646390+455171564
1792+453518766+454432800+456453566+457163089+456528375+455568181+454855662
1778+454775368+454629042+452876288+449619215+448878427+451244545+453463450
1765+454374320+453842431+452896794+453049871+453597246+454119852+454046689
1751+451929596+449104752+448967750+450524980+451509688+451255726+450511857
1738+450494600+449892501+447309931+446944874+449423733+451801834+453142908
1724+453296196+453027087+452170478+448745939+444794575+446054004+449463859
1711+451660613+451990565+450558861+449047833+448767964+447007700+443193085
1697+442277320+444640021+448022366+450002542+449921615+448985640+446419567
1684+442379133+443577761+447157993+449063866+448619528+447111369+446013203
1670+444756728+445189463+447532121+448141309+446803569+447088374+448597925
1657+448591976+445077692+438579580+438719915+440624860+440221365+442140867
1643+446500621+449397489+450022879+448457126+447346766+451554160+457041404
1630+460691887+463171801+465680533+468441960+472601127+477309988+480187152
1616+483024739+488764890+494437700+498324635+501587278+505423581+509367266
1603+512987370+516619837+520318759+523636506+526814804+530565918+534634285
1589+538515439+542090439+545488184+548994746+552378526+554747302+555653109
1576+557740962+562956945+567461169+570593982+575021920+580680976+585765105
1562+588992347+588479023+588167087+597031782+606766081+614755981+621725013
1549+628656747+634555249+637829073+638370667+639513684+650238135+663403639
1535+672115298+679937564+689741314+698610692+705096906+710508370+715856292
1522+722478790+731059819+739735445+749281689+759390370+767555288+772357059
1508+774194073+780680962+794021062+804806777+812556597+818647459+826227915
1495+835638718+842932175+847038684+850966968+859391713+869482673+877732906
1481+884551096+890558838+894927452+897078215+898480553+903375572+911685297
1468+918369313+921707060+924793756+929064482+931342585+930704790+934368944
1454+943561608+950833715+955141402+957839666+961547786+966552507+971537228
1441+976080438+978388330+978390524+981626838+987432051+990980089+993593291
1427+997689421+1001571546+1004212090+1004722629+1002343347+1002826882
1416+1008430749+1012770587+1014282459+1014960422+1015140587+1014486168
1404+1013950651+1013821370+1012093806+1008123075+1003700960+1001607495
1393+1004008549+1007297267+1006810609+1002632033+1001024805+1003791760
1381+1006150283+1006875418+1007905610+1008554460+1009008460+1010504636
1369+1011074330+1010091394+1008960022+1006642426+1004397234+1005967501
1358+1008781460+1009001287+1007501651+1006494243+1006275429+1006999635
1346+1007557262+1006753901+1004977139+1001967657+999384074+999604324+1001472476
1333+1003605012+1005177895+1005811217+1006236020+1007250179+1008503743
1321+1009497396+1011527909+1015138899+1018352007+1021182674+1025235935
1310+1028924561+1030701323+1032417917+1035018715+1037473692+1039566482
1298+1042338669+1046739603+1051363487+1053938884+1055186204+1057392578
1287+1060726949+1063076021+1063805375+1064886791+1066123646+1066341533
1275+1066883717+1066751990+1064597598+1063450023+1063974571+1063716769
1263+1062922691+1062172746+1060471426+1058261592+1057644725+1059758021
1252+1062779402+1064230009+1064162837+1063969170+1064053557+1063195513
1240+1061312508+1060676233+1061999416+1063586645+1064272456+1064649917
1229+1065151680+1064510848+1062882860+1062855856+1065111512+1067456534
1217+1068138547+1068022347+1068972794+1070200873+1069841724+1068917352
1205+1069370424+1071451062+1073276177+1072549692+1070376482+1069556919
1194+1070311504+1071517812+1072438555+1072253664+1071864979+1072812894
1182+1073741823+1073215081+1071994681+1070755631+1070147879+1070591499
1171+1071132165+1071224146+1070613693+1068732207+1067071646+1067579907
1159+1069469156+1069784341+1067407590+1064718777+1063183445+1062837038
1148+1063077540+1061480944+1057262876+1053078393+1051483654+1052185413
1136+1053332735+1052688105+1049147661+1045380640+1043855435+1043284559
1124+1041735051+1038804048+1034523702+1029353499+1025122435+1022799776
1113+1021376172+1020199738+1019042796+1016375502+1012105283+1008893863
1101+1006844448+1003810325+999827611+997583431+999028722+1000733502+998734888
1088+995554691+995480009+997381747+996966565+994260030+992099478+991487675
1074+992040408+993017858+993652024+992827904+990763468+988086554+984908973
1061+983474062+983840385+982630111+980116569+978357529+976925824+976129214
1047+976051916+974700716+972502359+971941103+972456115+971136138+968173068
1034+966567106+967216883+969266045+970532605+968936599+966518752+965205358
1020+963676186+961863898+961050242+961162307+961114376+960135237+959088336
1007+958911967+959028590+959205127+959536682+959971105+960173802+959055087
993+957073097+955209333+953209031+951975551+952185420+952654020+952498242
980+951374380+949902929+949555678+949641246+948636117+947028972+945123521
966+942430235+939488262+937172185+935663858+935000072+935080746+935184457
953+934966908+934719149+934594341+934852480+935172559+935108762+935290109
939+936077521+937730910+940269936+942145008+942669218+943036722+944260920
926+946625688+949651626+952377822+954033320+954426393+954486477+955337601
912+956802722+958562775+959975746+959716510+958578471+957296300+955291272
899+954180659+955147393+957114784+959108842+960053972+959707481+959037704
885+958161770+957308789+957219846+957233601+956759938+956240285+955840123
872+956755466+960271606+964137528+965184514+964849246+966642547+970956226
858+976159846+980361628+981684474+981006764+981731308+985227955+990058586
845+994273954+996263202+996843360+999088805+1003164260+1006400236+1008157505
831+1009532586+1010334259+1010824883+1013626774+1018861702+1022226115
820+1023089982+1025839722+1030350443+1032523738+1031567130+1028816631
808+1027405601+1029894080+1033066513+1034204636+1035109937+1037317745
797+1040244191+1042947603+1047426173+1053974073+1056384748+1052606840
785+1049626893+1050714891+1052046597+1052534268+1054238457+1055903322
773+1056368714+1057183805+1057701180+1057072921+1058045056+1061516133
762+1063302599+1060930237+1058263195+1058012820+1058900231+1061460691
750+1064604517+1064658187+1061933257+1057331060+1052406338+1051054125
739+1051078766+1048862266+1048962686+1053951795+1057615528+1055875221
727+1052743800+1051177414+1050248064+1050564767+1051546775+1050736241
716+1050769911+1054685960+1056614195+1050697170+1043403122+1042600942
704+1045786202+1047987091+1048921421+1048339237+1044405889+1036844842
692+1031167306+1032805674+1037322133+1040784013+1044287579+1044582511
681+1043975264+1048380502+1051982548+1052352583+1056724151+1060906102
669+1057915607+1055876909+1057814680+1053866902+1048791465+1053532394
658+1061531070+1062922437+1060921207+1053493998+1038915776+1029823195
646+1038022459+1055948131+1064099547+1053188265+1042319682+1017259621+929047182
633+858828685+889458351+988427138+1043481939+1021659290+988954724+980903306
619+994751077+1014099002+1021737347+1014347859+1008172104+1013532008+1022855302
606+1023070910+1033390811+1061397401+1067535604
##END=
