##TITLE=Sample description
##JCAMP-DX=4.24
##DATA TYPE=INFRARED SPECTRUM
##DATE=24/8/2023
##SAMPLING PROCEDURE=Instrument type and / or accessory
##ORIGIN=Default
##XUNITS=1/CM
##YUNITS=ABSORBANCE
##RESOLUTION=4
##FIRSTX=4397.6552
##LASTX=599.8556
##DELTAX=-1.9287962
##MAXY=1.2958107
##MINY=0.32617474
##XFACTOR=1
##YFACTOR=1.2068178e-009
##NPOINTS=1970
##FIRSTY=0.49061513
##XYDATA=(X++(Y..Y))
4398+406536220+405319301+404884127+405400968+406583585+407668064+407774104
4384+406792801+405650288+405321425+405921142+406659423+406250944+404647870
4371+403448979+403248876+403303550+403643057+404591220+405457396+405709482
4357+405545606+405121100+404513406+403621794+402914580+402863461+402417668
4344+401348154+400746164+400746337+401194032+401681931+401648049+401566358
4330+401552356+401179783+400745917+400345266+399635064+399160427+399750809
4317+400896458+401448316+400874899+399686997+398941629+398659366+398386462
4303+398265679+398207176+398374164+399280790+399753056+398669985+398072564
4290+399177367+399850997+399224016+398642647+398964349+399883841+400194676
4276+399364629+398435876+398302820+398646253+398961681+399038359+398405872
4263+397340753+396910073+396683941+396104770+396185301+396926693+397182706
4249+396506829+395383282+394954479+395485322+395975863+395854042+395683696
4236+395948427+395899481+395054370+394483842+394996633+395880466+396425632
4222+396483048+395636998+394443194+394090328+394261415+394270453+394229212
4209+394518662+395268722+395614946+394965616+394306606+394497252+395105637
4195+395285490+394730866+393977472+393709779+394057138+394702072+394956677
4182+394446059+393626779+392942210+392463547+392201830+392289867+392629349
4168+392592850+392082380+391834171+392214572+392777445+392969078+392936011
4155+393087021+393118556+392710768+392478809+392855975+393108827+392433913
4141+391317207+390777745+390723688+390510645+390132466+390167286+390777523
4128+390855905+389831508+388956195+389326398+390482690+391212327+391030646
4114+390354276+389642715+389110094+388784812+388555001+388378111+388342451
4101+388128642+387680330+387852133+388627481+389022600+388816027+388415672
4087+388030900+387490895+386837861+386374559+385944990+385418592+385032165
4074+384876661+384791044+384421805+383928399+383952353+384318975+384727059
4060+385417851+385809810+385183990+384138973+383609291+383799887+384098869
4047+383791194+383173030+382943663+383021353+383276156+383773833+383738989
4033+382611837+381620087+382009872+382853971+382625468+381765614+381460039
4020+381577290+381446456+381061240+381074649+381538840+381478733+380700718
4006+380226797+380248726+379856718+379265200+379463154+380151650+380480217
3993+380203287+379819972+379791820+379567392+378887762+378369810+378103919
3979+377849882+377821137+377949378+377968492+378210749+378727319+378861634
3966+378287081+377271575+376471903+376639828+377386950+377461035+376666919
3952+375668082+374865742+374779359+375433035+375636818+375143165+375328180
3939+376230583+376751697+376415672+375266591+374431703+375046509+375867493
3925+375271456+374370015+374598493+374594740+373461364+372881749+374003098
3912+375733252+376616887+376325116+374787262+372179794+369880644+369044447
3898+370665474+373825763+375535667+373905478+372083138+373138922+373726786
3885+372533006+372061505+371252227+371115762+372772128+373211278+372093189
3871+371060668+371191625+373105954+373541252+371868341+371993940+373541746
3858+374365249+372481789+365662867+363527296+368758776+373657516+375682084
3844+374755454+372468701+370033777+367786683+368409219+371196120+372887552
3831+373789857+374882090+375414563+375871963+375283927+372074273+371402891
3817+372788599+373275683+375257281+377994051+378960093+377266611+375946493
3804+375630323+373094298+372098894+373926790+375583205+377661607+379743097
3790+380687901+380729290+380192989+379930778+380511431+380168615+379211858
3777+380330812+382464482+383699156+383264055+381848244+380967868+381081835
3763+382552470+383438426+381936701+381395313+383697057+385323887+382384964
3750+379164395+381627199+384397752+384091312+386031225+389872181+390970712
3736+388091748+386314698+389365317+394672857+399405944+401882725+403347483
3723+406910793+412893519+420596348+429921018+440599319+452898449+468839098
3709+487897832+506148301+521989232+534974684+544434634+551404985+557172000
3696+561974628+565377693+565263306+559651622+554151016+553805632+553908314
3682+550891873+545413789+539802352+531632171+523011949+520639109+517139980
3669+511999575+511483203+512403041+512403338+512758501+514417360+515927655
3655+517207595+518737596+515867646+504312823+495820323+495939007+497420359
3642+497911739+498203585+498390476+497709191+496462590+495275206+490774746
3628+483363738+482883816+486479255+488483548+486274830+481711398+480127512
3615+479868462+478399507+476562201+473812022+471200677+470710334+470104221
3601+467940744+465813520+464247810+462382550+461036477+461354103+460600117
3588+455484950+451834836+453565953+455728442+455624575+454653619+454397976
3574+454854191+455533451+455741975+453244919+448817951+448702675+451488317
3561+452861554+453296087+454326460+454633863+453577017+453583487+455057579
3547+455508953+454934647+455226937+456338309+457665812+458574537+458672329
3534+458902042+459319140+459089526+459081623+459754462+459861836+459704628
3520+460436340+461660519+462551809+462995183+463160738+462835801+462176693
3507+462157678+462518125+462586530+463149329+464128484+464617938+464631965
3493+464403734+464227560+464508539+465151942+465740324+465973099+465797765
3480+465866911+466525476+466849227+466498410+466160781+466151891+466334683
3466+466501127+466217135+465057459+464221485+464969348+466237286+466892987
3453+467003620+466644901+465759191+465028714+465015379+465046692+464760181
3439+464358690+464374396+464986239+465267218+465460135+466478309+467323123
3426+466895258+465753610+464776826+464281938+464062055+464025111+464488191
3412+464855751+464521974+464488932+465169426+465479644+465211506+465372419
3399+466217974+467005843+467052615+466407088+466030293+466483050+467230023
3385+467417409+466630232+465792085+465747436+465787739+465751585+466386937
3372+467448327+468371425+469125757+469574168+469494354+469084418+468859891
3358+469199002+470041496+470622766+470142449+469081701+468867398+469937974
3345+471204480+471973383+472594017+473021536+472955107+472959403+473402974
3331+473690078+473867042+474086037+473833852+473533907+473868919+474824071
3318+475722029+475389190+474157900+473531981+473754976+473821505+473595546
3304+474490689+476328093+476995647+476295002+475744353+475980931+476469496
3291+476811917+477537899+478612772+479202933+479405135+480013668+481105927
3277+481958101+482383595+483197047+484614489+485647825+485925050+486286436
3264+486840295+486988811+487101667+487687184+488399041+489155251+490520734
3250+492148873+492933778+492888290+492753850+493100321+494097405+495172870
3237+495957429+496566753+496960094+496962317+496247200+495206702+494911153
3223+495380259+495730581+495499140+495168475+495473606+495947996+495714678
3210+495408016+495725099+495771081+495145953+494851935+494980595+494284988
3196+492510457+491025894+490652654+490923953+491095386+490610229+489717851
3183+488936107+488049114+487332169+487434209+487845331+488011775+488164439
3169+488144584+487426899+486204153+485135602+484517882+484358945+484213640
3156+483769674+483412930+482962889+482239722+481456694+480296080+479088052
3142+478272920+477289221+476002564+474901613+474332394+474262557+474001976
3129+473006670+471829263+471184478+471044408+470979460+470492969+469511888
3115+468586073+468251259+468228787+467890663+467266276+466733704+466503794
3102+466415435+466448576+466808727+466966874+466778599+466620107+465968456
3088+465066794+465073116+465575510+465585240+465186071+464585785+463950285
3075+463501182+463083541+462751295+462698102+462535955+461812146+460800393
3061+460087005+459877690+459936810+459664178+458717620+457610643+456977168
3047+456679692+456144009+455176411+454065977+453210593+452814683+452697036
3034+452173750+450807230+449282859+448257326+447543889+447067819+446768566
3020+446238019+445414788+444422643+443127441+441679081+440384571+439446805
3007+439230131+439482761+439354841+438696671+437853782+436918040+436087993
2993+435749771+435841389+435869344+435502130+434999242+434876557+434841540
2980+434377521+433943680+433809685+433372683+432532462+431912322+431668434
2966+431235334+430238941+428945221+427770581+426862152+426122686+425524524
2953+425048554+424509808+423977039+423607652+423287605+422909328+422277976
2939+421293783+420324802+419624947+419067334+418593537+418115146+417427292
2926+416668564+416072576+415486317+414834568+414191807+413345387+412308174
2912+411652622+411589378+411631557+411479930+411292495+411136694+410937875
2899+410778815+410654649+410406538+410168825+410040584+409732045+409107756
2885+408459785+408075087+407738717+407151223+406454825+405886051+405471348
2872+405004688+404444482+403964684+403570799+403324121+403250481+403283300
2858+403294166+402903887+402027561+400790319+399273110+398242070+398342356
2845+398767653+398649117+398322057+398302523+398412688+398174480+397768421
2831+397580541+397337617+396897578+396452648+396118575+395897209+395672263
2818+395569680+395694315+395774376+395562296+395277316+395247336+395226914
2804+394996362+394805050+394748671+394653991+394453171+394204888+393917068
2791+393651573+393357381+392922404+392560129+392433197+392467770+392514271
2777+392410576+392199533+392030842+391969179+391893340+391680939+391523706
2764+391604632+391812687+391877783+391658714+391353212+391124117+390933694
2750+390774955+390661086+390650418+390763151+390843138+390681065+390451229
2737+390579074+390785327+390588063+390262707+390124761+390089546+390041366
2723+389983506+389979826+390021758+390053442+390056356+390037662+389986938
2710+389950069+390001755+389994223+389804245+389784143+390156469+390462885
2696+390462489+390396677+390211169+389916508+389811555+389810098+389788589
2683+389940710+390180745+390236333+390138788+390161038+390393344+390441548
2669+390193438+390206699+390506545+390568085+390508101+390618413+390648171
2656+390527635+390577642+390856547+391148195+391378599+391609694+391851631
2642+392161231+392551412+392805646+392851406+392933394+393199704+393524492
2629+393738993+393884421+394120802+394482558+394945910+395425758+395710639
2615+395857302+396270918+397046167+397777138+398217672+398614544+399166551
2602+399698530+400106219+400435354+400714209+401160719+401844078+402461699
2588+402897565+403263618+403559143+403766507+403972907+404175702+404339924
2575+404632584+405088329+405528097+405949665+406303075+406428945+406559433
2561+406936476+407283440+407381529+407359451+407306530+407277686+407469319
2548+407960008+408400245+408509990+408535154+408666235+408774448+408891181
2534+409187224+409511790+409589580+409642180+409981760+410260072+410195742
2521+410247799+410528408+410547497+410451780+410677763+411007638+411145807
2507+411192135+411312769+411458001+411511366+411592465+411805261+412000475
2494+412140322+412299062+412415375+412515883+412625554+412600809+412427006
2480+412233966+412100292+412038406+411987880+411786542+411493191+411439405
2467+411595453+411655215+411566140+411384064+411001885+410413379+409976327
2453+409810180+409629783+409480872+409490849+409303143+408723033+408131342
2440+407826310+407678535+407487742+407269241+406983149+406437539+405809990
2426+405427391+405185134+404907686+404574131+404125152+403587987+403013928
2413+402424731+401901494+401422856+401031218+400830794+400683908+400457851
2399+400152818+399734189+399195271+398580762+397925258+397330036+396841989
2386+396263016+395425239+394259044+392644364+390595916+388261921+385719278
2372+382971395+380136537+377523488+375264072+373226737+371662410+371015402
2359+370878049+370918622+371927115+374418763+377603327+379742603+379373413
2345+376771132+374193150+372880687+372520535+373017522+373797339+374105853
2332+373928371+373918023+374488107+375215102+375751921+376368628+377305975
2318+378362870+379226626+379839777+380251418+380615619+381272159+382133816
2305+382677179+382866911+383053555+383283194+383501423+383758473+383962330
2291+384064098+384300947+384747803+385105188+385218193+385192263+385118153
2278+385019843+384933707+385049156+385393650+385652997+385781411+385988996
2264+386177073+386230884+386448718+386959928+387374112+387641584+388081969
2251+388521811+388734336+388950343+389361316+389922929+390492963+390947795
2237+391334691+391771792+392278878+392917391+393680762+394322708+394836560
2224+395465838+396287785+397213500+397998627+398540583+399121976+400083030
2210+401355883+402545686+403610114+404801794+406104206+407429387+408887872
2197+410491267+412131383+413821185+415590975+417452580+419350141+421211104
2183+423140522+425270413+427568724+429897262+432274399+434746908+437212750
2170+439653600+442036467+444324307+446670181+449097153+451270310+452989622
2156+454429685+455778178+457035152+457924022+458282889+458294249+458089676
2143+457643784+456739800+455162384+452928626+450237764+447294963+443968650
2129+440122113+436046209+431967589+427791522+423558015+419406939+415297401
2116+411185986+407085979+403112016+399375199+395710984+392010938+388462963
2102+385204388+382124284+379025313+375908536+372956574+370215013+367569615
2089+364959974+362400267+359955317+357707631+355632414+353650495+351672107
2075+349634896+347671202+345876397+344080480+342154001+340293878+338754690
2062+337335075+335757166+334131941+332572552+331130514+329818916+328418662
2048+326840332+325333569+324019575+322726151+321479006+320430705+319389392
2035+318205392+317053767+316049670+315072045+314000259+312948846+312035207
2021+311165154+310215978+309216128+308341334+307581890+306749620+305857020
2008+304990573+304108987+303144649+302135563+301199402+300357748+299580202
1994+298740129+297680172+296660072+295957500+295392480+294791552+294173265
1981+293572955+292948962+292275209+291612569+290984033+290312528+289485444
1967+288620034+288068620+287782010+287402350+286867951+286224276+285475253
1954+284787227+284272238+283837977+283343016+282653829+281670870+280775703
1940+280579353+280689122+280440790+279907304+279443508+279136550+278908492
1927+278594495+277905333+277168731+276965294+276814803+276623170+276967764
1913+277329668+277115687+276717505+276698761+276969764+277151667+277156705
1900+277056789+276737039+276188885+275845057+275698220+275265639+274967916
1886+275165896+275312263+275235313+275100577+274994216+274861086+274668564
1873+274356049+273322120+271747174+271581051+272783893+273637178+273804684
1859+273758752+273833528+274108482+274382547+274517431+274494267+274253343
1846+273559439+272974193+274002368+275762032+276848191+277434622+277961267
1832+277915853+277208762+277369551+278583234+279788126+280986721+281946590
1819+282232804+282083968+281816003+281109381+279949088+279321145+279363867
1805+279150675+278146183+276574768+275460679+275194097+274813968+273485008
1792+272207241+272922235+274349036+274849257+274611444+274285248+274220424
1778+274672515+274921440+273901415+271939869+271730554+273395168+274871951
1765+275528220+275363752+275331722+276095933+276829719+277415212+277376762
1751+275672710+273580084+273597469+274723905+275371135+275235782+274786680
1738+274730647+273962510+271572976+271203465+273248011+275257736+276474087
1724+276765290+276559037+275663055+272873166+270276712+271992123+275132286
1711+277295540+278092372+277425534+276421561+276452479+276115417+274919193
1697+275618875+278774398+282623701+285115818+286188913+286647153+285984710
1684+285497232+289292280+294243472+297839084+300093463+302139589+304251255
1670+306591128+311015799+316240908+320150713+323711900+328419822+333089097
1657+336161669+337316134+340398757+347486706+352460000+357421515+365988865
1643+374714041+381523233+386486353+390077495+395685129+404692543+412579374
1630+418881974+424604341+430116158+435734312+442178759+447974174+451865359
1616+455885008+461857782+467531055+471715321+475110928+478486433+481471560
1603+483921054+486115449+488087737+489772131+491468329+493410193+495370232
1589+497384107+499721732+502588670+505915180+509354843+512336167+514636405
1576+518811138+525614107+531320274+536616751+544163285+552830527+561073064
1562+567687363+572327103+581218673+595373975+607964555+619698071+630768231
1549+641784112+651266337+658382339+664135377+672182972+688972091+704436671
1535+715401383+726662288+738726272+748656512+756885072+764359448+771337208
1522+779772070+789614890+799001990+809910892+821474803+830371559+835401924
1508+836585603+841089866+853198202+862826473+868419092+870929483+874234164
1495+880877899+886144743+886756091+886011390+890092677+895472624+898993336
1481+901479229+903389336+903978459+902414872+899549861+899760756+904451219
1468+908206632+908094813+908006800+911721713+915373802+913964016+912230133
1454+919183741+928320681+935411297+939985990+944745203+951214593+958245052
1441+964893924+969638914+973155575+980383001+989283561+994444611+997583341
1427+1002826477+1008272112+1011831941+1013680309+1012623562+1012548786
1416+1018285525+1023700242+1024729133+1023897505+1023723949+1023566889
1404+1023434524+1023986111+1023028144+1020526149+1019335753+1019548722
1393+1021022913+1022052199+1019478193+1013664406+1010748820+1013090890
1381+1017217024+1019996096+1020040152+1017825507+1016915943+1019233318
1369+1021546347+1022213013+1022200467+1020747021+1018235641+1017188674
1358+1017255646+1016919005+1016204629+1015630718+1014576539+1013137514
1346+1011593289+1009649696+1007334395+1004457925+1002593159+1003698209
1335+1005998792+1006761768+1006016672+1005985161+1007513088+1009706099
1323+1011613538+1012367920+1012188931+1013030535+1015421107+1018652789
1312+1023050962+1027753081+1031467105+1034744423+1038437901+1041924929
1300+1044279939+1046218791+1048302947+1050451508+1052983235+1054952906
1288+1055765469+1056976609+1058839597+1060149714+1061322824+1062739525
1277+1063203197+1061994922+1060020214+1058377505+1056677009+1054750506
1265+1053114810+1051921846+1051838969+1052720580+1053682202+1054383539
1254+1054625451+1054599867+1054605892+1055547956+1057865232+1059996013
1242+1060698733+1060380365+1060055676+1060831592+1062560239+1063542309
1231+1063439182+1063465359+1063797161+1064033837+1064458195+1065202699
1219+1065509312+1065116366+1065004349+1066121747+1067980982+1069064695
1207+1069299199+1069789443+1070663546+1071177004+1071380095+1072253803
1196+1073559278+1073741823+1072384489+1071081780+1070702762+1070124998
1184+1069110035+1068902301+1069405387+1069110727+1068249564+1067732550
1173+1067182248+1066500667+1065211886+1062441506+1059002386+1056628805
1161+1055408281+1054251174+1052913200+1051466965+1049380931+1046025083
1150+1042554058+1040026281+1037092519+1033450703+1029335929+1024011004
1138+1018555886+1014188137+1009335774+1002512654+995203932+989106251+983394305
1124+976542836+969245967+963153226+957537294+950986905+944387818+938667377
1111+932713619+926412353+921357195+917348115+913447595+910317261+907900019
1097+904888320+901810340+900024301+898749448+897505513+897228831+897334723
1084+896999760+897030580+897711667+898534799+899575248+900843779+901946557
1070+903035605+904700638+907062168+909921351+912645404+914032668+914327921
1057+915617097+918298970+920152080+920396264+920368309+920541866+921069647
1043+922190600+923530450+925007012+926240476+927138385+928667695+929950549
1030+929629909+929451809+930720636+932125088+932762811+932827216+933088884
1016+933979779+934500744+934132098+933907472+934625997+935796736+936687533
1003+937291374+937500195+937487353+937834367+937203855+934503609+931987686
989+931072293+930660282+930229503+929358067+927628629+925526594+923151531
976+920399129+917376268+914109025+911132294+909021368+907610594+906461982
962+905561110+905190982+905098227+904958355+905147716+905950105+907266445
949+908594145+909530578+910560951+911801725+912977600+914336416+916164831
935+918564688+921068362+923439079+926145746+928621466+929842286+930445732
922+931865989+933663486+933933550+933197838+933544753+934128146+933189738
908+931322008+929857004+929053035+927760303+925876472+924861015+924207290
895+922304987+919876386+918688163+918172137+916948057+915785714+915287370
881+914832489+914539705+914951321+916586819+919477414+922684796+925733636
868+928898839+932982992+939048371+946186500+951920770+954886141+955265061
854+954140749+952452008+950401141+948841407+949230797+951091118+952742322
841+953814874+954955584+956817782+959731294+963351971+964739729+961276606
827+956820943+955628077+956139855+957004278+959327778+962534172+965251507
814+967534606+969206357+970190006+970989135+970334027+968337291+968577524
800+971558997+974537604+977760890+983497926+990726833+994345633+993157015
787+992998869+996698866+1002060834+1008285349+1014736464+1019156270+1021284383
773+1023739458+1028348526+1033048175+1034811001+1034928746+1036364610
762+1038857518+1039674427+1037333345+1035159891+1037264199+1042116858
750+1045031061+1043661084+1040467136+1039441504+1040271551+1040670721
739+1040920733+1041819333+1042496469+1041299158+1037890364+1033915166
727+1031069812+1029943821+1029678004+1029484000+1029984320+1030211415
716+1028736138+1026772691+1024570394+1021148067+1018508471+1018880279
704+1020412848+1020031657+1017572532+1016608737+1020019211+1023662607
692+1021717928+1015686430+1011412225+1011007030+1011141371+1010700121
681+1011387234+1011980703+1012488333+1014805214+1016751968+1013407183
669+1005740977+1005884504+1014678579+1020916527+1024917704+1027585748
658+1027841291+1027495167+1026601209+1023041183+1020358717+1023599882
646+1028653657+1031519853+1032729512+1029430659+1023871526+1019964980
635+1016117110+1014423332+1016227842+1019643057+1023240718+1020985179
623+1010920301+1000755952+994255052+991880187+994853362+997560226+994719120
609+993629677+1004198332+1019322220+1021991548+1014409897+1009217633
##END=
