##TITLE=Sample description
##JCAMP-DX=4.24
##DATA TYPE=INFRARED SPECTRUM
##DATE=24/8/2023
##SAMPLING PROCEDURE=Instrument type and / or accessory
##ORIGIN=Default
##XUNITS=1/CM
##YUNITS=ABSORBANCE
##RESOLUTION=4
##FIRSTX=4397.6552
##LASTX=599.8556
##DELTAX=-1.9287962
##MAXY=1.318524
##MINY=0.12384328
##XFACTOR=1
##YFACTOR=1.2279712e-009
##NPOINTS=1970
##FIRSTY=0.16236745
##XYDATA=(X++(Y..Y))
4398+132224153+132289693+132447203+132430068+132082152+132019100+132442203
4384+132452845+131784971+131287263+131456859+132026635+132468815+132462383
4371+132294753+132423079+132805506+133347373+134094997+134839963+135205086
4357+134986042+134381984+133480625+132339373+131521683+131402883+131805964
4344+132290033+132374091+131821084+130953909+130283171+129832813+129641763
4330+129784613+130039225+130351089+130521364+129976998+128897439+128450843
4317+128838926+129041746+128759067+128372465+128131237+128294984+128651783
4303+128629394+128539512+128928941+129302996+129016093+128273141+127829093
4290+128070575+128554644+128781674+128977626+129442121+129915924+130190886
4276+130372022+130624886+130621743+129971052+129346329+129252685+129305884
4263+129360758+129443881+129395378+129196999+128975054+128827058+128896493
4249+129003619+128873461+128873728+129145814+129143290+128794439+128568502
4236+128586425+128769806+128827337+128500596+128359068+128626094+128844083
4222+129044149+129286286+129377965+129349703+129480273+129933762+130418474
4209+130544445+130371779+130345301+130748345+131470098+132190030+132523846
4195+132193792+131346760+130750906+131121174+132133725+132758411+132377767
4182+131349175+130675610+130735470+131043087+131245932+131223653+131097900
4168+131168731+131307492+131075827+130505177+130300536+130800428+131363203
4155+131298694+130749717+130246427+130025100+130166859+130530514+130686385
4141+130520758+130475665+130749219+130895455+130700571+130401533+130184794
4128+130146230+130288013+130464112+130591491+130697246+130637458+130526522
4114+130667103+130781898+130620712+130272893+129823348+129622274+129903146
4101+130236246+130262202+130326407+130542006+130441639+130076649+129956357
4087+130160209+130483346+130892616+131288465+131300563+130903877+130658439
4074+130963010+131601214+132078973+132235099+132211776+131953548+131524037
4060+131512594+132076182+132327481+131806826+131211955+131084406+131136574
4047+130896948+130633526+130917213+131400189+131492511+131343981+131264814
4033+131056799+130564237+130013135+129460700+129163191+129365745+129500574
4020+129335845+129265682+129260063+129260027+129343320+129205626+128762743
4006+128536369+128659173+128607285+128195988+127695866+127366649+127378080
3993+127490970+127434446+127389559+127272507+126896584+126669943+126699539
3979+126425985+125894761+125789273+126074404+126120237+125991172+126141461
3966+126163146+125436381+124642755+124640595+125114070+125534224+125320118
3952+124028674+122214087+121429586+121969402+121854206+121135730+121953153
3939+123582648+124048163+122611926+120076327+119170745+120503896+121147574
3925+120291489+120120644+120398251+119264171+118173582+119495156+121869508
3912+123212598+123060404+120871520+116021260+110904896+109401118+111192394
3898+114962257+118533451+118735604+115777593+115090716+116922243+116241227
3885+113922246+112912511+112601363+114869511+117372249+116099845+112782814
3871+109959536+109518206+111404874+111580707+111590305+114427866+116461413
3858+115178002+109597459+100851946+102465290+111538890+117663108+118742278
3844+115726275+111036656+106381802+103891563+106318847+110500444+113434270
3831+115567880+116552933+116119187+115168051+111452939+105918691+106604063
3817+109848770+112990004+117827473+121089679+120007960+115757886+113433409
3804+112220950+109466063+110159445+113463296+116728948+120558551+123375726
3790+124248435+123734891+122268536+121342701+121371169+120541454+120485051
3777+122939699+124748085+123723824+120401964+118119291+118685269+120476872
3763+121910560+120750815+117846525+117636763+118514351+115393673+107962940
3750+105937463+110367787+112852152+113596391+116982395+119527071+117017610
3736+110750214+109742676+116707190+124118302+127502025+127008200+126000891
3723+127168257+130205848+134012844+136866095+137144831+134465035+135078375
3709+146331006+162660041+178968094+195046206+211810418+225812207+233516798
3696+235908515+234057815+227794084+220846412+221388085+227060561+231406924
3682+232473037+230776328+227605388+223524947+224025021+228693004+232114867
3669+238576735+248433745+256372052+261348088+264703113+267012337+268588985
3655+271676195+274767700+273336233+270472449+278294310+291021875+300515133
3642+307016269+312434910+317422305+321760246+325356947+327387702+326496597
3628+328612514+338185983+347099489+351769244+353335990+355845244+361296382
3615+366813120+371803622+376963646+381852604+388046439+395336360+400778809
3601+404087794+407294847+410506632+413172255+417064996+421453903+422610202
3588+421618354+425223597+431702891+436210816+438705484+440430177+442295632
3574+444884078+447351079+447201773+442466296+438516958+441918629+447662846
3561+451451664+454290329+457077349+458465616+458603564+459415721+460622889
3547+460511589+459913587+461170750+464012813+466041797+466071551+466244448
3534+467849879+468537678+467102959+465871376+466232022+466965448+468100244
3520+470228248+472172288+472617101+472234467+471490071+469486327+467835609
3507+468018455+467840026+466786581+466905550+467567964+467358906+467124656
3493+467333035+467183777+466466854+465743864+465592227+465505585+464748083
3480+464223521+464571886+464637220+463870933+463172698+463310889+463950343
3466+463926510+462884375+461903545+461709437+461322775+459997754+458673072
3453+458219134+457698989+455856978+454301251+454768779+455700828+455955852
3439+455772666+455256549+454888186+454953034+455349987+456017691+456424206
3426+456275434+456013565+456111032+457076426+458864802+460758362+462580666
3412+464220997+465035532+465844825+468122572+470616512+471910420+473006336
3399+474588129+476276659+477752103+479314238+481763182+485035010+487877461
3385+489484155+490722728+492791514+495705512+498615044+500436911+501252077
3372+502534432+504661368+506701662+508237585+509558044+510556493+510582122
3358+510442281+511277833+512574119+514125818+515941375+516982442+516487440
3345+514988067+513536553+512567809+512083728+511980728+511607802+510361851
3331+508758944+507382326+506066867+505054972+504728449+504606859+504193888
3318+503545211+503065839+503516379+504447699+504601714+504905035+506500855
3304+508581825+510899471+513869094+517120342+520431681+523918829+527506744
3291+531066506+534019675+536212867+538305291+540602551+543258418+545832593
3277+547431569+547986274+548496080+550476913+553193891+554377857+554173799
3264+553516433+552880765+553408579+554515999+554674043+554622349+555231175
3250+556345196+558092119+559816909+560590185+560505970+559983738+559601492
3237+559688911+559919957+559815355+559338847+559009121+558987909+558802732
3223+557881751+556402278+555580948+555887472+556699532+557695166+558173325
3210+557235452+555628031+554829125+555343155+556645848+557772586+558186625
3196+557845638+557328696+557322046+557496884+557782391+558620128+559009703
3183+557959219+556611919+556191182+556401599+556530907+556493241+556332431
3169+555700160+554885431+554388439+554004154+553496192+552475269+551118067
3156+550494921+550547586+550159856+549164318+548153491+547454819+547264934
3142+547206541+546462097+545198041+544125957+543238274+542257395+541256130
3129+540567263+540335780+539816460+538634483+537894213+537837568+537323830
3115+536361639+535980170+536057153+535639037+534623938+533249213+531582817
3102+530374678+529851814+529177072+528454567+528190806+527804483+526735748
3088+525565421+525155460+525160314+524621433+523725497+523675211+524667059
3075+525423056+525659345+526044211+525872383+524200259+521214714+517594084
3061+514335216+511836858+509500864+507151280+504954205+502861586+501457689
3047+500972104+500502196+499901379+499660868+499587962+499207755+498265805
3034+497088440+496198329+495639741+495244681+494801131+494105905+493230405
3020+492641091+492760352+493491885+494681627+496507329+499047382+502024529
3007+505117005+508406404+512443112+517377114+522957657+529793470+539094586
2993+551630591+567412602+585015121+600997987+611831094+616846884+618495953
2980+620038235+621818116+621155168+616383627+608045431+597880707+587649436
2966+578069561+569368195+561746824+555380093+550473855+547204309+545867687
2953+546281191+547288815+548073062+548712419+549530692+550694708+551652434
2939+551868724+551115737+548931282+545795509+542539893+538985276+535073702
2926+531431714+528188233+524137449+518548120+512736482+507813111+503299360
2912+498833179+494697548+490951687+487557103+484541853+481882977+479721238
2899+478131582+476948926+476050030+475439457+475056046+474624630+474061868
2885+473496532+472713499+471218057+468721448+465499226+461966695+458214426
2872+454355711+450460107+446580569+443041679+439960658+437159853+434544759
2858+432190418+430073335+427565755+424270629+420688781+417192071+413894857
2845+410866452+408041815+405379614+402614316+399731359+397123036+394819418
2831+392576449+390432136+388699144+387291121+385846500+384383531+382916606
2818+381553093+380709119+380184581+379282287+377910644+376330696+374611537
2804+373002926+371732803+370511413+368993837+367226868+365496666+364025712
2791+362684722+361207191+359565646+357823674+356013141+354226707+352659815
2777+351412894+350240456+348942617+347702151+346673437+345704669+344679838
2764+343853047+343402482+342990506+342337146+341650293+341164270+340756348
2750+340118883+339171036+338163946+337392489+336940323+336502986+335662142
2737+334615323+333950604+333712496+333530522+333253364+332913517+332559012
2723+332178198+331653830+331048741+330592182+330228891+329819731+329487505
2710+329219908+328843682+328362441+327846615+327394740+326939249+326264410
2696+325497710+324757076+323851433+322796750+321753353+320723984+319633213
2683+318450363+317320931+316305104+315234913+314135963+313051235+311820865
2669+310516498+309265353+307972198+306685329+305627856+304909768+304417751
2656+303850668+303049700+302255212+301661748+301106849+300520933+300094638
2642+300026319+300258336+300430869+300406138+300373180+300441814+300628666
2629+300849470+301001980+301185579+301583697+302250164+302962597+303485096
2615+303987209+304615305+305122515+305397877+305645281+306015004+306373174
2602+306399264+306148850+305994447+305894918+305657125+305353367+304934693
2588+304287666+303523782+302748709+301905026+300936792+299928295+299016803
2575+298271727+297525851+296461897+295186847+294013414+292864517+291664315
2561+290601041+289795000+289089533+288243399+287349186+286697840+286305959
2548+286047707+285878427+285604909+285213295+285096826+285273799+285515184
2534+285937960+286560377+287204637+287859017+288563101+289224617+289715250
2521+290012407+290243041+290657565+291326798+291933003+292215476+292348304
2507+292623108+293032657+293285958+293163178+292852285+292768434+292915532
2494+292855683+292384708+291688827+291002945+290426154+289893049+289312206
2480+288705782+288164425+287703716+287275334+286854694+286377263+285812195
2467+285249602+284756688+284289013+283731274+283048572+282466272+282188725
2453+281922804+281348052+280726751+280245025+279645178+278942866+278400150
2440+277993634+277604787+277180483+276675967+276153152+275720207+275400116
2426+275107959+274833470+274719695+274750396+274719112+274529518+274262311
2413+274051918+273992530+274115771+274300074+274329683+274226853+274213990
2399+274374193+274604875+274718506+274630795+274477242+274378222+274245662
2386+273865746+273059657+271752644+269966088+267748846+265129092+262263633
2372+259418780+256680396+253979582+251467076+249514201+248159062+247350400
2359+247340741+248236725+250025513+252831802+256231070+258600920+258450594
2345+256068925+253707715+252814692+252869298+253242419+253668932+253919782
2332+254022006+254451820+255424616+256573416+257607081+258677878+260123932
2318+261849376+263120446+263542566+263624282+263851081+264256868+264845429
2305+265457289+265797815+265922852+266110480+266432756+266721685+266834660
2291+266934917+267161935+267300902+267256635+267112595+266813400+266378174
2278+265955980+265684477+265595092+265496072+265193139+264778615+264481726
2264+264335890+264231142+264055771+263747474+263475218+263331907+263065524
2251+262617775+262286131+262203154+262175850+262044018+261854351+261641143
2237+261403035+261212446+261127187+261161188+261253898+261327095+261410364
2224+261471038+261409393+261269892+261220843+261396191+261733902+262039091
2210+262234340+262415488+262626706+262863795+263233761+263704105+264115255
2197+264484007+264851181+265141906+265282548+265275413+265221244+265214739
2183+265191246+265093319+264944425+264662728+264250364+263837781+263480946
2170+263233227+263013781+262646219+262253125+261993732+261729654+261379590
2156+261026735+260711983+260434169+260187130+259961908+259707879+259359538
2143+258921496+258471466+258030318+257542281+257077835+256737381+256402607
2129+255939131+255470389+255052079+254533123+254038339+253757492+253521834
2116+253193224+252866362+252622210+252500741+252512269+252573962+252681865
2102+252911673+253201039+253453079+253726281+254141363+254687064+255255773
2089+255775093+256259853+256757355+257301527+257944646+258657565+259346675
2075+259982319+260621094+261352166+262095445+262650684+263144570+263939495
2062+264937484+265849849+266706371+267507825+268230062+268909295+269512126
2048+270055716+270593020+271054117+271433402+272030919+272816160+273345649
2035+273621182+273934041+274355020+274726078+274920525+275017725+275087597
2021+275000979+274584635+274178386+274361670+274877981+275114925+275001416
2008+274743625+274497604+274285658+273978891+273534418+273129335+272728571
1994+271840500+270667018+270279069+270660295+271062199+271291910+271354356
1981+271252933+270959175+270600349+270500674+270655951+270539336+269707593
1967+268867964+269169440+270107289+270516765+270283753+269711646+269023143
1954+268417157+267815854+267011561+265863004+264235972+262168230+260786588
1940+261037074+261594255+261411675+260862236+260410288+260133591+259803792
1927+259019133+257412997+255966289+255767982+255740897+255869113+257020437
1913+257889166+257504833+256904647+257253765+258144264+258789979+259192272
1900+259452272+259225837+258641401+258524398+258474451+257988065+258488139
1886+259989114+261020352+261601924+262129908+262664469+263184833+263443741
1873+262763902+260093328+256927096+257705033+261383643+263907920+264614140
1859+264703865+264965661+265405134+265746388+265721536+264940639+263252497
1846+260951839+260130290+262695704+265611134+266837159+267508213+268052579
1832+266838713+264203232+263854503+265734739+267803355+270402577+272699642
1819+273796068+274324780+274543449+273835288+272936295+273660959+275418221
1805+276245619+275299179+273593563+273358148+274365942+274350919+272585769
1792+272058853+275668780+279647314+281309560+281622080+281767915+282441032
1778+283914170+284372476+282129726+279114257+280777062+286156338+290973045
1765+293322557+293310737+293796808+295930879+298173727+300402595+300916988
1751+298136934+295916827+298624509+303179130+306604244+308868328+311152166
1738+313544975+313606644+312469882+316902451+324726108+332089639+337424841
1724+340566196+342595180+342557440+339180792+338965812+348190017+359010723
1711+366860227+371146353+373047267+375963400+380324980+383104136+385315773
1697+391426509+403145747+415219975+422326540+426263111+428741082+429182448
1684+433180179+445792828+458122736+467151353+474137492+481617468+488817616
1670+496659451+510150172+523715498+532037822+538428823+546523741+553504056
1657+556012946+553333101+553406298+563779643+570878829+577830894+593604071
1643+610077958+622088916+630376146+636129197+647730145+668866749+687189734
1630+701177642+714524251+728909257+745111179+764528431+781983537+794685012
1616+807919204+824093848+837971572+848049264+856396052+864644306+871817223
1603+877019452+880600183+882807354+882878125+880799970+878169927+875223990
1589+871070788+865788179+859289858+852060052+844820539+836415504+823816107
1576+810106134+805941429+804570975+799005868+795259181+795848058+795858300
1562+793762332+785830796+776578608+785970880+799590667+811045949+821205284
1549+831533342+840214079+844882378+847324090+855563218+883138197+910304477
1535+926704973+941552994+958964949+972076531+978688239+982526325+985345380
1522+987099584+991430730+996163392+999742472+1003644824+1003843640+996865461
1508+983260625+979465933+996085535+1009119552+1013113545+1010893657+1010438263
1495+1015913184+1020073473+1018286262+1016207914+1022543435+1031030695
1483+1035519787+1036280492+1035090701+1031746938+1025043200+1016214224
1472+1013213730+1018999982+1023795744+1022540619+1020328109+1020806996
1460+1017060746+1003651328+995547139+1003039735+1009903653+1011603493
1449+1010477870+1010997627+1014242468+1016762037+1016749999+1014160145
1437+1009194787+1007537662+1009933844+1010669018+1011663778+1015269944
1425+1016268879+1013908519+1010802791+1004912569+1002451926+1008733180
1414+1014667185+1015783876+1014136653+1012293428+1010461367+1009049364
1402+1008576690+1006021396+1000391246+995022722+993331522+996413659+998472009
1389+994237845+987359365+985891833+988618956+991278026+993354141+993443356
1375+990046200+987840971+989790787+990640416+988586531+986163750+983372750
1362+981664949+982975603+984873483+985590211+985472941+985205005+985109577
1348+984922507+983934736+982120829+979412928+976201386+975135758+976775604
1335+978644942+980088496+981422351+982523315+983908331+985606035+986214036
1321+985560020+985832810+988696521+992665177+995962925+998763244+1001395133
1308+1004047893+1007277977+1011126062+1014062485+1015444199+1017541866
1296+1021320928+1025018930+1027685378+1029771784+1031248247+1031602777
1285+1031638599+1032519778+1033437459+1033206509+1032785287+1033418722
1273+1034619969+1035474840+1035082449+1032892364+1030242613+1028872548
1261+1028433075+1028068449+1028333278+1029455406+1030506860+1030684125
1250+1030257272+1030051175+1030165533+1030765283+1031973324+1032760629
1238+1032866541+1032771793+1032185149+1031534045+1031733347+1032340474
1227+1032471336+1032272520+1032280965+1032262326+1032019922+1032045454
1215+1031999244+1031452500+1031411047+1032187285+1032355619+1031252907
1204+1030080299+1029663348+1029694024+1029481520+1028027385+1025937679
1192+1025154548+1025459083+1025103776+1024411900+1024796621+1025750220
1180+1026134844+1026235029+1026966999+1027785078+1027421228+1026551893
1169+1026699257+1028033889+1029296974+1029923711+1030857022+1031985265
1157+1032031474+1031006037+1030697716+1032019242+1034107396+1035915284
1146+1036029157+1034450179+1033134089+1032201264+1030582387+1029291829
1134+1029294353+1029003410+1027468214+1026051843+1025254151+1024053584
1123+1021738462+1018456732+1015928135+1015548753+1015257906+1013349639
1111+1012305563+1014240429+1016904548+1017550021+1017444691+1018544587
1099+1020347428+1022505089+1025594022+1028997294+1031113599+1032392314
1088+1035196031+1039191092+1041642415+1042774250+1044967151+1048384499
1076+1051488770+1053298989+1054506836+1056651197+1059017868+1059893708
1065+1060730231+1062869739+1064207186+1064469685+1066028568+1068450864
1053+1069865391+1070097603+1069355051+1068277968+1067627835+1067337765
1042+1068339224+1071055959+1072623482+1071544069+1070431066+1070512030
1030+1070902381+1071609111+1072354575+1073036647+1073741823+1073361179
1018+1071746768+1070070906+1069236616+1069579496+1070621243+1071910442
1007+1073270508+1073530775+1072066350+1070748512+1070549987+1070040618
995+1068856748+1068032554+1067800634+1067244570+1066607543+1066992555
984+1067189721+1066569973+1066268448+1065251262+1062552196+1059851964
972+1058196295+1056565283+1054555958+1052658272+1050845336+1049504103
961+1049001334+1049070745+1048988423+1047704660+1045445455+1043300900
949+1042221778+1042754252+1043960449+1044949191+1045945020+1046441769
937+1046104617+1045716983+1045214700+1044725135+1045485743+1047546326
926+1049484202+1050349169+1050296358+1049493424+1048735923+1048750776
914+1048132970+1046190822+1044260130+1042664843+1040564944+1038276615
903+1036906744+1036322624+1035977414+1036048281+1036639585+1037089542
891+1036569785+1035816555+1035637834+1034403096+1031587050+1029505595
880+1029076121+1030001568+1031762568+1032728884+1032463084+1031558218
868+1031554335+1034351839+1037694534+1038677839+1038650852+1038197690
856+1036411936+1035731709+1038312437+1041443405+1042186441+1041097126
845+1039450776+1037822192+1037698999+1039756573+1041224881+1039417964
833+1035630650+1033260970+1033586668+1034922367+1035353104+1034958869
822+1035310583+1036407956+1037469215+1038582412+1039608140+1040767060
810+1041072954+1040117219+1040607270+1043039565+1044818039+1045121408
799+1045430505+1045462929+1044332259+1044695138+1047417697+1048500022
787+1046351487+1043855896+1042723673+1042683579+1043078591+1042919965
775+1042336427+1042249154+1042463891+1041529901+1038955677+1035801508
764+1033016333+1031646850+1032275529+1034499009+1035940427+1034555994
752+1032720536+1031924009+1031208833+1030595396+1029453658+1028268916
741+1029200381+1031813339+1033589289+1033614044+1032616468+1032048754
729+1032956630+1033638799+1032072927+1029735574+1029661212+1032639767
718+1035875676+1035891791+1033626470+1032162918+1030563069+1028251636
706+1027508210+1028034472+1029817411+1033588998+1036648030+1037468536
694+1037075660+1036623858+1036323012+1035431155+1036030127+1037801611
683+1037881604+1039037223+1042024515+1042823566+1041146248+1038395245
671+1032669084+1025666636+1028889343+1038997130+1042621061+1041032569
660+1040797543+1045555833+1049558272+1047460509+1045483801+1047538851
648+1048569919+1044581362+1034792283+1023469464+1018336937+1020751953
637+1020534983+1007498248+996715281+1006071003+1022094642+1025039511+1016060161
623+1007973931+1006167208+1004235545+1002499398+1005949559+1014576999
611+1021729336+1018209668+1012124997+1012823863+1013305857+1010438360
600+1010687268
##END=
