##TITLE=Sample description
##JCAMP-DX=4.24
##DATA TYPE=INFRARED SPECTRUM
##DATE=24/8/2023
##SAMPLING PROCEDURE=Instrument type and / or accessory
##ORIGIN=Default
##XUNITS=1/CM
##YUNITS=ABSORBANCE
##RESOLUTION=4
##FIRSTX=4397.6552
##LASTX=599.8556
##DELTAX=-1.9287962
##MAXY=1.2833064
##MINY=0.34656939
##XFACTOR=1
##YFACTOR=1.1951722e-009
##NPOINTS=1970
##FIRSTY=0.48778597
##XYDATA=(X++(Y..Y))
4398+408130286+407557241+407276092+407415881+406913329+406413346+406570390
4384+405886158+403654572+402478485+403706114+404887537+404674712+404068952
4371+403540118+403151447+403002033+402887628+403061703+403532014+403419679
4357+402724325+402306355+402428888+402646027+402530376+402139510+401424333
4344+400506254+400167380+400702946+401080920+400295549+399363830+399500627
4330+399934531+399839826+399457813+399350839+399532245+399600444+399989015
4317+400648213+400622105+399941039+399033683+398458619+399092581+400462642
4303+401184552+400882757+399937449+398879382+398028480+397165858+396621165
4290+396882116+397391824+397524432+397303153+397701400+399098266+399499979
4276+398176747+397420650+398106428+398569358+398099047+397764711+398000327
4263+397912130+396867030+395536816+395002895+395231480+395498989+395597933
4249+395788715+396060987+396072732+396063780+396406893+396613485+396180528
4236+395428147+394948535+394752317+394702147+394933649+395216618+395323866
4222+395287734+395225695+395419444+395389147+394548768+393700933+393603859
4209+393895655+393990410+393735095+393602462+393694101+393596802+393688715
4195+394003277+393558277+392651818+392583968+393428786+394436109+394904973
4182+394453514+393588623+392922020+392534696+392441461+392535893+392825395
4168+393394699+393751577+393530748+393198406+392906086+392335560+391984791
4155+392313642+392587360+392309078+392043938+392060122+392084085+392029974
4141+391653023+390941586+390396544+390031138+389715927+389757794+390082879
4128+390182023+390084998+390313234+390802370+390718761+389955682+389421338
4114+389352067+389474725+389788190+390158608+390379538+390320789+390132426
4101+389838435+389397649+389296784+389304515+388851011+388489320+388581507
4087+388737155+388888564+389090318+388945866+388116034+386969371+386162231
4074+385846073+385746081+385807697+386179387+386559231+386387051+385607190
4060+384876253+384781697+384828975+384527803+384249796+384076020+383950195
4047+383926581+383864716+384133447+384782346+384757659+383954060+383370518
4033+383010124+382711919+382870235+383239780+383301371+382920954+382476701
4020+382437378+382614994+382626664+382260410+381482370+380678771+380321319
4006+380521751+380925558+381188654+381354550+381352555+381185811+381248599
3993+381333529+380839879+379997057+379404762+379362620+379827519+380069270
3979+379669054+379447526+379805576+379918809+379426306+379098178+379311852
3966+379370400+378870192+378379310+378487805+378802068+378578097+377859777
3952+376992193+376117129+376010180+376996507+377338150+376531708+376676833
3939+377794321+378142746+377055954+374990090+373925640+375110878+376680249
3925+376830486+376322523+375949512+374996249+373895044+374025881+375389259
3912+377000198+378011934+377480058+374454449+370659102+369511292+370487246
3898+372614452+375225856+376063243+374092733+373166625+374991910+375111102
3885+373026612+372090829+371731058+373206996+375639986+375253235+372921708
3871+370686108+369802515+371373283+371735023+370636162+371911517+374507761
3858+376147924+374603539+367420518+365039294+370339802+375172668+377040992
3844+375914951+373432613+371166467+369242586+369667913+372246078+374376974
3831+375804686+376809116+377262769+377939796+377041815+372985593+371552819
3817+372186357+372791719+375889841+379360052+379979352+377350119+375749279
3804+375874830+374243269+374106348+376382443+378435266+380846612+383016457
3790+383623813+383080367+382276693+382133762+382718402+382410672+382173609
3777+383903740+385745657+386028377+384315277+382735957+383456121+385048857
3763+386501655+386584092+385034469+384807605+385937786+385013972+380653311
3750+379477573+383567010+385959680+385811188+388588115+392423458+393129434
3736+390359539+389740264+394607990+401049302+406146984+409429131+412161174
3723+416633197+424088040+433957796+444452337+454537985+464752899+477823736
3709+495164294+513328574+529654203+543638680+556257384+568295339+578799506
3696+587177565+592727179+593668847+589622848+586588935+588159179+589515226
3682+587620770+583434633+578116620+568650422+561469321+563344029+562764875
3669+558746156+559294040+560995845+560892412+560211171+559713307+557557127
3655+554923679+554050685+550553718+542327666+540825846+547013662+553070117
3642+556450386+557455739+557740902+558316665+558863503+559251201+557483617
3628+554404521+557004106+562035409+564382048+562533024+560172471+561829990
3615+564295571+564973420+565223125+565322319+566793020+570310983+571964013
3601+570566173+570050805+572045801+574204027+575594634+576992374+576875875
3588+574254795+574647331+579285351+583400371+585316921+586355638+587333811
3574+588088462+588933329+589119897+586204329+582811493+585365096+590669744
3561+594089710+596024113+597966695+599511006+600451228+601745584+603314531
3547+603196536+602089396+603856531+607635719+609994177+611135479+612949493
3534+614925888+615694353+615410037+615119887+615572169+616918641+619236304
3520+621831600+623856719+625804587+627567534+628070285+627668273+627973086
3507+629283501+629480991+628373502+628975696+630880227+632134636+633088971
3493+633463304+632832683+632509418+633795247+636256738+638138478+638276970
3480+637879696+638691549+640091982+640686646+640313160+639823874+640391009
3466+642375184+644042826+643067446+640859848+640265334+640896803+641763863
3453+642530932+642289904+641317366+641423343+642613319+643397244+644272284
3439+645218839+644553657+643100460+642739094+643344480+644279964+644922205
3426+644961453+644650507+644309388+644275625+644003727+643443325+643740407
3412+644690354+645251155+645575168+645960174+645903121+645096704+644184810
3399+644494260+645926610+646848379+647127807+647181319+646438887+645156001
3385+644805855+645803379+646643109+646635330+646266083+645743882+645532578
3372+645670771+645839685+646622912+648125331+649233219+649170132+648074013
3358+646961886+646836011+647280713+647189149+646751879+646951114+647165460
3345+646620219+646308025+646629445+646620568+646619620+648612772+651532729
3331+651665436+649527958+648084935+647740824+648102240+648785625+648939677
3318+648449244+647908541+647841664+647652452+646768585+646491551+646987320
3304+646697120+645619055+644619387+644342003+645117800+646022413+646112530
3291+645527691+644892581+644879316+644866399+644083920+643614233+643657322
3277+643278850+642953939+643648644+645565443+648058404+650186756+651263923
3264+651160890+650446884+649973607+650295226+650698484+651197595+652959943
3250+654399723+654101195+653937268+654399624+654180839+653457557+653351381
3237+654600255+656730902+658146346+657697305+655929173+654764880+655307678
3223+656607271+657346113+657498020+657423263+656525782+655016979+654515275
3210+654836445+654144981+652462976+651462211+651286216+650330634+648026985
3196+645703387+644802763+645239485+645491684+644315871+642373738+641583030
3183+642179689+642015214+640379040+638998905+638118430+636803775+635587168
3169+634984774+634637770+634108837+632930381+631313906+630101588+629095985
3156+627485944+625547651+623647958+621897181+620913122+620552305+619834758
3142+618399266+616718857+615274637+613893555+612503346+611632196+610822687
3129+608898657+606890395+606325703+605671792+603657994+602043066+601775457
3115+601253405+599422435+597467784+596307531+595238642+594092752+593336755
3102+592926963+592832009+592731319+592193707+591499451+590806092+589627237
3088+588147659+587477640+587633487+587580723+586896291+585454715+583469293
3075+581953808+581299897+580444457+578638123+576644572+575339942+574582698
3061+573875226+573100527+572158959+570852633+569663156+569140406+568569980
3047+567032501+565245767+564476105+564267095+562954635+560430206+558408378
3034+557501920+556571722+554932507+553141533+551690282+550204819+548612282
3020+547207212+545661953+544023536+542559717+541032512+539638812+538493171
3007+537140764+535578151+534198564+532986046+531906385+531430415+531400891
2993+530826375+529433573+527795305+526591065+526174990+525991215+525286884
2980+524174458+522960593+521730770+520629963+519607903+518579859+517480798
2966+516038174+514126163+512079350+510555686+509593322+508644872+507831623
2953+507055228+505653748+504150132+503485948+503283471+502533508+501145743
2939+499870288+498821547+497704083+496717482+495708438+494337629+492993950
2926+491898180+490737379+489260294+487276967+485117346+483495785+482484846
2912+481926987+481873076+481837867+481165953+479910047+478607362+477926720
2899+477936146+477655371+476467390+475052694+474205632+473746917+473193696
2885+472594095+472091393+471409205+470218830+468929660+468114765+467329344
2872+465993145+464575158+463831878+463620075+463263546+462526251+461582588
2858+460639475+459533232+458021288+456307814+454512401+452996467+452516657
2845+452731103+452510473+451669495+450754409+449961407+449391130+449288445
2831+449161673+448222000+446937319+446295127+446150501+445809681+445166692
2818+444507794+443859668+443063176+442300995+441737749+441303721+441009281
2804+440629063+439971462+439257007+438616213+437971179+437330185+436909671
2791+436735720+436351064+435527441+434776681+434540441+434427931+434042278
2777+433609047+433114923+432318381+431481492+430839351+430286429+429812753
2764+429397077+429083437+429071817+429243424+429174551+428684966+428066613
2750+427553688+427034230+426540456+426234296+426022394+425605920+424997142
2737+424662058+424645351+424500824+424100009+423558907+423018902+422725759
2723+422714289+422606168+422198272+421842341+421732126+421579720+421248974
2710+420880725+420574067+420433979+420489486+420516666+420290101+419896218
2696+419636489+419574898+419543180+419399451+418994448+418518627+418318967
2683+418265281+418094722+417829906+417674382+417659695+417576236+417397099
2669+417216814+416984739+416675562+416423738+416370251+416485404+416617936
2656+416594372+416289385+415956445+416025442+416210963+416013074+415690158
2642+415593283+415613506+415606973+415687939+415935898+416120446+416175529
2629+416389427+416770891+416987357+417022716+417064857+417101338+417223572
2615+417614637+418185038+418710930+419128052+419455008+419723963+420052614
2602+420521204+421098762+421626050+422019334+422399153+422834778+423427497
2588+424167336+424675523+424762199+424725444+424819102+424990559+425146955
2575+425336964+425653397+425875822+425711198+425407781+425331179+425422094
2561+425492413+425594948+425828046+426069572+426167220+426125477+426080394
2548+426090867+426124829+426157894+426087476+425886345+425671749+425583777
2534+425624023+425599636+425461094+425443190+425754984+426265217+426567336
2521+426437372+426131661+426013018+426124081+426274692+426302371+426337081
2507+426496320+426662939+426853248+427046149+427127938+427187534+427302288
2494+427324530+427237006+427249674+427235859+427044105+426976778+427109635
2480+427137912+426985855+426805621+426636009+426542750+426611672+426643041
2467+426507092+426348850+426143680+425774484+425434762+425351826+425354220
2453+425070902+424495139+424161999+424215411+424004855+423399170+422993518
2440+422894174+422691897+422203458+421574533+420985505+420526640+420213848
2426+419965290+419671499+419394714+419166254+418832616+418433796+417951916
2413+417197290+416470093+416160967+416004720+415622508+415125093+414650768
2399+414171481+413806773+413491213+413007587+412433296+411967225+411572968
2386+410857217+409585178+407904045+405802474+403292881+400647340+397879938
2372+394793087+391458999+388331478+385814081+383790034+382177449+381204961
2359+380834444+381094247+382439173+385202610+388834878+391563006+391663346
2345+389214372+386610274+385460644+385204405+385408703+385987034+386361591
2332+386138268+386083734+386802777+387682055+388115735+388379429+389155150
2318+390505737+391790418+392658426+393284833+393933757+394827324+395872474
2305+396596703+396810576+396903934+397201391+397625072+398083762+398527291
2291+398885167+399153100+399312837+399451404+399655178+399787237+399794044
2278+399702506+399515339+399469009+399639793+399802497+399969017+400114117
2264+400068261+400026618+400242436+400595125+400963822+401410494+401776049
2251+401920800+402172525+402724350+403285276+403642129+403865901+404153383
2237+404666633+405273166+405776965+406302158+407037982+407903571+408713903
2224+409505658+410355014+411212873+412069136+412849845+413579485+414469012
2210+415547127+416769620+418165638+419704863+421334353+422994066+424596278
2197+426092114+427649042+429573022+431779223+433920941+436117218+438663291
2183+441351697+443890638+446375270+448972013+451758365+454712185+457638676
2170+460386378+462964868+465552085+468294950+470965452+473366649+475612348
2156+477649935+479267606+480427311+481306490+482085178+482557807+482355829
2143+481460442+480045746+478183606+475811234+472854821+469393861+465481567
2129+461080735+456422617+451771033+447004196+442054282+437096987+432254695
2116+427662308+423373985+419187748+415000140+410904495+406907918+403105016
2102+399627973+396298698+392960945+389808912+387054152+384567775+382065788
2089+379492610+376976958+374603214+372398410+370355537+368397370+366482815
2075+364682590+363001857+361336409+359600742+357780619+356014556+354441843
2062+352954959+351461766+350047469+348702493+347352306+346030745+344714420
2048+343302143+341878470+340563018+339299906+338158903+337244540+336352569
2035+335302557+334184146+333127600+332190047+331332088+330384735+329302007
2021+328253216+327211033+326118754+325274809+324718247+324056756+323160446
2008+322280644+321554120+320776429+319834462+318907207+318112186+317312178
1994+316190176+314858939+314029008+313755764+313457534+312935732+312267159
1981+311584697+310969761+310357492+309732656+309098120+308282527+307118584
1967+305995784+305544425+305479842+305214352+304749179+304128557+303383532
1954+302733062+302239985+301810694+301271737+300326304+298880414+297871046
1940+298205282+298831091+298772019+298366167+298026345+297768037+297465568
1927+296883148+295770572+294723277+294556084+294622338+294677171+295219171
1913+295521166+295011258+294445120+294613311+295205431+295606121+295733368
1900+295714616+295415963+294837407+294464844+294222695+293706254+293586164
1886+294093778+294485092+294622737+294641837+294566856+294442328+294280820
1873+293761262+292127357+289984792+289974444+291863788+293339077+293902472
1859+294100087+294298723+294579349+294809554+294904035+294718414+294056150
1846+292884876+292417857+294165293+296397278+297640716+298417210+299069749
1832+298762892+297589249+297727192+299258786+300830227+302602723+304205957
1819+305021451+305285145+305197047+304417486+303350342+303190730+303698069
1805+303763326+302835697+301295051+300590247+301033377+301174114+300067647
1792+299387030+301411201+303885784+304760550+304598568+304388211+304611834
1778+305595368+306245215+305089525+302806472+302996157+305671347+308206050
1765+309444600+309291371+309362462+310425217+311244476+311817022+311460418
1751+308866768+306129863+306575187+308510014+309764698+310114495+310208976
1738+310529298+309577357+307105567+307921659+311583176+315081265+317411596
1724+318491406+318965706+318293094+315061267+312888679+317047561+322887277
1711+327057280+328957048+329023501+329454563+331142502+331989215+332657364
1697+336653667+344029714+351379304+356182297+359517008+362155717+363532561
1684+366854779+375433769+384231942+391159697+396729261+402515913+408047674
1670+413836147+422993318+432476871+439409713+446402849+455529075+463953115
1657+469335412+471862484+477811867+488715302+495634429+502686513+514839072
1643+526247652+534183803+539065243+541164421+544722929+553632515+561713940
1630+566535685+569140157+570875175+572079265+574038305+576290238+575632437
1616+573106561+574006786+575681360+574937233+572967620+571573222+570390178
1603+569157562+568496919+568341271+568035710+567836425+568710317+570586222
1589+573037839+576138380+579843110+583988053+588430229+592562605+596326532
1576+603076646+612597802+620189292+627688421+638204407+649524118+659685619
1562+667134129+671082979+679377104+696059113+711190976+724281163+735911421
1549+747283446+756543826+762398303+765984340+770821744+786545379+803602868
1535+814319486+823356592+833976210+843048127+849732760+855716204+860206006
1522+863582285+870547792+880327929+890621839+900293656+906684648+908523996
1508+906056969+907351924+918999736+928516753+932506547+932179492+932403713
1495+936199009+938788520+936641267+933176616+934979858+938579061+939928276
1481+939435150+938698952+936654732+930786291+922134439+917667179+919919162
1468+921949617+920125828+917926010+918667894+918743299+913884350+911083984
1454+918315803+926433135+932056111+937487281+945785945+954861801+961588426
1441+966407478+970404154+974378887+980627347+988378026+994985857+1000533826
1427+1005233686+1008678588+1012527745+1016140912+1016184499+1016579080
1416+1021761294+1025896412+1026807758+1027528097+1027783139+1025598482
1404+1023523342+1024294151+1024508697+1021588839+1018303126+1017425493
1393+1019852325+1022259507+1019987376+1013686851+1010403033+1013040022
1381+1018283078+1021646590+1020896727+1017491224+1015834603+1017106717
1369+1017867352+1017615403+1016745450+1014073253+1012743288+1015144785
1358+1017492520+1017614206+1016361043+1015349356+1014525883+1012806525
1346+1010681813+1008988088+1006400372+1002107461+999267896+999892283+1001917552
1333+1003550035+1004266684+1004762104+1005820371+1007195618+1008208502
1321+1008876177+1010259005+1013268033+1017069313+1020405995+1023832543
1310+1027732270+1031352219+1034979350+1038629621+1041210155+1043164707
1298+1045788529+1048798654+1051613183+1054308122+1056424655+1057533989
1287+1058410824+1059655609+1060395897+1060307924+1060314906+1060661211
1275+1060801549+1060317499+1059645735+1059155700+1057900941+1055645567
1263+1053883619+1053291747+1053040098+1052993019+1053244470+1053198688
1252+1053065033+1054042708+1056749416+1059669274+1061135486+1061866398
1240+1062438720+1062107875+1061694143+1062795997+1064181718+1064280762
1229+1063932561+1063658170+1063627350+1064282956+1065524150+1067294178
1217+1069201351+1070411226+1070734990+1070927892+1071467298+1071433486
1205+1070386490+1070079284+1071442163+1073097886+1073741823+1072991262
1194+1071965312+1071865869+1071932297+1071172560+1069707544+1068719496
1182+1069418989+1071142936+1071598160+1069935256+1067798475+1066606454
1171+1066029245+1064615996+1061915871+1059324963+1057775765+1056581849
1159+1055047811+1053387301+1051216608+1047938675+1043994563+1039991503
1148+1036291361+1032885459+1029900070+1027234356+1023514964+1018279188
1136+1012491439+1006089475+999116288+992866133+987883703+983562166+978716782
1123+972339355+965263832+959204983+953818796+948074234+942760161+937263160
1109+930778910+926453682+925224657+923804426+921694077+920260879+919178674
1096+918685149+918710583+917783478+916671151+916851286+917568234+918734921
1082+920798191+922647514+923631871+924667496+926639702+929404061+932368903
1069+935257840+938088528+941242781+944687582+947228319+948699818+950673420
1055+953281982+955062383+956106586+957564321+959243583+960663515+962099805
1042+963353267+964290147+965788178+967976425+969163758+968361530+967385053
1028+968089832+969679526+970879626+971620313+972070250+972689750+973992286
1015+975350377+975545374+974749330+974407613+975039181+976145424+977179154
1001+977351808+976462505+975273077+973766469+971589791+969503481+967620245
988+965882733+965370556+965426013+964627176+963227492+961094801+958330741
974+955971834+953691425+951025511+948673985+946476462+944251409+943372779
961+944221885+945132134+945511354+946568723+947988157+948284292+947517472
947+946427488+946229001+947947063+950679804+953251162+955193145+956498174
934+957928879+959519071+960491559+961269949+962527301+963475551+963413113
920+963231482+963917709+964540899+963921200+962710627+961512123+960552003
907+960382641+960236119+958780878+956116460+953688632+952988540+953484260
893+953303826+952195289+951050147+949969938+948886137+947757951+946560145
880+946902461+949765366+953090078+955523692+957739468+960246093+963635139
866+968813064+975348383+981527920+986720607+990248793+991264071+991037057
853+990409778+989482273+989559075+990584825+990193636+987613401+985463853
839+985566688+986334305+987009860+989477885+992226984+990769449+986231969
826+983618919+984370976+986547454+988513376+990308439+992210526+994263124
812+996716387+998844789+999768004+1000563450+1002627219+1004817661+1005062329
799+1004530303+1005227103+1006568039+1008804762+1012102443+1015079054
787+1018392595+1022349375+1025545818+1028322146+1031107252+1033188875
775+1034517543+1034544773+1033549444+1034474654+1037393813+1038698044
764+1037611252+1036359485+1036832164+1039656768+1043672694+1046824852
752+1048117114+1047901471+1046929781+1044905510+1041231799+1038397620
741+1038443701+1038972535+1038195143+1036292359+1033485210+1032038048
729+1033989208+1036913354+1036874954+1033896547+1030581311+1028884494
718+1029242170+1029848204+1028769790+1026138188+1023783171+1022404632
706+1020706418+1019594391+1020053206+1019617032+1016742159+1012210764
694+1008102575+1008516307+1014204514+1017375523+1013400191+1008760476
683+1007621019+1008553311+1010337103+1011637744+1012130271+1013379943
671+1015643496+1016672538+1016287333+1018117107+1021992696+1025250381
660+1024961228+1020478308+1012672870+1007060966+1010988122+1019691241
648+1023301316+1021985115+1019915661+1020153547+1022778765+1023014157
637+1019671292+1018075814+1021534480+1026622537+1028484427+1027998981
625+1024322777+1012769819+998953808+993085965+994347107+992442228+986144495
611+987299811+996347739+1002162719+1006050077+1015281432+1023147313+1018079105
##END=
