##TITLE=Sample description
##JCAMP-DX=4.24
##DATA TYPE=INFRARED SPECTRUM
##DATE=24/8/2023
##SAMPLING PROCEDURE=Instrument type and / or accessory
##ORIGIN=Default
##XUNITS=1/CM
##YUNITS=ABSORBANCE
##RESOLUTION=4
##FIRSTX=4397.6552
##LASTX=599.8556
##DELTAX=-1.9287962
##MAXY=1.2815834
##MINY=0.34135839
##XFACTOR=1
##YFACTOR=1.1935676e-009
##NPOINTS=1970
##FIRSTY=0.49083936
##XYDATA=(X++(Y..Y))
4398+411237177+411264693+411135903+410623711+410213269+410216615+409729942
4384+408378014+407115077+406694771+407046461+407706645+408166776+407803325
4371+406922365+406813400+407446616+408006149+408213917+407909119+407252706
4357+406370922+405314129+404567778+404673747+405500823+406239035+406573047
4344+406628329+406479513+406660489+407058097+406357863+404506803+403341095
4330+403346513+402944910+402095786+402178458+402709476+402900840+403321694
4317+403840128+404160906+404965835+405927421+405700576+404382906+403224814
4303+402752299+402713696+402728078+402633495+402676917+403012826+403216349
4290+403171205+403128483+402789852+402185150+401506764+400631772+400188620
4276+400671872+401578526+401982351+401273178+400068119+399277472+399064710
4263+399614780+400396138+400075060+399306761+399476251+400062451+400566677
4249+400853098+400440608+399667090+399089205+398667851+398554292+398889727
4236+399013598+398753645+398668201+398505577+398088618+397863671+398078405
4222+398593768+398589348+397971812+397783495+398006694+398166247+398519035
4209+398806005+398446600+397971812+398226947+398539360+398038330+397254574
4195+396486749+395560021+395115521+395641520+396341055+396657413+396894045
4182+396678837+395945119+395622793+395933559+396361080+396582281+396474415
4168+395916105+395457473+395773781+396243450+396302228+396338083+396255460
4155+395682419+395001412+394578760+394299930+394060501+393789086+393531605
4141+393387309+393530282+394046918+394521955+394663705+394660134+394668574
4128+394589896+394374662+394084646+393887315+393950437+393838650+393363413
4114+393064782+393078316+393224035+393269579+393024607+392661656+392202374
4101+391414075+390587822+390432264+390917389+391385460+391627710+391700495
4087+391384137+390668072+390203073+390273760+390075905+389283960+388614663
4074+388409242+388679607+389357094+389805689+389503238+388707223+387894453
4060+387255244+386980909+386970147+386716086+386177677+385646709+385445758
4047+385670704+386125142+386879110+387449604+386938886+385571602+384342248
4033+383858022+383983766+384221672+384217927+384020720+384050109+384412411
4020+384645273+384388840+383887236+383666908+383775224+383789307+383592176
4006+383244755+382741128+382471187+382501575+382390987+382376704+382631439
3993+382607044+382341897+382435906+382909345+383182408+382859906+382101345
3979+381241833+380603947+380472560+380840230+381342858+381309774+380643548
3966+380117898+379688605+379089596+379221083+380104615+380560426+380255803
3952+379443857+378001641+376774909+376873162+376979506+376578352+377247399
3939+378493208+379017685+378575681+377523483+377278686+378081468+378092429
3925+376886696+376543545+377395292+377141456+375754671+375854647+377376515
3912+378276926+378358250+377871627+375486752+371795743+370240068+370821823
3898+372405839+374527314+375399785+374155499+373777991+375234639+374926171
3885+373134063+372759002+372726367+373926058+376025960+375884061+373510797
3871+370636078+369670173+371484429+371987207+371159630+372487388+374544318
3858+375214115+372628039+365190365+364114546+370549885+375608177+377169421
3844+375811725+372891937+369437311+367087767+368330955+371171940+373206923
3831+374640150+375682186+376347962+376769640+374357899+368851011+368333277
3817+370966045+373228196+377251894+380655159+380243993+376668441+375117110
3804+375370172+373261355+372666516+374930690+377198385+379862415+382339325
3790+383415469+383161833+381789356+380420100+380469888+380811241+381283606
3777+382851517+384272085+384521551+383067325+381455744+381792327+383207202
3763+384714562+384400551+381827209+381061281+382295030+381203506+376399024
3750+374746169+378357976+381135714+382101245+385257715+389010523+389107178
3736+384690542+383120459+388681580+395489283+399752185+401644119+403859604
3723+408776521+416370677+426059591+436766047+447329429+458093663+472262136
3709+490724148+509222214+525443548+539240980+551598343+563677051+575186663
3696+584765863+590050525+589315834+583459878+578829856+578992455+579652938
3682+577878783+573803823+568204800+558820708+550578255+548817233+544713360
3669+540213527+541555916+543565830+543054462+540597801+536838452+531368269
3655+527748047+527300950+523227439+512827005+509161839+514181430+519346490
3642+521409838+520783612+519528914+518669528+518203254+517755309+514324952
3628+509753657+512010565+516805284+519083965+517139271+513421020+512344652
3615+512263652+511749788+511567363+510830924+510479959+511853410+512701361
3601+511786892+510485951+509148855+507461443+507131351+508338508+507535901
3588+503829785+503719172+507464089+509800150+510147869+510278458+510713320
3574+511261542+511309033+510016582+506426573+502594463+502946728+505806590
3561+508369020+510367198+512089867+513054923+513288584+513776630+514424379
3547+514266375+513934735+515077421+517245839+519079970+520425256+521849044
3534+523276379+523766323+523113680+522646108+523440925+525482899+528313398
3520+530565062+531328468+531436484+531721332+532155295+532656924+533621281
3507+534785791+534549933+533283050+533475112+534863195+536169230+538011650
3493+539673744+539379908+538134848+537626677+538128306+539343303+540488636
3480+541432419+542625293+543893574+544622472+544467115+544071204+544438150
3466+545528851+546030131+545372894+544879454+545557466+546439425+545940092
3453+544510960+543940366+544182966+544422969+545137585+546482122+547719142
3439+548310111+548469813+548821078+549167800+549156414+549051094+548961605
3426+549237813+549707132+549678767+549820992+550213905+550003616+550089809
3412+550946100+551316591+551272995+551963241+553256941+554185343+554149787
3399+553415395+552904527+552793115+552801804+553480115+554515135+554911295
3385+555324084+556572639+557985492+558503601+557781694+557184183+558559681
3372+560869724+561878026+561755128+561057541+560021673+559720246+560508221
3358+562040525+563377172+563221914+562687275+563923646+565827141+566009416
3345+565055596+564636314+564838963+565274575+565549185+565042761+564251041
3331+564719711+566784057+568651697+568605155+567429908+566842036+567228707
3318+567938230+568337286+568374440+568070865+567907468+568491445+569283016
3304+569747841+569707940+569364216+569446014+569756680+569931863+570415865
3291+571402144+572450248+572489999+571364591+570925384+571630662+571953612
3277+572409099+574185851+576240859+577682725+578554646+578799394+579068711
3264+579692789+580373247+581493611+582891232+583791468+583996515+583706923
3250+583701180+584697947+586198091+587215233+587885304+589061000+590905018
3237+592452404+592419645+590995057+589295759+587993720+588081262+589850023
3223+591301128+590750859+589375860+589342102+590639996+591053185+590037292
3210+589469294+589565725+588977503+587626624+586126779+584949885+584723915
3196+584844316+584038662+582793852+582125479+581951245+581560478+581117077
3183+581391687+581385195+580247352+579175279+578692176+578321585+578287876
3169+578475644+577905350+576568254+575020518+573439374+572292593+571979031
3156+572702885+573574357+572847157+570889079+569153876+567855931+567051377
3142+566661858+565814007+564340280+563218668+562554040+561650708+560584327
3129+559582416+558925728+558871146+558673341+557952083+557109176+555963543
3115+554528818+553311524+552283595+551193344+550273282+549901492+549868133
3102+549802864+549621838+548907372+547695271+546812463+546173753+545358712
3088+544795059+544743872+544845347+544666867+544195850+543691224+543296613
3075+542945047+542374903+541676017+540996258+540050628+538818153+537582981
3061+536508660+535750298+535318881+534782595+533879912+532919550+531874642
3047+530524562+529401402+528867912+528354497+527591241+526624387+525051433
3034+523095502+521429314+519772064+517803898+516289622+515800477+515577503
3020+514646704+513084287+511512232+510072962+508768326+507874631+507271128
3007+506605102+505626463+504173610+502788623+502176980+502142922+502072659
2993+501532677+500421801+499126503+497954653+496895663+496171459+496000221
2980+495887360+495174792+494221571+493709505+493287527+492359175+491192768
2966+490171731+489166724+488067883+486816931+485343054+484040366+483349371
2953+482676902+481309144+480110577+479970950+480217195+479898589+478751259
2939+477258206+476082260+475211937+474323886+473470391+472752729+471805201
2926+470535372+469464747+468426032+466934177+465493010+464360910+463202843
2912+462405829+462166125+461906746+461391733+460734746+460094338+459677903
2899+459464418+459226861+458680487+457677928+456637764+456084698+455731136
2885+455142264+454524479+453971013+453346486+452571245+451560295+450720784
2872+450126319+449257894+448410592+447841246+447170975+446442027+445785789
2858+445056391+444225569+443298865+442213358+441181135+440384121+439597943
2845+438860206+438386792+438038523+437715123+437415244+436904176+436099421
2831+435295316+434672487+434155077+433581936+433003551+432517103+431791001
2818+430887119+430493356+430631436+430700500+430541846+430334153+429903985
2804+429039105+428084736+427455714+427140804+426929815+426574604+426012400
2791+425467873+425045945+424637700+424309456+424143611+423854369+423412216
2777+423182750+423079528+422824193+422438620+421987479+421529945+421184971
2764+420988464+420820772+420549757+420137417+419739210+419543402+419490368
2750+419395485+419079176+418586636+418188228+417938363+417648821+417311937
2737+417138502+417031385+416712379+416199364+415669619+415286418+415033506
2723+414859022+414919971+415177353+415233633+414887911+414369977+413931844
2710+413717109+413778658+413913467+413960084+414085129+414263234+414110648
2696+413674962+413378628+413302647+413258152+413027762+412625235+412326405
2683+412185155+412000633+411780580+411763276+411940857+412032768+411899633
2669+411621926+411381049+411342622+411351835+411108387+410849432+410952230
2656+411211609+411314731+411299975+411271984+411221147+411162994+411145166
2642+411228089+411338127+411289338+411264044+411485220+411746922+411917835
2629+412157064+412426206+412482662+412447605+412633775+413107688+413610866
2615+413818983+413997937+414568781+415310388+415764527+415973368+416361713
2602+416917925+417335209+417589569+417817113+418152073+418621293+419174458
2588+419740608+420198841+420461366+420612479+420772781+420897527+421048191
2575+421377633+421806203+422091200+422111775+422018091+422004458+422107880
2561+422242813+422331203+422342689+422281715+422181189+421992472+421799162
2548+421825279+422013097+422085507+421939238+421760609+421681157+421639509
2534+421624228+421602555+421526699+421558160+421761808+421889400+421896841
2521+422011749+422188929+422156320+422012198+422116369+422331553+422328756
2507+422301690+422548884+422890661+422967816+422855405+422840573+422915780
2494+422934257+422878926+422939701+423233537+423506050+423532967+423435038
2480+423362328+423264798+423001175+422585139+422216945+422020138+421966155
2467+421974195+421946529+421809449+421548172+421260028+421107467+421008689
2453+420682743+420175320+419762980+419449968+418977552+418290302+417717336
2440+417327144+416922619+416646635+416527533+416202610+415612714+415190237
2426+415088064+414936176+414533075+413998786+413482475+413035078+412565659
2413+412011644+411475557+411071957+410736422+410413097+410094241+409705622
2399+409279399+408815723+408270073+407750116+407323394+406920143+406380560
2386+405486341+404093989+402189670+399808940+397093349+394270066+391402514
2372+388445397+385375944+382221296+379097935+376478875+375093639+374626192
2359+374290033+374541796+376099819+379177312+383086027+385686210+385393397
2345+382851941+380375230+379144353+378777332+378952240+379421735+379661813
2332+379452472+379451872+379972878+380538179+381090695+381848757+382785798
2318+383903216+384963255+385663064+386201373+386827648+387532301+388235756
2305+388799958+389213497+389572802+389911658+390341426+390855391+391212499
2291+391324535+391304935+391365859+391639021+391877776+391847563+391761020
2278+391776851+391751382+391687611+391624289+391584838+391770658+392088640
2264+392234360+392354336+392743954+393155096+393233973+393276471+393565363
2251+393831709+394070413+394558659+395112574+395499620+395874032+396347472
2237+396868902+397333702+397713532+398172864+398814545+399551883+400221230
2224+400735094+401279770+402176061+403392981+404532971+405423344+406245627
2210+407198598+408416042+409862203+411346567+412854477+414527857+416369478
2197+418231974+420046480+421948427+424054122+426288308+428584917+430952938
2183+433348125+435840442+438657307+441773053+444865527+447732630+450492816
2170+453398621+456475964+459514655+462411472+465142943+467517855+469357779
2156+470856225+472421988+474041035+475273261+475919062+476041211+475669970
2143+474898225+473811370+472208702+469795537+466608879+462866359+458701961
2129+454242927+449572105+444660031+439535521+434296102+429036758+423960238
2116+419203323+414739969+410444683+406100132+401696105+397455176+393590158
2102+390084369+386628969+383138212+379915624+377038658+374255900+371509248
2089+368918952+366470206+364127529+361981160+360017763+358007975+355885675
2075+353863676+352091868+350445780+348674446+346746980+344915121+343394028
2062+342046844+340653693+339183262+337625639+336079352+334689796+333398668
2048+332078251+330729769+329453548+328310862+327333121+326489490+325651576
2035+324779630+324034002+323580613+323321684+323080057+322802351+322432833
2021+321932652+321202605+320169907+319137784+318269633+317270844+316083288
2008+314926444+313896568+312915956+311821435+310654304+309591843+308532878
1994+307167742+305658983+304709508+304339416+303975341+303522851+303093157
1981+302514223+301699956+300873953+300122282+299347291+298432373+297215353
1967+296035238+295587792+295656657+295496230+294976248+294340010+293684172
1954+293060194+292603059+292279135+291748991+290777118+289459523+288576016
1940+288852898+289429660+289459922+289185487+288949179+288775968+288590248
1927+288155086+287131203+286121827+285998379+286062675+286097482+286763633
1913+287293353+286902811+286344302+286629324+287445464+288031365+288353616
1900+288539960+288363554+287919428+287742472+287637627+287245662+287377424
1886+288137783+288683133+289134375+289778079+290372269+290733796+290936271
1873+290681986+289154226+287221516+287877655+290503057+292359286+293028258
1859+293293180+293635807+294190346+294825110+295229685+295008983+294157511
1846+293018395+292709727+294484457+296660665+297728918+298300436+298904389
1832+298533148+297092131+296967984+298369576+299726297+301218327+302621715
1819+303228115+303180474+302700693+301525447+300121958+299727596+300179362
1805+300227128+299062194+297179797+296239411+296396292+296150271+294648279
1792+293540400+295278574+297723425+298630503+298336991+297775161+297568791
1778+298206203+298657569+297343045+294652274+294277438+296558291+298814700
1765+299836910+299374408+298924764+299477380+299990795+300404558+299784101
1751+296741390+293528964+293463694+294764685+295397952+295230309+294929232
1738+295056524+293912389+290902538+291046984+294156413+297074128+298789856
1724+299158699+298846910+297453759+293471010+290506003+294115963+299373259
1711+302706411+303763753+303239277+303196255+304293672+304181686+303231636
1697+305630194+311817640+318340820+322340223+324573934+326104915+326328114
1684+327829582+334683079+342262677+348141380+352472223+356604461+360534699
1670+364672855+372082938+380384169+386325994+391736551+398833022+405477752
1657+409379051+410497417+414789033+424580771+431050018+437590776+449105582
1643+460363405+468672277+474235445+477187293+482045134+492359674+501600693
1630+508176658+513509711+518269073+522974602+528992208+534667687+538028629
1616+541361456+547124577+552700180+556500379+559215969+562143148+565163412
1603+567897230+570716992+573479774+575611188+577812215+581090160+585139101
1589+589605726+594449084+599602809+605146401+610867574+615708535+619584940
1576+626488699+636708457+645124596+653105473+663631901+674690172+684381832
1562+691047537+693438978+699977140+716555782+732107993+745935887+757816640
1549+768187360+776057724+780937288+784214784+789537349+804986937+820608962
1535+829428602+836457257+846598012+856215215+862762216+867428743+870616999
1522+874105884+881186524+889797372+899083285+907991865+913402571+914420512
1508+911905923+914844588+927257732+936468338+940505144+939784535+938409636
1495+941257513+943613998+940472684+935692997+937618315+942005588+943857497
1481+943306678+941411822+937870803+931894696+924575750+921514936+924084258
1468+925715540+923999962+922258616+922777874+922343411+916876774+912901791
1454+919374284+927813145+933696467+938182417+944703950+952198878+958817191
1441+965184814+970147874+972717895+977194557+984941374+992306663+998655709
1427+1004399603+1008402951+1010840935+1011848389+1010183448+1010457409
1416+1016575141+1022632049+1025351385+1025981705+1025598379+1024913327
1404+1025475931+1026568079+1025449064+1022259210+1018665356+1016584330
1393+1018789702+1021374105+1018653470+1012092986+1009306233+1011520294
1381+1014889626+1017626840+1018869703+1017427986+1015471307+1016039104
1369+1017349583+1018242179+1018891276+1017301742+1014170216+1013241066
1358+1014334014+1015718701+1016246348+1015044635+1012544128+1010504551
1346+1009172299+1007422663+1004537333+1000316254+997592823+998829294+1001018286
1333+1001898797+1002774813+1004471514+1006131561+1007636299+1009279067
1321+1010057005+1010222999+1012052536+1014917692+1017674781+1021597428
1310+1025706246+1028432773+1031262073+1035526398+1039804405+1042900775
1298+1046156048+1049812425+1052813013+1055602063+1057832703+1058674962
1287+1058987775+1059358216+1059686111+1060135455+1060634138+1060829097
1275+1060619057+1060191585+1059498343+1058770743+1057851980+1055275866
1263+1051859992+1050622123+1051778593+1053445231+1054542873+1055491100
1252+1056932817+1057933778+1058419777+1059672827+1061010572+1061150000
1240+1060708846+1060720032+1061133720+1061515847+1062125593+1063245807
1229+1063969312+1063546535+1063270477+1064646075+1067126007+1069032848
1217+1069278045+1068447472+1068513191+1070314263+1072031339+1072003673
1205+1071405813+1071602769+1071750886+1071244313+1071187782+1072364627
1194+1073741823+1073390358+1071541844+1070670422+1071249306+1071691160
1182+1071630635+1071151527+1069912760+1068150640+1066494688+1065615975
1171+1064816165+1063172897+1061852031+1061085579+1059826237+1058090285
1159+1055840867+1053012466+1049689377+1046017420+1042955008+1040626389
1148+1037993645+1034954006+1031588868+1027499427+1022649926+1017138444
1136+1011481343+1006195481+1001332897+996464319+990800226+984709960+979035480
1123+973340225+966741888+959724369+953555300+948554387+944437080+940201919
1109+935556466+932051302+929615016+926961099+924498845+922679296+921110836
1096+919621578+918637895+919182421+920755675+921348542+921190337+922028401
1082+924003457+926215721+928676577+931626228+933643133+934215025+935391170
1069+937705507+939717918+941318138+943193418+945562388+948689220+952468944
1055+956358033+959496650+961020366+961365139+961308709+961042039+961247385
1042+962248646+963744596+965827119+967716083+968483433+969093778+970242357
1028+971118973+971107088+970711178+971434982+973084841+973305368+972267253
1015+971979009+972424658+973258526+974388329+974698345+973917911+973411237
1001+974003205+974672277+974036364+972247277+970506331+969524845+969091281
988+968663211+967896559+966306926+963458450+960150542+957331729+954353912
974+950873118+948411663+947586184+946863179+945344957+943228375+941134865
961+940488664+941511799+942588667+942555208+941917297+941473346+941180009
947+941879943+944139648+946248140+947434272+948664451+949934479+950698934
934+951469481+953301714+956181551+958980889+960882736+961620024+961606840
920+961873610+962299084+962436414+962856594+963195275+962336737+960499210
907+959027531+958109766+956752545+955308032+954130589+952683379+951285208
893+949756100+947906388+946966751+946905626+946784376+946694887+946208489
880+945488479+945938623+947669381+950260776+953301614+956407272+961021764
866+967655957+973726847+977721206+980127529+981298680+981803256+981926603
853+981569745+980736276+979733916+979153634+978572553+977663277+976818622
839+975945003+975216704+975731867+978485261+981470168+980956903+977395109
826+974550528+974299339+976012719+978318167+980049625+981462278+983645976
812+986040414+986905744+986450707+986977455+988267759+987903909+987642233
799+990618151+994809267+996928845+997282008+998468740+1002873391+1008872770
785+1012668075+1015234400+1018833248+1022083527+1024905336+1028775848
773+1032375096+1033633639+1032894154+1032438717+1033400727+1035039000
762+1036008501+1034264159+1031483599+1032190724+1036041860+1039431667
750+1040047105+1038661919+1038411129+1038673804+1035851096+1031665074
739+1031171085+1033936365+1035606199+1035616586+1035971847+1035897938
727+1033379154+1028586483+1024148972+1022097310+1021187835+1020224727
716+1019368286+1019049980+1021076872+1024428726+1024498540+1020284053
704+1015554704+1013132600+1012198955+1011099215+1010678236+1012314412
692+1013020638+1009600569+1006086616+1006700856+1008973645+1011398345
681+1014360880+1014538361+1012597462+1013304587+1014217258+1009689260
669+1001853353+1003276892+1013347135+1018339858+1016899240+1012980388
658+1011173324+1011452179+1011426311+1013822147+1017966021+1019694083
646+1019059868+1016606502+1013478572+1010097155+1007498769+1009661993
635+1013341042+1014169617+1019273104+1027683100+1027226765+1021166162
623+1019185712+1017531758+1011642144+1003629356+997688605+997379387+997932503
609+991283628+983557186+983633092+988797504+995754298+1003053468
##END=
