##TITLE=Sample description
##JCAMP-DX=4.24
##DATA TYPE=INFRARED SPECTRUM
##DATE=24/8/2023
##SAMPLING PROCEDURE=Instrument type and / or accessory
##ORIGIN=Default
##XUNITS=1/CM
##YUNITS=ABSORBANCE
##RESOLUTION=4
##FIRSTX=4397.6552
##LASTX=599.8556
##DELTAX=-1.9287962
##MAXY=1.561505
##MINY=0.58666325
##XFACTOR=1
##YFACTOR=1.4542648e-009
##NPOINTS=1970
##FIRSTY=0.82712442
##XYDATA=(X++(Y..Y))
4398+568757770+570686084+570970897+569891200+569569336+570135723+570194948
4384+569173984+567471257+566815357+568267494+569857427+569311001+567480807
4371+566356558+565713323+564356232+563654550+565930344+569163000+570033012
4357+569370512+568780231+568601859+568806298+568719407+568032193+567312682
4344+567048035+566439350+564953686+563702872+563309857+563341088+563653238
4330+564684367+565953132+566315449+566290161+566764411+567084349+566367461
4317+565052258+564017072+563304774+563133289+564291064+566518740+567517080
4303+565976904+564164048+563732956+563586636+563230508+563193538+563050169
4290+562476650+562577148+563266370+563109885+562613995+562646456+563064432
4276+564234093+565177470+564576860+563672010+563313627+562975369+562831221
4263+563217310+563804600+563666477+562439148+560628710+559212640+559549874
4249+560749209+560649244+560198151+561202064+563361130+565006189+564484395
4236+562570017+561275798+561358385+562418860+563089966+562588583+561281045
4222+559752960+558843273+558887661+559081280+558806263+558888440+559650003
4209+560356521+561055129+561264527+560155853+558605226+557597501+557227724
4195+558057611+559637912+559917724+558937377+558141919+558056217+558939509
4182+559626354+559028080+558658180+559571350+560090644+559098330+558159953
4168+557913012+557402817+557261374+557813416+557501183+555926743+554766099
4155+555637381+557791119+558990905+558568912+557348182+556230368+555441714
4141+555053330+555293221+555252276+554706300+554774624+555077061+554623508
4128+554037653+554290291+554629574+554386199+554708145+555417245+555132433
4114+554476245+554394601+554416979+554182785+554002118+554019086+554141020
4101+554259675+553950189+553332118+553245556+553656154+553824484+553376547
4087+552806758+553009476+553747062+553916211+553315970+553024722+553180716
4074+552580966+551952813+553053126+554998531+555735543+555058125+554230042
4060+554163234+554210819+553492784+552843154+552841924+552936193+553299821
4047+553305026+551663205+550371733+552056795+554731958+555312198+554231722
4033+552895042+551856865+551661484+551828092+551222441+550349724+550096716
4020+549787189+549229696+548952835+548616216+548153115+548076593+548503956
4006+549207195+550059337+550840614+551073251+551056324+550959884+550125694
3993+549500492+549872850+549908918+549667264+550047164+550387923+549996669
3979+549028496+548392023+548655317+549204244+549504631+549211171+548226930
3966+547663454+548312878+549389009+550197501+550523464+549886335+548451493
3952+547020505+545790676+545076083+546125450+547693046+547301177+546621300
3939+547223181+547516027+546887710+545924331+545158547+545141866+545362289
3925+544848118+544638884+545651569+546411902+545855188+544923082+545143013
3912+546588224+548310829+549070998+547331343+543430942+540690816+540300997
3898+541708993+544509614+546304846+544282428+542220294+544005649+544498835
3885+542347802+541864002+541065470+540916445+543085675+543468977+541770513
3871+539565953+538030285+539615669+540281816+538439491+538921077+541751372
3858+543960482+542308783+533982334+531097158+536861936+542036964+544590808
3844+544913573+543271096+540361985+537028298+536359200+538708441+540725449
3831+541765923+542580890+542515804+542349114+541051740+536602739+535579439
3817+537523984+538337107+540696267+543803260+544409772+541272942+539179618
3804+539827977+538092666+537077891+539124532+540778567+542639008+544690855
3790+545483280+545002759+543606772+542775492+543694687+544020117+543468526
3777+544779876+546838485+547395937+545339911+542539822+541858879+542459530
3763+543704647+544086146+542001224+540987842+543065264+544121394+539373974
3750+534443756+536438221+538651389+537758957+539417993+542825413+543124981
3736+538080001+533041990+534618725+539598045+542926239+542821028+541198429
3723+540523798+540487771+541046575+542702660+544435224+543472420+539867405
3709+539389548+541790227+543805227+543602838+541902365+542077745+543755962
3696+544741431+544474366+542736678+539570297+538665693+541494349+544513098
3682+545168425+543547260+540912633+536085208+532783040+534100005+533509682
3669+532115458+534036231+535911632+536048689+535676495+535394059+533276471
3655+530282150+529542433+527489521+520093292+516491393+520009312+523546781
3642+523926025+522014434+519828768+517585598+515585108+514376264+509656345
3628+501203126+499527327+501320469+501052051+497218990+491804070+489434049
3615+488729416+487857355+487106653+484621953+481518117+480736102+480049994
3601+477459140+474550356+472357313+470340100+469253559+469517468+468357971
3588+463471854+459760440+460399905+461989469+461783514+459825075+457795443
3574+456529301+455650600+454154525+450045013+444624396+443564741+444995566
3561+444941546+443874760+443263370+442614109+441320301+440494226+440712764
3547+440213267+438303273+437330017+438091662+438458980+437207920+435626102
3534+434949586+434424841+432973318+431316537+430495831+429885671+429139273
3520+428774333+428748634+428766136+428431402+427022874+424712405+423269244
3507+423310394+422937338+421626070+421227931+421710337+421749889+421370153
3493+420858523+420003512+419042224+418578548+418602279+418079461+416523587
3480+415336179+415364131+415483319+414737823+413708211+413262405+413260684
3466+413070139+412218940+410837094+409628086+408840374+408527404+408831726
3453+408906894+407839985+406338418+406024547+407070266+407467954+406500682
3439+405892407+406216853+406395799+405896465+405090719+404544702+404412809
3426+404571384+404782709+404908003+405026822+404923742+404637741+404566999
3412+404409776+403924296+403524517+403408814+403676002+404168491+404170335
3399+403743834+404029876+404948661+405211710+405210809+406059385+407233760
3385+407790228+407801581+407903308+408163570+408345630+408976038+410335014
3372+411486764+412111024+412888407+413722433+414347143+415131166+416193731
3358+417177356+417921418+418875739+420133438+421407204+422854997+424275452
3345+425256619+426039617+426730028+426904670+426531327+426284386+426535631
3331+426785154+426758513+427142143+428186018+428965041+429072302+429173455
3318+429468883+429496057+429416749+429713980+429975676+429864686+430028712
3304+430528456+430774455+430970286+431447282+431950879+432118020+432068509
3291+432517716+433632702+434853022+435593354+435666433+435767504+436371393
3277+437225749+438205358+439029793+439630526+440519884+441426619+441555316
3264+441268782+441217836+441358787+441772993+442367742+442869289+443530354
3250+444341264+444515619+443754097+443080203+443353007+444236298+445190291
3237+445835535+445972879+445900457+445950870+446285890+447056675+448063007
3223+449005318+449648923+449551827+448882524+448529142+448812151+449255579
3210+449530309+449714501+449789505+449694131+449548384+449559040+449863567
3196+450294208+450627712+450905762+451406448+452413312+453467598+453882172
3183+454064315+454650334+455494197+456114562+456202846+456270473+456977443
3169+457738923+457984553+458384577+459304470+460122634+460471262+460611311
3156+460702055+460841202+461244014+461867535+462475277+462955757+463771750
3142+464745006+464355187+462868375+462197555+462593563+463159499+463444066
3129+463515054+463626700+463764782+463644406+463357380+463346355+463777938
3115+464654836+465801504+466627661+466635653+466006517+465255938+464829560
3102+464910548+465220526+465636617+465762486+465202492+464898908+465183475
3088+465457918+466032215+466694550+466526098+466033404+466353054+467268397
3075+467785477+467690144+467567186+467708547+467900157+468117588+468531425
3061+468884561+468635242+468061437+468087668+468614790+468750044+468572247
3047+468776153+469180808+469322128+469263600+469223762+469403445+469606736
3034+469474966+469185645+468929113+468725617+468742708+468815622+468927432
3020+469671945+470796931+471217162+470786357+470374365+470616715+471089408
3007+471105024+471020142+471460127+472052213+472336328+472718606+473543287
2993+474768116+476337719+477669563+478378663+479178630+480343373+481115633
2980+481270028+481353967+481442620+481251051+481161251+481422373+481589432
2966+481757393+482216315+482274228+481382862+480242834+479731573+479953226
2953+480425796+480759423+481103337+481583858+482097824+482527276+482571910
2939+482259637+482178526+482473585+482638758+482392063+481702144+480719092
2926+480138565+480390015+480858650+480828648+480491005+480152951+479620091
2912+479224780+479530496+480297345+481123830+481658863+481491803+480823853
2899+480386736+480775039+481799322+482721591+483347203+483797190+484136964
2885+484444729+484443581+484108356+483806002+483647467+483716775+483950273
2872+484095650+484065444+483796575+483494671+483480859+483644271+483802887
2858+483760630+483363188+482886765+482584739+482302836+481896705+481809610
2845+482305664+482858075+483305233+483625253+483628040+483837643+484641831
2831+485540738+486035932+486256766+486501043+486755157+487085955+487559755
2818+487948057+488250944+488738597+489268547+489356667+489110013+489304082
2804+490181759+490992300+491214321+491175180+491292523+491650905+491925266
2791+492039126+492509482+493252109+493789929+494245367+494744741+495177431
2777+495464580+495479007+495347688+495356131+495480319+495681397+496033672
2764+496486323+496998403+497548600+498038794+498333484+498513782+498886592
2750+499368096+499550525+499442773+499491792+499861118+500143184+500184253
2737+500366723+500706743+500875934+500969054+501307805+501889561+502485294
2723+502985694+503447402+504052357+504804001+505225133+505117627+505025695
2710+505339812+505901199+506579478+507340344+507939970+508282614+508513079
2696+508631488+508596773+508505702+508546688+508856502+509531666+510398112
2683+510908758+510958802+510816662+510478691+510110717+510278064+511165372
2669+512118135+512527094+512497830+512488116+512855147+513440592+513808196
2656+513872053+513953451+514330523+514762640+514851088+514716899+514812274
2642+515275376+515741511+515975869+516303840+516883097+517401202+517667079
2629+517725525+517848401+518276624+518720463+518925844+519143849+519400463
2615+519448171+519530430+520048330+520841862+521545430+522237767+523077162
2602+523739989+524066854+524336296+524666808+524982237+525219178+525477718
2588+525827330+526124397+526392610+526871737+527555590+528029103+528179194
2575+528401953+528693979+528771566+528761525+528816692+528848374+528977644
2561+529405703+529943933+530432282+530950305+531319590+531540259+532025576
2548+532632457+532806484+532594381+532544091+532888374+533386437+533905280
2534+534475233+535006331+535353401+535435742+535394305+535477261+535683503
2521+535975037+536518800+537109738+537397665+537665304+538137423+538550809
2507+538753198+538851155+539029281+539344587+539631776+539836051+540171276
2494+540670692+541081701+541078299+540690160+540502854+540709875+541084037
2480+541492873+541650834+541561115+541458691+541302739+541115637+541041739
2467+541031820+540946323+540942061+541081537+540966776+540605606+540504452
2453+540644789+540606467+540385921+540190335+539995938+539772645+539561567
2440+539385901+539278763+539304789+539445658+539283599+538642372+538158941
2426+538079059+538003194+537888268+537717561+537251467+536556466+535844947
2413+535354836+535320899+535481688+535340163+534869068+534379653+533976104
2399+533562964+533199090+532898211+532563682+532200176+531756707+531254340
2386+530763081+529929096+528128535+525380663+522380316+519220083+515631709
2372+512203427+509329686+506441150+503323583+500345328+497755990+496033508
2359+495586719+496404104+498659693+502328522+506567346+509393379+508892815
2345+505444204+501949565+500101010+499538148+499818411+500623542+501740290
2332+502765516+503659915+504811419+505896403+506442297+506975199+508054609
2318+509422192+510748174+511955256+512908060+513524573+514144815+515044952
2305+516004232+516848545+517477395+517721180+517651832+517591705+517824793
2291+518234531+518571314+518880759+519209222+519446244+519661053+519993081
2278+520207110+520285271+520548156+520718125+520548115+520401098+520518687
2264+520871659+521270208+521565677+521833070+522105136+522466510+523108803
2251+523894794+524407366+524427572+524241782+524457943+525117204+525638916
2237+525873644+526143250+526606967+527198274+527738143+528115256+528491754
2224+528984202+529390292+529696663+530052628+530360064+530736153+531421236
2210+532155666+532613890+533019407+533764657+534699222+535362213+535719120
2197+536074552+536595772+537264009+537963273+538591877+539235154+539990159
2183+540776682+541546688+542310669+543033541+543632757+544051594+544421453
2170+544896482+545506068+546249884+547043252+547798462+548519530+549190637
2156+549761368+550260907+550832868+551456799+551916007+552185286+552333082
2143+552367387+552380339+552458786+552578179+552534693+552223895+551800632
2129+551157642+550207666+549321300+548721182+548215946+547407045+546111474
2116+544712659+543534596+542530559+541605831+540456335+538977310+537642639
2102+536619339+535592022+534444002+533175113+531763470+530370516+529157081
2089+528125666+527169788+526163989+525183069+524216658+523092286+521895984
2075+520666729+519410177+518372122+517488748+516382124+514923797+513437149
2062+512315114+511394525+510392251+509505558+508793506+507824472+506507424
2048+505321041+504454144+503653111+502681577+501540606+500477467+499541058
2035+498549522+497521795+496664284+496016007+495342933+494539442+493668159
2021+492783802+491927480+491059189+490308242+489696524+488958979+488187949
2008+487584059+486985171+486221640+485356670+484599534+484009744+483424626
1994+482636381+481551889+480510268+479818546+479363108+479037351+478673968
1981+478138772+477471887+476747006+476111394+475612675+475114817+474363296
1967+473322413+472583187+472407070+472196197+471590217+470792915+470060780
1954+469571119+469266879+468850993+468185461+467389224+466448470+465536980
1940+465234134+465328730+465260078+464986619+464609792+464209809+463732280
1927+462945716+461726584+460660290+460398757+460234895+459856429+459918851
1913+459963444+459250696+458216289+457753269+457865284+458036769+458020334
1900+457714291+457017937+456036935+455325867+454996093+454509710+454195142
1886+454421140+454636562+454702837+454714764+454583690+454392162+454164485
1873+453572399+452011485+449886478+449489200+450948346+452193217+452532582
1859+452417493+452240433+452160715+452102884+451857213+451261234+450294987
1846+448829570+447579576+448237607+449571131+449840984+449539326+449413991
1832+448567341+446494182+445365629+445886481+446460737+447152459+447929679
1819+448067433+447662286+447132048+446314827+445212341+444690424+444850352
1805+444855680+444103053+442588944+441557529+441667454+441625402+440241752
1792+438590914+439217140+440889168+441534986+441112584+440255687+439387561
1778+439033031+438628826+436791706+433754431+433123409+435158574+437044262
1765+437804350+437165827+436228844+436320858+436471482+436678092+436755351
1751+435007294+432322131+431953215+433089595+433728241+433446625+432908806
1738+433006066+432302457+429411667+428810769+431251533+433592044+434939462
1724+435167919+434764861+433422566+429369779+425367240+427330269+431243417
1711+433444576+433459741+431490769+429372894+428743634+427001807+423600493
1697+423070707+425590901+429111976+431269321+431192636+429827389+426770809
1684+422994965+424564855+427985760+429541019+428622520+426846224+425995352
1670+425125135+425638855+427843620+428446895+427169563+427170219+428291557
1657+428081750+424293896+417490859+417685994+419530410+418970416+420884139
1643+425143251+427749639+428011172+426031830+424839339+429499008+435175952
1630+438567880+440563370+442695426+445318536+449350708+453703186+456144236
1616+458633527+464162839+469852120+473818918+476881154+480244473+483679928
1603+487010910+490660148+494306231+497293544+500051949+503298704+506810189
1589+510387578+514018250+517523259+520915268+524152064+526361747+526703366
1576+528166652+533490583+538096437+540768034+544608964+549699971+554019209
1562+556775402+556181144+555153786+563109640+572645835+580448113+586675705
1549+592148825+596267723+598043610+597659242+597970901+607622226+620246764
1535+628433082+634794002+642550335+649974762+655756999+660559054+664030946
1522+667235321+672943086+680312592+689003736+697763531+703838901+706272000
1508+705501379+709432028+722347241+732963296+739416394+743145228+747823545
1495+755256129+761754885+765301576+768428406+775723686+784828666+792251413
1481+798119475+803387173+807459961+809324337+809821663+814101595+823046976
1468+830767036+835184354+839567981+845446208+848883548+847564123+850315111
1454+861067486+870311737+876838774+882839959+890258607+897778327+903854762
1441+909227221+912835883+913995298+918078087+925897661+932206324+936518881
1427+941528695+946119958+949593858+952881353+954968283+957292851+962159950
1414+967268950+970415781+971371248+971689219+972133508+973017414+974986059
1400+975275093+972018337+968949052+969404080+973180211+975387477+972314339
1387+967817590+968214745+972562387+976854041+978994827+979194757+978304703
1373+978183220+979185003+979083029+978429629+978242158+976465329+974823426
1360+976870354+979480431+979788318+979311076+980074319+981477683+982245189
1346+981937301+979756185+975367721+971089018+970220769+971574458+972938557
1333+974421680+975006224+974647186+974822606+976361798+979982920+984261459
1319+986411918+986771612+987274020+989064129+992927069+997687768+1001572103
1306+1004743116+1007886504+1011024236+1013855965+1016304065+1019088251
1294+1022810363+1026531245+1028788431+1029766934+1030775929+1031935016
1283+1032519888+1033082709+1034174989+1034819782+1034827651+1035277187
1271+1035951490+1034780108+1031142509+1027930019+1027231861+1027461957
1260+1028055928+1030190566+1032241346+1032281923+1031142263+1030221387
1248+1030177368+1030468042+1030262210+1029953994+1030285572+1031286042
1236+1032614156+1034038341+1034910935+1034786993+1034233599+1033472815
1225+1032891714+1033755045+1035630323+1036859660+1037498716+1037765863
1213+1037223699+1036149207+1034822569+1034434267+1036754818+1040387826
1202+1041555930+1039650814+1038200644+1039454244+1041321653+1041339359
1190+1040843591+1041973578+1043455963+1043158158+1042043992+1041532486
1178+1041364443+1041908820+1043324726+1044498814+1044235191+1042354831
1167+1040627349+1040419467+1041267224+1041940789+1040832935+1037904642
1155+1035219561+1033797589+1032869991+1032204951+1031801156+1030875280
1144+1029035414+1027267765+1026873643+1026520998+1024085604+1020763681
1132+1018062533+1015136125+1011886419+1009220437+1007009729+1005120680
1121+1002733731+998977437+995745929+993639161+990017711+984739767+980588285
1107+978010669+975157790+971821850+969353011+968277290+968155479+968419921
1094+967998584+965625161+962681047+962419556+964086625+963597415+960917825
1080+959245674+958721954+956703225+951997446+946420222+942202834+940193695
1067+940430595+940990957+939289624+936472895+935016823+933815110+930867882
1053+927508743+925482882+923939509+922421138+921130814+919393741+917370257
1040+915487520+914033825+913494202+912947201+911662779+910761904+910209739
1026+908491930+906523859+906234006+906599110+906054814+905508634+905770617
1013+905712908+904749407+903429245+901839148+900718998+901043116+901822180
999+901792260+900799413+899248253+898404513+898762321+899209726+898623215
986+896874010+895231779+894621250+894576165+894714370+894625020+893481836
972+890783967+886908731+883404829+881677839+881165677+880550967+879669848
959+878698067+877650463+876682699+875535252+874082131+873417254+874548061
945+876417191+877696203+879311875+882020483+884655315+887038493+889853418
932+892620390+895295061+897864644+899821402+902145478+905234764+907956078
918+910266874+912204123+913022533+913084013+913273450+913164919+911954026
905+910651488+910966753+912005095+911809427+910991098+910518447+909744383
891+908693581+908130842+907760000+906865519+905923003+905692251+905588802
878+904970486+905030162+906603454+908171583+909396575+911045856+912310851
864+914168833+917963490+921601990+923914590+926462368+929648791+932482324
851+935488901+939742438+943888838+946346037+948702738+953107432+958126098
837+960978731+961757631+961389903+960470011+961284487+964198271+966253314
824+967367480+969795415+972851339+974580132+975924476+979230907+983958162
810+988715419+992892148+994198457+992566227+991024412+991293035+994416012
797+999278767+1001707111+1000938212+1001618663+1006436251+1011909371+1014229677
783+1014640357+1015114894+1015196047+1015937567+1018690768+1021190838
772+1022886925+1025139111+1025350435+1023097593+1022092122+1021904160
760+1020892951+1022069744+1026049576+1028094865+1026916186+1024495219
748+1021913505+1021957770+1024556453+1025097715+1022948650+1022321153
737+1026433780+1031330635+1027953381+1017942361+1011259906+1010699544
725+1013488320+1015921173+1014914226+1010927262+1007266138+1006333868
714+1007317207+1008603842+1008150618+1005456602+1006049507+1012280542
702+1016577278+1014856764+1012599495+1011882075+1009189780+1004379405
691+1001767525+1003402542+1004723196+1004997475+1008379075+1010832666
679+1009996058+1010948657+1012265131+1009118546+1001543904+993348979+994934076
665+1006266323+1014741675+1017713987+1016502110+1011670095+1004514085
654+1000949934+1000703689+992897067+986640948+999655183+1020155611+1029911533
640+1029961945+1025577088+1028005843+1036377336+1030203845+1014474200
629+1005778916+1007369833+1011898797+1002802424+984880021+985145038+1006172219
615+1024330045+1019702141+1008036103+1016194468+1043364073+1070204149
604+1073741823+1047092742+1021390358
##END=
