##TITLE=Sample description
##JCAMP-DX=4.24
##DATA TYPE=INFRARED SPECTRUM
##DATE=24/8/2023
##SAMPLING PROCEDURE=Instrument type and / or accessory
##ORIGIN=Default
##XUNITS=1/CM
##YUNITS=ABSORBANCE
##RESOLUTION=4
##FIRSTX=4397.6552
##LASTX=599.8556
##DELTAX=-1.9287962
##MAXY=1.2832507
##MINY=0.34230527
##XFACTOR=1
##YFACTOR=1.1951203e-009
##NPOINTS=1970
##FIRSTY=0.48986399
##XYDATA=(X++(Y..Y))
4398+409886751+409926949+409547637+409775608+410661957+410892871+410410346
4384+409493724+408064154+407054344+406971779+407046364+406793282+406337340
4371+406128794+406229015+406208841+406608102+407616392+407837455+407013323
4357+406352751+406318912+406112411+404847149+403809609+404643990+406116251
4344+406620321+406089893+405048538+404402603+404285027+404256275+404304128
4330+404400259+404491877+404259916+403965314+404392953+404564118+403652658
4317+403178462+403748839+403711783+402516842+401841782+402433828+403070062
4303+403059365+402890219+402931065+402859348+401963273+400592180+400006468
4290+400180326+400371815+400470115+400471387+400887356+402121571+402836032
4276+401936367+400759555+400621606+400792696+400523629+400044721+399341182
4263+398492862+398160855+398656272+399534192+400054396+399885874+399248243
4249+398463411+397965177+398456978+400067762+401359507+401264722+401159390
4236+401708396+401117970+399311009+398270626+398149982+397963681+397726408
4222+397819572+397887374+397295278+396625903+396611016+397061497+397622023
4209+397355101+395987499+394972776+395433057+396792405+397508437+397300016
4195+397037583+396578548+395911418+395849874+396290280+396619195+396516381
4182+395947900+395647862+396066349+396554036+396375240+395433905+394649073
4168+394841260+395251319+395099953+395025667+395514501+396059068+396259858
4155+396019194+395312489+394559227+394337190+394842258+395569411+395448119
4141+394365843+393602332+393602930+393577993+393432787+393661157+394123533
4128+394128196+393471863+392944802+392987593+392868022+392341309+392494445
4114+393542883+394101414+393794743+393364162+392799446+391958806+391205569
4101+390872714+391086720+391629093+391894893+391479174+390732046+390224385
4087+390106734+390187155+390290941+390405201+390067384+388886583+387888318
4074+388124543+389048023+389621167+389372224+388584974+387948116+387400557
4060+386616049+386059787+386122702+386529544+386610638+385922485+385044839
4047+384724478+385088404+385879569+386276985+385927149+385475545+385166156
4033+384727121+384286191+384205496+384270955+384228961+384257439+383936654
4020+383275308+383454279+384411647+384644207+383835934+382893079+382229389
4006+382174130+382825201+383275932+383068957+382822359+382875798+382845350
3993+382714333+382806973+382769617+382397363+381987978+381425431+380709848
3979+380368291+380430982+380460582+380328716+380157551+380305550+380913506
3966+381208283+380432378+379548348+380007308+380988616+381022455+380043665
3952+378540508+377168417+377078595+378279097+378633172+377976415+378743667
3939+380460681+380976496+379601364+376877307+375235451+376190975+377090341
3925+376067837+375501276+376306382+376379720+375846923+376091452+377105003
3912+378645491+379955614+379447405+376346156+372441472+370449281+370458084
3898+372409703+375335323+376572107+375027754+374389899+376229976+376398423
3885+374657669+373925378+372994443+373428615+375569403+375658876+373696634
3871+371857056+371559611+373209347+373662820+373190869+374758089+376507371
3858+376501361+373619056+367187964+366604271+372094703+376447274+377791560
3844+376225337+373208324+369800778+367174697+368573295+372346164+374918830
3831+376343313+377327962+377591742+377541046+375296421+370223779+369826288
3817+372375764+373757505+376329897+379081459+379510918+377498828+376419993
3804+376279450+374108463+373775434+375981307+377720041+379650414+381657891
3790+382702962+382473669+381341195+380825904+381310199+381006844+380850466
3777+382895598+385075112+385106807+382780939+381064323+381875862+383338722
3763+384693930+384591017+382378511+382006131+384347311+384855221+380036384
3750+376459119+379275092+381905188+382343300+385036959+388535898+389372224
3736+387458360+387348090+391525581+396911029+400864214+402623546+404277496
3723+408871354+416574591+426385401+437185074+447894925+458975984+473624782
3709+492302448+510288121+525473058+538681912+551242214+563637685+575506193
3696+585558913+591175948+590502509+584829665+580879547+581298733+581164673
3682+578186038+573521184+567713783+558044838+550718694+550990254+548285523
3669+542908628+542574527+543703709+542741802+540186242+537509041+533718617
3655+530217708+528669739+523949826+513911370+510771045+515458840+519691441
3642+521459151+521740287+521468727+521161806+521223899+521434414+518347254
3628+512933802+514459328+518983688+520600981+517929365+514318087+514106723
3615+515132867+515814087+516579992+515637237+513856808+514395739+515746709
3601+515351911+513923589+513260822+513024921+513103521+513842395+512869715
3588+508777607+507117723+509625753+512216374+513107012+512634462+511825068
3574+511721082+512778846+513653973+510965601+506713599+507647827+510550455
3561+512175578+514162831+516382644+517262709+517360909+517760095+518042428
3547+517756455+517994301+519477235+521483041+523763798+525780327+526965467
3534+527879297+528319279+528113153+528335089+529163535+530118959+531589624
3520+533621813+535421941+536826225+538274048+539593397+540231128+540569319
3507+541254030+541122165+539737332+539446121+540839932+542152598+542818008
3493+543597179+544114017+543539925+543314797+544558987+545475011+545195221
3480+545357010+546847724+548574689+549029583+548533842+548608453+549494552
3466+550222254+549971741+549574150+550235221+550748717+549826759+548544216
3453+548765654+550920581+552797315+552496678+551724789+552121082+552619217
3439+552586550+553020997+553710795+553326122+552736170+553492848+554808906
3426+555081414+553834730+552155594+551738554+552953169+554746116+556097035
3412+556664793+556549536+556395228+556516769+556434328+556485399+557261827
3399+557850831+557583211+557782056+559058165+559969899+559695147+558992132
3385+558766456+559027443+559537697+560027004+560304300+560838493+561338673
3372+561984583+563827153+565340211+565136029+565100370+566091752+566823195
3358+567275197+568049580+568680478+568762121+568273462+567389407+566823793
3345+567352451+568857478+570118875+570155781+569519697+569574507+570351434
3331+570520206+570251488+570865429+571852672+572186374+572236647+572370756
3318+572224478+571460717+570584792+570224906+570115783+569993743+570338916
3304+571663452+573239699+573937128+574013285+574219860+574534411+574255918
3291+573387274+573106887+573728209+574346439+574522043+574868263+576031160
3277+577801165+579454317+580595518+581636774+582484421+582587011+582853285
3264+583954288+585021279+585522655+585532929+585600907+586401723+587557388
3250+588499296+589122862+589010597+588466479+589048751+591234350+593282748
3237+593478700+592525870+591856919+591731088+592212715+593036174+593541541
3223+593611962+593511467+593430822+593304243+592930542+592399142+592253512
3210+592416997+592321290+591799614+590668886+589535265+588888308+588083153
3196+587423179+587479037+587410960+586387110+585024670+584265997+584058474
3183+583919227+583498646+583128585+583336607+583482836+582740471+581465210
3169+580643945+580551730+580283311+579125302+577889441+577378837+576717966
3156+575347197+574274571+573898327+573347825+572173357+571114397+570896650
3142+570833211+569886515+568421486+567264574+566353039+565302756+563943807
3129+562452794+561579811+561096738+559661333+557845844+556893761+556068158
3115+555099867+554768658+554422837+553165480+552003930+551850469+551778253
3102+551028257+550150686+549772596+549704669+549447522+549015320+548500677
3088+547912171+547685547+547752377+547271648+546494821+546136481+545606327
3075+544547017+543404219+542413087+541706381+541354824+541199070+540735946
3061+539711996+538383021+537066914+536283952+535997131+535333267+534027034
3047+532678608+531856696+531396415+530549216+529314053+528028617+526265944
3034+524151115+522462304+521311327+520356601+519545262+518866087+517769472
3020+516268384+514991876+513667738+511985311+510446569+509432644+508801646
3007+508177232+507260959+506064996+504766045+503516568+502609821+502151286
2993+501704071+500784556+499633779+498953806+498680350+498436220+498214084
2980+497551268+496318149+495296294+494651183+493841339+492706871+491697534
2966+491192666+490700765+489510937+487749261+486134711+485065128+484305756
2953+483427786+482219604+481169770+480862600+480800558+480298383+479528139
2939+478802532+477937130+476802312+475753276+474851267+473616902+472095465
2926+471040694+470663751+470311147+469447690+467944158+465830077+463647171
2912+462471756+462653444+463325986+463551813+462840270+461428405+460337426
2899+459925871+459574962+459006456+458297357+457350462+456333295+455752919
2885+455571679+455131248+454329384+453724371+453480590+453244938+452714934
2872+451760159+450470285+449291329+448451811+447674435+446882646+446265763
2858+445765533+445009004+443799227+442484416+441319773+440338964+439784073
2845+439484684+438992284+438404577+437928137+437524063+437173254+436868428
2831+436490438+435919687+435271683+434643329+434110283+433827102+433411757
2818+432594432+431795411+431164663+430752560+430666080+430548279+430110540
2804+429525376+429101702+428878120+428615986+428200192+427643306+426964630
2791+426448092+426375077+426401460+426102818+425594260+425095776+424681478
2777+424235411+423545563+422923792+422838907+422797413+422264117+421739300
2764+421501703+421234482+420972398+420923771+420911353+420601290+419946852
2750+419186433+418736775+418643761+418414194+418108695+418079794+417947779
2737+417519965+417199978+417004051+416737278+416431205+416079449+415819260
2723+415799884+415721857+415450346+415271476+415085623+414797853+414775136
2710+414963533+415045849+415036946+414973906+414831917+414622449+414420711
2696+414218076+413956316+413719667+413508977+413311129+413091213+412737785
2683+412482060+412479192+412473332+412381216+412241895+412018312+411821762
2669+411775130+411775180+411683513+411574290+411509255+411401155+411287094
2656+411297368+411366767+411343327+411260587+411235525+411359012+411661643
2642+411984000+412036167+411782412+411665035+411881984+412056416+412073248
2629+412192296+412388996+412420616+412462659+412783719+413132682+413378109
2615+413801259+414450286+415059514+415522688+415860829+416075609+416417765
2602+417023027+417643352+418145577+418593738+419045192+419536394+420077919
2588+420514361+420655752+420621738+420654505+420827665+421157328+421636262
2575+422089810+422375833+422473485+422324713+422046071+421878796+421902934
2561+422031957+422171203+422354837+422574030+422664550+422502611+422302769
2548+422347156+422349301+422003629+421705685+421785383+421946324+422026670
2534+422219082+422439621+422438724+422320025+422422615+422665897+422570938
2521+422192748+422021134+422107764+422155294+422078389+422153747+422529942
2507+422879654+422937208+422890975+423018352+423197447+423182385+423157498
2494+423279838+423392502+423487760+423586060+423491251+423156002+422878856
2480+422843396+422875016+422823995+422818659+422960548+422960399+422599864
2467+422150057+421872212+421731270+421553073+421234382+420898635+420613210
2453+420245444+419876980+419725614+419589360+419191022+418772834+418625558
2440+418600372+418436039+418091414+417613652+417018938+416410059+415844745
2426+415308282+414914208+414665889+414408592+414076037+413707996+413353472
2413+412858953+412121326+411402227+410887808+410483510+410105595+409698903
2399+409212014+408762531+408489449+408238836+407790649+407227379+406598078
2386+405619812+404135133+402291041+400250697+398034376+395568414+392931834
2372+390142194+387007106+383803043+381094995+378964980+377414218+376652403
2359+376661854+377526333+379272449+381659661+384461795+386441193+386098164
2345+383691152+381464582+380647332+380375747+380118750+380108700+380246051
2332+380406294+380828846+381526874+382275996+382782784+383054893+383586792
2318+384590219+385693966+386497101+387064460+387686181+388367277+389042238
2305+389765975+390368769+390609183+390705688+391007372+391331997+391414762
2291+391539121+391872924+392036708+391959354+391968880+392057156+392091543
2278+392148973+392223458+392203285+392140943+392242635+392516589+392665336
2264+392637133+392746804+393018190+393237234+393441490+393720357+393965036
2251+394106302+394367339+394907243+395457720+395823316+396173776+396618422
2237+397069851+397472852+397941861+398601486+399345621+400018013+400635844
2224+401251032+401867043+402551928+403432068+404444771+405479793+406694209
2210+408121185+409527064+410784521+411971855+413325568+414924382+416571350
2197+418234002+420074079+422063427+424146337+426514573+429174368+431733419
2183+434027692+436453681+439292073+442269013+445146256+447942554+450666786
2170+453461339+456474686+459537557+462430112+465066566+467472057+469794609
2156+471892331+473552365+474911913+475909080+476337143+476229467+475732279
2143+475007470+474034541+472546221+470172698+466827095+462879670+458643279
2129+454147696+449369879+444399951+439426681+434491165+429518793+424556894
2116+419711300+415102555+410719935+406403771+402231642+398299627+394425416
2102+390581603+386986084+383704593+380690024+377873053+375022866+372115924
2089+369393313+366830846+364343512+362105770+360181682+358316868+356304404
2075+354303610+352556547+350966186+349261889+347380217+345529692+343981698
2062+342672398+341352101+339978141+338497277+336859112+335251495+333844518
2048+332610153+331451545+330223065+328880474+327720321+326912871+326164871
2035+325323757+324571916+323984932+323504353+323155688+322904925+322606907
2021+322132113+321329351+320306075+319455909+318709978+317672563+316421266
2008+315283680+314250803+313135461+311967427+310886896+309861276+308781094
1994+307534909+306243488+305385418+304943714+304534803+304107787+303564816
1981+302774523+301882962+301084839+300406088+299790950+299132398+298172959
1967+297047443+296430260+296255928+295902002+295363295+294810947+294211096
1954+293650669+293196448+292752026+292128161+291173859+289916029+289065663
1940+289273585+289672622+289588959+289373083+289235781+289069553+288819064
1927+288405265+287550785+286643839+286438660+286419084+286458858+287137111
1913+287710879+287445453+287026292+287391166+288192481+288684706+288805374
1900+288690192+288332375+287897305+287786312+287745915+287362987+287498967
1886+288372374+289057135+289524174+290040562+290514409+290815045+290885392
1873+290467029+288957737+287200874+287834241+290313594+292217234+293055705
1859+293481823+293937690+294436798+294860048+295081859+294837779+294061501
1846+292923017+292584302+294448194+296675537+297711481+298303278+298969087
1832+298755131+297644776+297625874+298734359+299848778+301321488+302711982
1819+303245876+303153336+302765421+301758503+300361776+299893315+300404841
1805+300523141+299345930+297370697+296309267+296531478+296514696+295202353
1792+294184139+295879409+298195577+298960609+298530551+297960150+297957930
1778+298801114+299161748+297607396+295049866+295015578+297286835+299364359
1765+300321104+299971517+299672102+300339906+300949059+301307524+300548801
1751+297496502+294440563+294488142+295769962+296378541+296294904+296046560
1738+296018531+294742845+291802862+291985299+295104178+298068076+299741601
1724+300042686+299831547+298771863+295294195+292599314+295994492+300979183
1711+304180079+305291107+304857309+304716541+305734381+305857893+305258814
1697+307515159+313271016+319774625+324108119+326565903+328036967+328247382
1684+330123942+337369391+345034225+350797963+355101284+359456798+363618628
1670+367908584+375212983+383262266+389167993+394700119+401864125+408646550
1657+412905410+414530158+419162544+428934577+435397962+441833419+453005197
1643+463983417+471989983+477223791+480383367+486157653+496853091+505897921
1630+512167648+517181664+521762680+526143355+531658100+537252941+540678941
1616+543809391+549453407+554830102+558172514+560488831+563165085+566017840
1603+568713195+571539318+574317562+576537325+578784069+581982197+585887828
1589+590170203+594913307+600076993+605492540+610966837+615777420+619794519
1576+626685867+636829157+645285482+653348954+663655928+674257604+683780071
1562+690787475+694193824+701332195+716984894+732267532+746025143+757686977
1549+768519317+777504099+783478925+787211197+791227796+804283739+819201654
1535+828615596+836677622+846886745+855825444+861988592+866934431+871329869
1522+876306530+884311800+893066367+901184151+909195206+914789499+915683029
1508+912140426+914296650+927126867+936290495+939504233+938345376+937485460
1495+940856000+943515745+940135630+934117912+935105205+939852848+942485961
1481+942192107+940876548+938868547+933801017+925549572+920928608+923449605
1468+926079526+924448169+921509233+921304254+920683430+915622383+912911169
1454+919218750+926931662+933453998+938726608+944303146+951381270+959254575
1441+966527505+971493992+974500357+979356025+985832677+991193662+996992935
1427+1003736209+1008480860+1011549866+1013748083+1012557706+1012020271
1416+1017555514+1023003877+1024842308+1025504028+1025739131+1024060793
1404+1022649577+1023755668+1023730532+1020728356+1017612669+1016515256
1393+1018364659+1020044393+1016893695+1009646998+1006421091+1009612785
1381+1014512442+1017622344+1017965971+1016511565+1016007844+1017125506
1369+1018405455+1019721513+1019595633+1015703318+1011797337+1013232892
1358+1017021271+1018281670+1016861476+1015332260+1013739904+1011562534
1346+1009474536+1007890659+1005962057+1002350927+999110257+999109958+1000807048
1333+1002197717+1003170047+1003687034+1003526741+1003611925+1005102639
1321+1007570871+1009632535+1011628167+1014252801+1016949254+1020026937
1310+1023338029+1026672460+1031110290+1036181412+1040221850+1042962391
1298+1045458651+1048352701+1051541603+1054946755+1057689390+1058902210
1287+1059354162+1060113633+1061022625+1061195087+1060471624+1059710158
1275+1059598940+1059744471+1058799471+1056323658+1053830290+1052394337
1263+1051810819+1051804635+1051702993+1051750772+1053116403+1054723721
1252+1054972889+1054931394+1055636404+1056546393+1057932472+1059666369
1240+1060475414+1060993499+1062458678+1064018915+1064654401+1064906761
1229+1065191438+1064822076+1064210828+1064742777+1066005869+1067009022
1217+1068066735+1069323544+1070464745+1071281970+1071521961+1071420618
1205+1071614625+1072217095+1072761912+1073345529+1073741823+1073235808
1194+1072827445+1073034819+1072622665+1071309799+1070048902+1069585079
1182+1069494908+1068981113+1068036811+1067524612+1067879112+1067674133
1171+1065677104+1063281189+1062083431+1060706128+1057956412+1055205298
1159+1053350010+1052294690+1051131943+1048925546+1046204058+1043225522
1148+1039719227+1035462637+1030260149+1025013075+1020386923+1015710100
1136+1010847849+1006220600+1001274362+995445365+989442609+983751463+977739730
1123+971333300+965368049+960244561+955310691+949800385+943913236+938010626
1109+932519771+928522422+926055388+923860462+921960587+920930902+919772843
1096+918158742+917477373+918013012+918151261+917432786+918043036+920847115
1082+924159702+927288756+929793993+930807420+931697958+933433849+934874990
1069+936803991+939871401+942155400+943982959+946922693+950280166+953772398
1055+957674687+960970417+962338344+961895867+961450399+961672335+961896865
1042+962774237+964668825+966464265+968074775+970023227+971300982+971296094
1028+970749582+969869717+969038627+968930901+969743238+971457684+973184698
1015+974085710+974281114+974312933+974913607+975973316+976584065+976316644
1001+975488148+974370287+972986202+971490700+969750220+968348281+968127940
988+967561878+965339821+962948693+961585456+960540210+958672054+955795759
974+952603466+949558599+947205874+946055994+945149397+943738280+942777321
961+942568052+942568252+942562167+942119591+941370693+941238628+941900348
947+942771436+943464476+943800821+944148439+945844930+949388032+953197557
934+955891715+957849444+959500650+960543701+961156645+961773877+962221440
920+962219745+962072219+962127778+961902550+960994157+959661841+958123049
907+956812377+956013207+955351088+954169290+952128672+949996886+948778979
893+948540385+948364132+947330258+945737304+944499048+944192128+944536353
880+944906314+945474770+946504256+948152470+951211801+955522553+959884276
866+964986219+971586656+977846858+981817873+983175525+983376515+984045616
853+984931167+984932962+984002226+982887257+981231463+979089103+977994882
839+978118867+977972938+977575846+979373481+982648763+981996719+976382676
826+971365718+970732526+973803826+978233177+981265576+982256858+983621992
812+986345475+988060819+987626721+987097266+987224642+987732054+990073806
799+993728026+996083245+997272724+999119534+1002407384+1006672852+1010159397
785+1012621843+1016025799+1020578736+1024584463+1027028556+1028318181
773+1029602320+1031787570+1034346073+1035397802+1035060957+1035444583
762+1036961530+1038659518+1039677134+1039680425+1039991934+1041802835
750+1043736724+1043840161+1041879541+1039152865+1037201222+1036164554
739+1035094372+1033976711+1033776818+1033943196+1032959294+1031388085
727+1030430716+1029982355+1029454794+1028014652+1026329831+1026252926
716+1027493475+1028529943+1027678605+1023760057+1018488544+1014981551
704+1014415488+1015212564+1015038805+1013350393+1012031343+1012294674
692+1011952842+1009284718+1005041694+1001342788+1001319347+1004301474
681+1006577793+1008436473+1010978018+1012236422+1011982667+1010183237
669+1006469169+1007558203+1013721351+1015881066+1016393365+1021294917
658+1027651275+1030310222+1030249775+1028030412+1025394606+1027094888
646+1030246384+1028074600+1023483559+1022527088+1023227709+1022604292
635+1025404880+1031984171+1030773845+1021554957+1018367751+1019571295
623+1013317676+1005978116+1006638140+1005396293+994774568+990668197+1002607875
609+1012942330+1009256590+1001651005+998988966+1003248947+1011816588
##END=
