##TITLE=Sample description
##JCAMP-DX=4.24
##DATA TYPE=INFRARED SPECTRUM
##DATE=24/8/2023
##SAMPLING PROCEDURE=Instrument type and / or accessory
##ORIGIN=Default
##XUNITS=1/CM
##YUNITS=ABSORBANCE
##RESOLUTION=4
##FIRSTX=4397.6552
##LASTX=599.8556
##DELTAX=-1.9287962
##MAXY=1.2932109
##MINY=0.33057323
##XFACTOR=1
##YFACTOR=1.2043965e-009
##NPOINTS=1970
##FIRSTY=0.4865123
##XYDATA=(X++(Y..Y))
4398+403946968+404664784+405184397+405331553+405662487+405989264+406045831
4384+405531638+403968669+402526157+402452344+403270970+404140050+404022117
4371+403068658+402718052+402796937+402563200+402498889+402746335+402786099
4357+402441407+401775232+401102426+401067586+401515835+401378502+400760307
4344+400532038+400310574+399751173+399506152+399544110+399437832+399885140
4330+400649749+400144043+399066687+398912157+399100686+398945810+398650458
4317+398548065+398530175+398173654+397902825+398470466+399241310+399029768
4303+398260681+397961667+397937739+397874146+397907031+397903889+397602697
4290+396782735+396112428+396473378+396968988+396886291+397095284+397531433
4276+397160486+395977916+394741824+394273384+395024729+396200272+396919870
4263+397152296+396869267+396206581+395436999+395152857+395780900+396198564
4249+395505344+394471069+393843941+393613618+393766639+394168986+394175766
4236+393652492+393164949+392836910+392736199+393008811+393462503+394423930
4222+395773056+396293138+395836452+395103194+394349647+393790567+393470025
4209+393244924+393351845+393966105+394271751+393670358+392970407+392688690
4195+392330783+391747776+391401302+391400262+391416940+391590029+392349342
4182+393404823+393837879+393424743+393051619+393165122+393278180+393179227
4168+392941134+392501150+391827676+391139999+391031394+391513420+391800655
4155+391601288+391369356+391277950+390948747+390466252+390192206+390186218
4141+390532073+390860063+390535537+389781841+389456870+389690558+389866270
4128+389795525+389661780+389698105+389928775+389898339+389501955+389465259
4114+389898834+389639881+388590042+387946929+387798932+387544087+387224585
4101+386954175+386749933+386945069+387224659+386863783+386376562+386488853
4087+386790490+386516344+385696852+384893444+384052177+383265694+382982888
4074+382955520+383158105+383703896+383821359+383240554+382935601+383455708
4060+384080509+384200694+384084172+383854938+383455436+383188417+383065362
4047+382678257+382141002+382061572+382553099+383151671+383352968+382892991
4033+381968953+380984884+380168634+379981713+380724893+381448277+381161858
4020+380271596+379596984+379395736+379570953+379872787+379948357+379785934
4006+379554250+379066113+378234966+377429183+377300758+378067272+378811219
3993+378740251+378372348+378258894+378016991+377522965+377419334+377777414
3979+378004000+377989079+378029759+378101692+377853355+377216453+376653934
3966+376631986+376786392+376405597+375817170+375706215+375881680+375887445
3952+375586724+374843445+374252272+374783514+375116601+374125554+373782693
3939+374600527+374989067+374552201+373536113+372928064+373892114+374947620
3925+374444686+373825971+374247149+374197413+373095708+372601905+373358892
3912+374428354+375258709+375265044+373589735+371190250+370314464+370647798
3898+371738516+373693588+374776882+373152448+371396620+372070218+372007911
3885+370496114+370349354+370547434+371441234+373313535+373631207+372558231
3871+370914496+369378672+370159562+371004789+370768082+371751457+373535148
3858+374679215+373125501+366462074+364216402+368906297+373055721+374441617
3844+373440228+372040202+370901134+369091882+368729002+370142984+371522718
3831+373200081+374901941+375476313+375429373+373797070+370118981+370161394
3817+371862016+372008975+373882859+376844938+378063585+376277420+374753597
3804+375073991+373982184+373522726+374821670+375874850+377619246+379645087
3790+380498628+380301413+379731471+379586740+379983618+379271469+378403230
3777+379969069+382168592+382937012+382022475+380936261+381190512+382182375
3763+383379445+383366034+381651603+381518749+383756800+385245733+383333148
3750+381679639+384558922+387188433+386501720+387338533+389756973+389957850
3736+387181158+385939597+389500817+395253295+400311341+403217670+405245961
3723+409198492+415819779+424956974+435640559+446614695+458243870+472832105
3709+490444330+508136578+524353800+537648734+546835418+554392026+562132141
3696+569061820+573857028+574895461+571104289+566326649+564666731+563939487
3682+562094628+558667846+553808103+544842190+535990746+534428272+531379637
3669+525820166+524773964+525360312+525322107+525662295+526521230+526354551
3655+526298776+527507749+524820236+514089934+507588238+510294308+514094338
3642+515400161+514861372+514231671+513416088+512474259+512506180+510442083
3628+505335043+505385769+508515022+510024444+508023050+503988738+502551967
3615+502924175+502609325+501219767+498460693+496067493+496322165+497291461
3601+495851324+492025263+488311839+486234727+486965138+489552336+489813095
3588+485716971+483302392+484986510+486988002+488100520+488464068+487956952
3574+487150871+486980381+487178536+485304824+481652916+481529341+484072196
3561+485862766+486743922+487735587+488458773+488754075+489661361+490935114
3547+491514336+491808599+492547473+493610749+494770480+495732253+496799340
3534+498031621+498245563+497318482+496754156+497200648+497776455+498295349
3520+499609635+501509625+502820495+503059677+502707561+501950376+501400452
3507+502221230+503109908+502737997+503222496+505438277+506921519+506408019
3493+505788117+506290630+507058851+507495643+507641092+507237161+506381641
3480+506550597+508360665+509770564+509059602+507563048+507327083+508286085
3466+509318282+509823913+509814213+509525394+509219204+509458881+509910321
3453+509426465+508252977+506960368+505978056+506788442+508962850+509866078
3439+509319569+508912668+508420745+507693749+507816927+508871840+509858605
3426+510016080+509691678+509843907+509936204+509090038+508506213+508961267
3412+509356735+509409688+509685492+509872858+509945162+510314945+510589017
3399+510478062+510263823+509936501+509136409+508121979+507963316+508789786
3385+509607249+510174099+510869274+511045010+510326179+510297773+511458592
3372+512135010+512014603+511961996+512022373+512409230+513208927+513523826
3358+513663733+514696523+515772419+515907772+515475286+514728592+513905883
3345+513680262+514065684+514393649+514572503+514753980+515045967+515564812
3331+515832004+515843139+516014965+516081578+515966565+515660474+514823661
3318+513785773+513629783+514756455+516075689+516615517+516634620+516668075
3304+516815949+516824956+516447947+515508394+514466794+514431013+515372595
3291+516130374+516528317+517377552+518487447+519127343+519497077+519527611
3277+519029700+518895040+519503609+520157708+520735495+521766751+522858632
3264+523290228+523973030+525516253+526573145+526597196+526286800+526025051
3250+526676924+528710337+530659123+531177523+531094183+531581355+532154193
3237+532174384+531659647+530613197+529871403+529992058+530413558+531283776
3223+532490620+532762514+531988206+531290210+530711087+529830921+529411797
3210+529780838+530162449+530291171+530169081+529668695+529023603+528624225
3196+528451409+528079696+527577726+527242536+526952133+526552260+526059298
3183+525657792+525017006+523951800+523155914+522625934+522283963+522240462
3169+521708453+520465630+519070628+518120336+518041797+518116476+517437731
3156+516622545+516349612+515827649+514730374+513956362+513788990+513703324
3142+513242480+512218251+510794347+509437650+508235012+506911225+505489004
3129+504138146+503303461+503214826+503015928+501897225+500368453+499498284
3115+499456515+499675356+499883904+499807097+499019476+497906711+497231826
3102+497044608+497051289+496782117+495916106+494999763+494574651+494528725
3088+494455976+493991519+493357810+492995351+492661694+491828246+490663270
3075+489741731+489294299+489331664+489561640+489495968+489213978+488955100
3061+488485497+487799576+487273209+486555962+484983046+483180995+482091242
3047+481623767+481330691+480918149+480388070+479711107+478622047+477218731
3034+475776714+474576551+473771658+473012939+472225961+471692467+471104783
3020+470114405+469008518+467819787+466408454+465158603+464164662+463277617
3007+462635148+462059539+461249945+460288518+459432107+458708079+458018892
2993+457555030+457357568+457091316+456516053+455882789+455646874+455606392
2980+455293075+454686882+453931033+453071999+452144571+451311420+450644652
2966+450028610+449212780+447957337+446442868+445064148+444174827+443906942
2953+443744419+442978276+441782567+441042258+441006279+441044287+440493224
2939+439370364+438411906+438001393+437711534+437024970+435763144+434247734
2926+433139423+432700206+432380555+431423978+430030560+429055424+428421665
2912+427724461+427345423+427382688+427414955+427229717+426810048+426200143
2899+425597018+425306764+425207637+424828500+424092744+423454382+423248606
2885+423081530+422553629+421922047+421408349+420912022+420409360+419975834
2872+419592095+419073596+418304484+417614852+417247642+416759183+415770883
2858+414597420+413843229+413635844+413372364+412509915+411352807+410732411
2845+410847547+411059510+410948777+410664041+410377771+410063613+409754083
2831+409477438+409149918+408833855+408538009+408284005+408276805+408165504
2818+407446103+406502987+405898749+405543416+405177913+404883156+404750376
2804+404748594+404940118+405157821+405025858+404480561+403801494+403272999
2791+402948820+402679524+402314739+401949435+401742099+401578414+401430416
2777+401410546+401224912+400728412+400373104+400223374+400007527+399880043
2764+399959993+399993027+399802567+399559006+399402397+399196992+398839458
2750+398435329+398260557+398443049+398675178+398515130+398006801+397733398
2737+397965156+398270579+398101994+397478207+397074845+397223684+397368168
2723+397165881+396935508+396850535+396896090+397077616+397124978+396776499
2710+396328869+396217271+396353366+396508416+396674378+396769991+396760811
2696+396685489+396486319+396311474+396403177+396636049+396646392+396311053
2683+395963119+395886683+395884134+395721117+395518533+395567106+395840955
2669+395983731+395935677+395931223+396087882+396336342+396487086+396431263
2656+396214846+396023645+396049428+396170924+396228579+396318947+396406147
2642+396495648+396752547+396902103+396839301+397136286+397907674+398562244
2629+398750154+398643876+398506395+398517580+398866083+399479997+400072902
2615+400592811+401112423+401559534+401910585+402315754+402783427+403155784
2602+403472861+403889560+404306111+404596143+405048054+405828400+406612458
2588+407195490+407517343+407584030+407728340+408098297+408453457+408787534
2575+409315138+409845118+409908860+409637734+409637412+410031618+410524383
2561+410923860+411104223+411040431+411019126+411284463+411576103+411621336
2548+411575039+411544380+411439612+411353649+411486107+411761267+411922156
2534+411899713+411907235+412176061+412590731+412905581+413109353+413267521
2521+413435883+413602117+413621666+413472728+413290508+413182300+413296521
2507+413732917+414209746+414277299+413925010+413693598+414065361+414710255
2494+414954336+414833731+414752569+414777239+414766425+414703426+414639263
2480+414499085+414475726+414758532+414933996+414832469+414736658+414601181
2467+414299371+413969179+413708272+413463028+413197964+412894545+412576453
2453+412347516+412221665+412093092+411799670+411370549+411096824+410925320
2440+410587283+410242294+409956123+409488054+408944216+408467833+407912564
2426+407376720+407120514+407067857+406913228+406494772+405939775+405483856
2413+405197462+404948580+404569295+403997373+403336345+402813046+402486541
2399+402126408+401615135+401070630+400581676+400234955+399959795+399459261
2386+398693984+397745078+396387044+394510338+392307177+389762911+386900529
2372+384135071+381519467+378834751+376357890+374444240+373164276+372523440
2359+372385662+372588964+373677108+376310306+379609109+381655661+381250419
2345+378801346+376447861+375603426+375714950+375978876+376109429+376130536
2332+375979272+375810935+376189923+377121731+377962800+378615761+379414591
2318+380338605+381245495+382075701+382662544+382915335+383134201+383636096
2305+384380068+385084844+385467643+385590500+385750202+386009377+386140474
2291+386069457+386124439+386512286+387007797+387263656+387171532+387015913
2278+386976297+386921537+386930074+387125210+387331011+387439145+387620053
2264+387989737+388416953+388717526+388811456+388896281+389261437+389760833
2251+390087165+390307738+390668144+391178105+391662778+392059434+392468339
2237+393048328+393784505+394442043+394905757+395318695+395827618+396466004
2224+397231256+397997695+398702348+399490414+400390648+401349378+402347452
2210+403336048+404394004+405659518+407093493+408559462+409956271+411303986
2197+412795864+414515094+416314869+418129886+420082335+422207105+424304805
2183+426362319+428648771+431097250+433400677+435705340+438274722+440845885
2170+443228692+445724631+448426149+451042248+453375071+455454856+457425121
2156+459307344+460829682+461794178+462369638+462747390+462931984+462880812
2143+462509247+461602605+459946497+457585961+454773587+451639187+448100856
2129+444157060+440065935+436042857+431939507+427547487+422915890+418246582
2116+413851543+409841580+405938464+401976208+398113129+394486064+390934519
2102+387332422+383909796+380804867+377899108+375111479+372397119+369714729
2089+367074850+364498268+362048799+359852170+357850776+355807391+353673787
2075+351646906+349869600+348251797+346595863+344803561+343032862+341433890
2062+339836328+338137487+336424987+334749776+333199848+331829764+330566452
2048+329284607+327915933+326532462+325219290+324032267+322970847+321880376
2035+320739006+319702950+318736771+317717962+316680915+315675863+314682540
2021+313714382+312712250+311618341+310676437+309970820+309209799+308314985
2008+307427197+306609784+305852624+305052309+304133838+303243873+302460608
1994+301489802+300285136+299372356+298820824+298256449+297676484+297126239
1981+296524400+295912515+295315106+294620376+293820111+293038330+292223020
1967+291461232+291077245+290848753+290357796+289677591+288989419+288396142
1954+287936115+287406209+286707817+285944990+285082987+284077118+283407084
1940+283539839+283828287+283675315+283306843+282952946+282591526+282217660
1927+281742934+280938339+280143220+279968053+279947193+279817235+280079280
1913+280404969+280239848+279876745+279888450+280176452+280405142+280556678
1900+280579393+280283126+279690493+279205919+278893493+278414463+278165680
1886+278391029+278581315+278629246+278571640+278399492+278232565+278076080
1873+277661088+276424056+274716257+274472102+275676966+276641239+276951264
1859+277039281+277172135+277379866+277531525+277524424+277329164+276922313
1846+276160377+275632277+276653834+278262209+279222201+279878205+280620519
1832+280761588+280107291+280229307+281414474+282590190+283791491+284851872
1819+285330779+285371608+285180951+284564463+283665640+283239340+283243670
1805+282974177+282033337+280599288+279626132+279443690+279117209+277898983
1792+276878911+277888367+279483454+280087495+280009327+279878477+279871747
1778+280261846+280592285+279806174+277971930+277750490+279449579+281084208
1765+282026161+282126303+282184700+282919095+283637258+284293881+284373682
1751+282757117+280696559+280702077+281744963+282277715+282131252+281850474
1738+282080674+281608324+279528638+279395339+281484081+283408519+284533434
1724+284846156+284810697+284223681+281842507+279622222+281755406+285349189
1711+287730190+288387902+287515555+286774999+287397721+287490934+286605374
1697+287898478+291928658+296461178+299362483+300829443+301762612+301676748
1684+302008845+306644674+312325740+316681484+319768646+322707316+325747192
1670+329178577+334838164+341074029+345895516+350540946+356288797+361803654
1657+365675171+367749215+372420601+381009604+386954349+392974564+402432524
1643+411749785+419146345+424578480+428312541+433856126+443094675+451325228
1630+457698697+463036753+467771684+472288268+477518586+482425344+485515104
1616+488402157+493022124+497178675+499588651+501075951+502839103+504844456
1603+506701391+508339385+509641051+510403185+511070992+512326286+514077314
1589+516287849+518975757+521818270+524783763+527982598+530975904+533675095
1576+538536372+545775260+552138287+558504680+566535197+575089508+583259486
1562+589641665+593885415+603038447+617906148+631077803+643432045+654728604
1549+665543533+675014929+682538676+688541966+695981879+712146247+727538484
1535+737843031+747720733+759069008+769144964+777736887+785679709+792539806
1522+800357074+810819095+821108499+830999464+840428547+847684261+851773159
1508+852495900+856353980+867587836+876911209+883215444+886718687+888645797
1495+892348878+896176770+896955037+896135892+898877100+903658452+907454374
1481+910039988+911850600+911847730+908830174+904502045+903713978+907616303
1468+911429546+912562255+913198588+915439559+916128548+911883758+911033533
1454+919998704+928832035+934981962+940278595+946730703+953858339+960791482
1441+967153223+971460666+973702428+978487937+985826001+991503603+996669387
1427+1003163857+1008538090+1012332726+1014835495+1014006649+1013584209
1416+1018530756+1023603797+1025116386+1024923279+1025152315+1025718274
1404+1026731219+1027180383+1024007134+1018972991+1017045584+1017452089
1393+1019164812+1020387195+1016853665+1010411455+1009579145+1013706150
1381+1016853467+1017866215+1017657469+1016361247+1016117265+1017855723
1369+1018573020+1018208284+1018364472+1017456345+1016121521+1016640663
1358+1017586007+1017698149+1016841293+1015114218+1013070412+1011830014
1346+1011860104+1012269082+1010823502+1005552207+1000183715+1000221921
1335+1003314799+1005639011+1007235930+1008275500+1008353495+1008282033
1323+1008636870+1009582511+1011296223+1014015359+1017358158+1020007910
1312+1022167521+1024992959+1028389603+1031987271+1035246038+1037425048
1300+1039432133+1042919935+1047533123+1051412088+1053276446+1054138746
1288+1055994592+1058151134+1059175165+1059553560+1059510702+1059497934
1277+1060214538+1060138720+1058653450+1057771156+1057500054+1056168299
1265+1053746000+1051161277+1049844467+1050865727+1053071066+1054700053
1254+1055457139+1055706565+1056097332+1056932017+1057459176+1058170435
1242+1059742906+1060455748+1059736571+1059398461+1060196029+1061158297
1231+1061447611+1061509869+1062129375+1063363240+1064497137+1064434781
1219+1063480035+1063599700+1065355379+1067169852+1068158152+1069130120
1207+1070583619+1071874793+1072800736+1073572075+1073741823+1073459437
1196+1073482895+1072984341+1071195504+1069611453+1068852783+1067913675
1184+1066985752+1067150156+1068676304+1070027657+1069577503+1068652549
1173+1068816161+1068181313+1065630045+1063095998+1060916592+1058384624
1161+1055851667+1052989111+1049961064+1048196674+1047421871+1045644911
1150+1042402476+1038398996+1034282284+1030783396+1027171079+1022505433
1138+1017726952+1013225313+1007887208+1001336715+993782977+985929137+979425461
1124+974246414+968522392+961604392+954718660+949087677+944283461+938962875
1111+933029414+927486918+922396952+917622726+913756529+911100542+909212033
1097+906911477+904561828+903688541+903219086+901569808+900287939+901301973
1084+903347164+904359516+904009033+902849699+902874047+905616641+908971120
1070+910142529+910159752+911986894+915570903+918872824+921447056+923611813
1057+925216947+925907519+926096271+926856327+928114639+929436893+930825065
1043+932027950+933267556+934999382+936652322+937445140+937911823+938458382
1030+938404538+937995064+938321891+939339983+940095485+940752504+941608074
1016+941922429+942523427+944368781+945719737+945420328+945009171+945369255
1003+945264041+944653641+944849024+945432007+945462394+944891486+943425813
989+941188801+939057795+937289743+935586225+933975351+932312216+930048777
976+927461679+925270296+923148000+920634245+918233819+916563558+915566152
962+914715828+914108992+914450467+915295248+915641178+915785587+916215748
949+916359366+916099547+916826940+919233205+922060920+924390378+926489116
935+928464627+930645815+933675051+936497520+937504725+937618451+938559439
922+939970377+940506741+940036890+939073929+937866293+937233029+937364571
908+937029430+935989266+935114791+934303564+933305069+932692393+932059524
895+930358679+928197089+926803868+925869907+924835385+924478369+924599519
881+923680405+922431594+922391013+922900158+924152631+927792267+933308434
868+938928134+943876264+948818555+954333139+958494192+960024993+960449017
854+960652022+960155051+958708481+956972597+955992908+956334483+957560331
841+958686112+960017075+962285661+965112089+967875963+969298185+967738185
827+963933058+960937475+960580559+962352768+965297575+968230504+970067643
814+971164522+971766113+971440276+971132750+971537968+971855986+972485192
800+974020050+975146425+976200446+979854137+985816301+991011878+994219769
787+996421149+999384464+1004692085+1011363826+1016051148+1018474437+1021922846
773+1026780015+1030238520+1030643639+1029423433+1030280586+1034186473
762+1037646859+1038901114+1040230889+1042477601+1044027603+1044118168
750+1043147685+1042651110+1043560227+1044899801+1045616801+1044095205
739+1040686487+1038302294+1036773770+1036250669+1038536873+1040070643
727+1036816924+1031113589+1027201268+1026547614+1026608882+1025601875
716+1025528829+1026076872+1025548426+1024586158+1023351204+1022670034
704+1022158811+1018995361+1015458861+1015146188+1016131815+1015992058
692+1014832327+1012925013+1010386215+1008385069+1007537517+1007028669
681+1006770236+1007604822+1010520628+1014506490+1015785193+1011079560
669+1002142598+1002694996+1017013317+1028175215+1028843815+1023566284
658+1019795799+1018920632+1019607542+1021979165+1024332971+1023715841
646+1020747972+1017712897+1017157232+1019467785+1020997596+1020364232
635+1019275767+1018997439+1018499281+1016966302+1016033926+1014629223
623+1014315759+1013805228+1004181356+992988378+994705258+1005996521+1013227293
609+1008952315+1003255214+1007888099+1019467785+1030972544+1038946545
##END=
