##TITLE=Sample description
##JCAMP-DX=4.24
##DATA TYPE=INFRARED SPECTRUM
##DATE=24/8/2023
##SAMPLING PROCEDURE=Instrument type and / or accessory
##ORIGIN=Default
##XUNITS=1/CM
##YUNITS=ABSORBANCE
##RESOLUTION=4
##FIRSTX=4397.6552
##LASTX=599.8556
##DELTAX=-1.9287962
##MAXY=1.3621625
##MINY=0.34590733
##XFACTOR=1
##YFACTOR=1.2686127e-009
##NPOINTS=1970
##FIRSTY=0.3867633
##XYDATA=(X++(Y..Y))
4398+304871074+304909719+304868537+304853291+304660609+304435226+304714687
4384+304654618+303819452+303444284+304093205+304846877+304741257+303932284
4371+303164658+303014027+303479193+304073942+304703623+305211803+305439817
4357+305705723+305734172+305261606+304860832+304700075+304334492+303727034
4344+303174149+302611350+302068707+301927778+302030837+302095347+302557929
4330+303490892+304052681+303951360+303614366+302733320+301222711+300507542
4317+301331808+302494289+302795527+302386202+301825869+301368479+301397092
4303+301787060+302062199+302409764+302734659+302564624+302045191+301735472
4290+301878985+302009319+301938396+301992992+302059310+302193637+302473498
4276+302257512+301405526+300535145+300074466+300254344+300955253+301445180
4263+301227197+300558449+300000466+300333348+301518311+302237497+302073945
4249+301878139+301755722+301094091+300254438+300010332+300076157+300061122
4236+300094833+300083181+299711725+299225016+299498464+300404858+300884166
4222+300943155+300968808+300560047+299796390+299457470+299715460+300138200
4209+300470095+300674594+300894691+301467592+302002741+301908984+301613830
4195+301322505+301073771+301293586+301673241+301766505+301585663+301451735
4182+301903041+302397196+301963415+301355417+301459628+301443818+300780895
4168+300181073+300046064+299982189+299706322+299651233+300128779+300654156
4155+300648518+300129038+299285884+298473905+298389333+298836740+299121393
4141+299269769+299356666+299232816+298890889+298654582+298828071+299197437
4128+299464189+299475089+299120782+298687119+298621975+298738308+298688223
4114+298525493+298267316+298036060+297846831+297408399+297092055+297349387
4101+297467200+297204676+297327492+297493511+297192530+296978189+297065227
4087+297177613+297039503+296750480+296645541+296557329+296402962+296420018
4074+296547979+296637625+296817621+297089565+297116675+296798569+296292197
4060+295899034+295942659+296170814+296211714+296128152+296078842+296083658
4047+295948978+295608250+295453930+295960983+296850369+297046715+296294359
4033+295567303+295420407+295372577+294875814+294332819+294369513+294728472
4020+294991184+295103029+295164179+295293785+295509395+295679665+295446084
4006+295029100+294934168+294719709+294270283+294177771+294381424+294585194
3993+294742450+294717031+294488054+294390374+294532478+294439402+294067852
3979+294036044+294229971+294018284+293678048+293657540+293619905+293493964
3966+293505029+293234729+292652338+292601454+292988110+293041672+292673222
3952+292005836+291147625+290879439+291516144+291365819+290066802+290096825
3939+291608374+292642730+292328288+290947543+290131405+290747884+291053656
3925+290168828+289865686+290460858+290025808+288889286+289261541+290921607
3912+292409853+293380568+293244573+290500136+285878215+283131242+283325591
3898+285792610+289399111+291254302+289569428+288351412+289752690+289174456
3885+286955561+286889619+286921662+287611318+289351375+289101208+287409427
3871+285346801+283762027+284785905+285407575+285008915+286722496+289326943
3858+290652811+288380096+280318279+278387138+284892230+290494780+292395805
3844+290887826+287837429+284852951+282950329+283611349+285402642+286781132
3831+288319486+289815531+290617385+291397510+290417703+286466621+285776917
3817+286938881+287381942+290235005+293604988+294204529+291504563+289626561
3804+289181245+286761516+286424358+289072219+291392106+293584056+295384182
3790+296139499+296151456+295405725+294556017+294515587+293885929+293063073
3777+294257527+296018491+296249230+294299061+292474691+292759039+293771687
3763+294949109+294785934+292533562+292059657+293852641+293409698+288374833
3750+285504174+288205268+289693184+289028242+291509825+294640142+294201616
3736+290280556+288491378+291697856+296450957+299977866+301206313+301336647
3723+302330901+304677171+308331008+312460489+315990500+318164314+323309591
3709+337917117+358444219+381465403+408349526+439469737+467218181+487218849
3696+501067136+508859545+510023013+504769014+498164316+494773660+490650005
3682+483211668+473286226+461622795+445393025+431122868+425460577+417494609
3669+409328017+408318658+408219850+405407898+401397897+397496618+392334802
3655+388256910+387266367+383446746+373889237+370072741+373306165+376141257
3642+376873692+376652632+376191342+374713785+372432190+370536780+366245016
3628+360872241+362528102+366362453+367138607+364084099+360354617+359906459
3615+360761781+360937197+360583947+359399266+358977442+360718603+362162871
3601+361328175+359535825+358491157+357672247+357265200+357925350+357400890
3588+354391792+353357414+355211313+356443448+356103353+355170531+353992427
3574+352468357+351233802+350136324+346873981+342027499+340806617+342125579
3561+342778047+342694815+342431281+341280828+339267911+337970280+337369799
3547+335952007+334210752+333670669+333562911+332606550+331080247+329970435
3534+329421238+328409788+326229349+323988911+322842968+321936809+320859252
3520+320315458+319810167+318671977+317321254+315910486+313974552+312092439
3507+311180031+310052929+308131866+307168832+307024521+306190341+304757443
3493+303218807+301540582+299957828+298721206+297844388+297107795+296261141
3480+295670668+295275602+294209157+292568495+291420673+290868492+289964729
3466+288393604+286611355+284979644+283833325+283346899+283083083+282352832
3453+281107260+279706428+278092172+276521352+275838860+275916995+275964684
3439+275722974+275191396+274598198+274355501+274307014+274148936+274101458
3426+273964734+273275900+272665835+272747282+273127219+273784081+274773425
3412+275315387+275362841+275988129+277326800+278724390+280066797+281263388
3399+282073089+282771484+283733977+284584084+285028719+285658000+286678566
3385+287685529+288722492+290023224+291353462+292364678+293235481+294269508
3372+295356109+296579012+298071674+299278649+300039251+300966929+301741838
3358+301714963+301612209+302184640+302896426+303307537+303877994+304820308
3345+305519290+305473410+305229023+305316765+305071485+304277900+303645306
3331+303072146+302101713+300969443+300214690+299996754+299724692+298839629
3318+297691361+296787152+296173468+295713870+295280253+295134039+295471643
3304+296114198+297188725+298769787+300452852+301754101+302954968+304934597
3291+307387379+309223941+310313197+310944030+311264508+311588323+311996709
3277+312270626+312193455+311790120+311578855+311561542+311205990+310654349
3264+309999484+309015449+307989739+307313520+307041036+307001639+306941923
3250+306748137+306172887+304841098+303406579+302970073+303165621+303093125
3237+302692162+302287253+302228476+302414557+302221687+301685833+301451758
3223+301562429+301752268+301881357+301522399+300626412+299844408+299342547
3210+298892909+298773828+299097290+299445442+299662274+299916998+300211730
3196+300354890+300445852+300808804+301400099+302017752+302295452+301914740
3183+301244276+300451795+299503209+298856027+298686085+298916425+299487681
3169+299920546+299753964+299326314+299139341+298924271+298450695+297981488
3156+297641652+297499125+297658331+297898467+297590862+296660553+296216013
3142+296839821+297504669+297305715+296460612+295614264+295419491+295787400
3129+295893843+295708608+295837438+296233655+296638752+297000271+297204159
3115+297323734+297375792+297210807+297019206+297093230+297278817+297176791
3102+296861457+296806626+297103496+297394069+297457756+297486510+297782040
3088+298471791+299250670+299562386+299396485+299336886+299844079+300670647
3075+301107130+300984384+300793839+300648118+300219506+299603990+299106288
3061+298671520+298168320+297735643+297397076+296911425+296344068+295844133
3047+295504297+295548157+295761958+295672148+295320331+295204398+295369241
3034+295269753+294976149+294976830+295041151+294698731+294100788+293918137
3020+294651770+295870163+296407520+295894665+295155158+294898484+295151799
3007+295588305+296061740+296720223+297515476+298414963+299746916+301608356
2993+303665744+305856237+308379496+311105326+313793992+316380139+318706651
2980+320443443+321342390+321440469+320930057+320090122+319312582+318667842
2966+317694167+316148249+314537563+313577889+313368269+313417955+313647402
2953+314332712+315213077+316108641+317290221+318574438+319390857+319673984
2939+319770231+319582459+318909129+318025076+316929876+315449360+313889652
2926+312543439+311425852+310424409+309474531+308697930+307990913+307178441
2912+306586394+306386547+306102058+305508884+304902929+304319786+303653692
2899+303197805+303023306+302711097+302286689+302120154+302140357+302212877
2885+302414298+302550881+302254928+301575961+300898473+300369996+299841260
2872+299182073+298476231+297966077+297711893+297473190+297001681+296328305
2858+295865605+295795293+295457712+294491977+293560165+293109141+293061382
2845+293317022+293600783+293670695+293578536+293472070+293469791+293652160
2831+293947126+294189682+294386639+294566823+294763405+295136388+295540968
2818+295684881+295686337+295824189+296120564+296482436+296975041+297526869
2804+297880660+298059928+298226604+298326234+298312420+298431267+298742184
2791+299021082+299309376+299529168+299516670+299492192+299601571+299850845
2777+300308822+300834105+301055565+300999325+301132243+301531796+301940628
2764+302231342+302440844+302704002+303120188+303655853+304004429+304077653
2750+304231315+304595771+305081727+305565852+305896831+306076005+306199033
2737+306417486+306771887+307167376+307669636+308334085+308996561+309499691
2723+309820287+310056899+310383814+310829130+311169389+311259387+311267515
2710+311357725+311519961+311618839+311474527+311358993+311665988+312095634
2696+312233321+312169540+312131224+312183259+312224206+312158874+312107779
2683+312231253+312380099+312303327+312078555+311957101+311973334+312009512
2669+312090700+312274996+312406199+312288316+312038102+311959920+312053677
2656+312125821+312200244+312306757+312320241+312312724+312482055+312700061
2642+312735111+312676310+312725667+312946211+313257410+313464751+313526723
2629+313599032+313666712+313735051+314009508+314392405+314572214+314589621
2615+314731936+315112272+315574855+315885654+315987187+316050146+316109651
2602+315922349+315475460+315076095+314849937+314706095+314554454+314352798
2588+314129600+313832378+313417391+313097265+312976022+312871764+312738306
2575+312646570+312502704+312221269+311943570+311778021+311609207+311475279
2561+311528160+311568167+311398202+311171926+311022540+310919527+310818934
2548+310752851+310721278+310597404+310397322+310296659+310346016+310525166
2534+310771222+310889669+310842591+310898009+311219380+311586960+311740316
2521+311792445+311917329+312031242+312104843+312168036+312193713+312288010
2507+312496761+312585678+312417780+312266327+312366286+312482853+312389120
2494+312262662+312226250+312153706+312065987+312098053+312231136+312400302
2480+312558357+312621879+312566086+312468382+312444867+312536768+312596015
2467+312561058+312651550+312941959+313240872+313384408+313388754+313446756
2453+313530646+313466748+313488172+313757344+314039320+314255728+314400416
2440+314410753+314395224+314459264+314609613+314787142+314965893+315271643
2426+315706668+316122384+316491468+316785894+316951278+317073460+317180043
2413+317216574+317288647+317569565+318064402+318529239+318745249+318761505
2399+318763103+318973404+319394217+319696771+319748125+319818812+320047601
2386+320146714+319824333+319099110+318132717+317010760+315659449+313969572
2372+311903492+309546980+307243396+305317423+303784825+302654246+302170545
2359+302531101+303668751+305554059+308431436+311932223+314383925+314290990
2345+312080552+310218618+309928656+310332884+310977764+311701578+312078672
2332+312199210+312731799+313778064+314766469+315470573+316174489+317121431
2318+318366416+319757263+320816215+321371966+321971437+322974289+324029129
2305+324704150+325026203+325323777+325749100+326146586+326398938+326585465
2291+326768891+326980860+327259123+327558929+327791617+327864067+327776254
2278+327655387+327632670+327688722+327707164+327790748+328014839+328186777
2264+328218891+328192087+328195047+328271396+328496567+328860036+329061481
2251+328958210+328822566+328908641+329110650+329168722+329097424+329129537
2237+329349117+329581853+329723322+329877148+330062078+330230868+330345838
2224+330340811+330260703+330272943+330493181+330802571+331004908+331136135
2210+331284534+331404085+331475243+331522744+331575225+331671331+331776622
2197+331914685+332228140+332620997+332816733+332829724+332896113+333150978
2183+333502819+333763440+333953584+334205161+334513189+334795963+335053835
2170+335384650+335752606+336066484+336374582+336635649+336784001+336945227
2156+337224619+337554987+337840980+338071061+338209382+338188145+338073434
2143+337970679+337816736+337519679+337162482+336870593+336612486+336171517
2129+335439598+334650312+333971885+333289934+332491439+331529039+330450049
2116+329451237+328631740+327849197+327033364+326258855+325461252+324530309
2102+323557926+322772727+322200343+321616425+320943589+320245217+319480245
2089+318629034+317815316+317177248+316779715+316522642+316097717+315392180
2075+314669588+314129247+313735285+313345858+312772463+312053888+311524589
2062+311279426+311098631+310823327+310404887+309962390+309636039+309366843
2048+309073357+308773551+308464043+308059087+307630968+307384255+307263317
2035+307076156+306825425+306623182+306401229+306020353+305590377+305248286
2021+304851200+304239044+303629073+303347215+303297435+303214649+302994012
2008+302631036+302203480+301796081+301430380+301084436+300744835+300378077
1994+299799092+299042084+298562329+298421799+298345779+298303141+298219932
1981+297980971+297683444+297444577+297186704+296839891+296421686+295841925
1967+295285680+295247623+295567820+295688757+295534625+295225376+294845157
1954+294582093+294439073+294230252+293843432+293189742+292240992+291628765
1940+292001490+292621822+292799140+292753589+292740363+292783776+292821434
1927+292633897+291918211+291099630+290896776+290887967+291023727+291788042
1913+292450071+292375226+292149913+292524917+293249694+293776245+294105674
1900+294327533+294250432+293937917+293951284+294184537+294111054+294397281
1886+295336235+296135482+296685995+297203736+297729324+298192094+298393257
1873+298083725+296742423+294975092+295339500+297618066+299402381+300066525
1859+300259865+300518560+300945152+301342919+301464138+301130457+300406221
1846+299334137+298752215+300121497+301965788+302732616+303095239+303633043
1832+303227358+301622451+301183878+302249290+303293794+304628730+306193536
1819+307216404+307642009+307747606+307444606+307002955+307416533+308644768
1805+309587786+309483246+308599898+308362464+309239469+309833630+309152972
1792+308834725+311079320+313777336+314995540+315154652+315133509+315504449
1778+316582217+317200153+315904213+313662343+314532676+318126350+321325475
1765+323068398+323303883+323474952+324700697+326173438+327694595+328277786
1751+326570712+324642531+325822443+328445589+330280977+331110834+331848649
1738+333096758+333271351+332109810+333978251+338282583+342247831+344970843
1724+346370899+347159316+346966423+344367003+342465697+346320743+351806914
1711+355640231+357155962+356766816+356864261+358473984+358759318+357552296
1697+359216074+364598880+370742147+374689166+376732505+377855825+377411120
1684+377495409+383070897+389824253+394690351+397605010+399950035+402230315
1670+404799876+410500130+417340172+421728018+424908420+429665515+434633662
1657+437390220+437052546+437777605+444831048+450544927+456007583+466022905
1643+476458218+484404829+489900233+493295681+499323132+510926799+521225060
1630+528825257+535353512+541682649+548173129+555859824+562850685+567423085
1616+572635597+580680123+587948801+593063445+597391575+602406424+607846104
1603+613357012+618875015+623977725+628537862+633245718+638569159+644143354
1589+649942792+655944261+661733174+667295717+672839937+677657172+680892545
1576+685376803+693093333+699638033+704981442+712214224+720193912+726919830
1562+731191296+730791227+730723758+742177639+755081592+765673644+774569852
1549+783553403+791541313+796405861+798291991+802970575+822007600+841354531
1535+853475212+865618444+880235297+891957834+900678650+909057515+916863644
1522+924705575+935196001+946627048+958307769+970153499+979779416+985264812
1508+986102351+991998200+1008116289+1020221089+1026589316+1029648357+1034069657
1495+1040927458+1045155371+1044483968+1043013459+1047478172+1054297259
1483+1058537857+1059442865+1059205971+1058369560+1054206015+1046134238
1472+1041891948+1046095993+1049540023+1046518474+1043270932+1045525136
1460+1046430520+1037799256+1026653590+1027833925+1032531115+1034400989
1449+1032763404+1031610602+1033225164+1034713903+1033877774+1030442859
1437+1025489042+1025400805+1030603169+1034061669+1034158551+1033199229
1425+1031509492+1030747034+1030504314+1026831942+1024062604+1026536787
1414+1029056827+1030052985+1030100345+1028900934+1026743142+1025138634
1402+1025026906+1024070121+1021056842+1017260807+1014106576+1013484882
1391+1013401438+1010503646+1005862273+1004759180+1007774432+1011046030
1379+1012102327+1010849637+1008758280+1008715806+1011050165+1012616333
1368+1012464763+1010760461+1006568820+1003721019+1006155923+1009911458
1356+1011646017+1010965218+1008287969+1005350146+1003805590+1003371551
1344+1003481869+1002765644+999391338+996382006+997283913+999297934+1000050525
1331+1000188001+1000614711+1001716864+1003364127+1005352777+1007643159
1319+1010314676+1013693209+1017307885+1020096205+1021995491+1023973898
1308+1026629628+1029614435+1032594543+1035845093+1039726450+1043964794
1296+1047626360+1050105430+1051798925+1053523524+1055235155+1056207257
1285+1056490947+1056729438+1057340796+1058682004+1061130347+1063800642
1273+1064559529+1063379570+1061866400+1059903685+1057746550+1056965205
1261+1057289395+1057667993+1058559094+1059881415+1060756165+1061594831
1250+1062993643+1064698132+1066440491+1067527046+1067030048+1065472994
1238+1064539608+1064640060+1064821701+1065084812+1066072418+1067037941
1227+1066941718+1066488697+1066762708+1067373878+1067570741+1067872567
1215+1068568214+1068703810+1068582685+1068903587+1068399729+1066937019
1204+1066338254+1066585672+1066649853+1066604278+1065994518+1064414066
1192+1062716530+1061559687+1061043802+1060914689+1060454997+1059419279
1180+1058209814+1056927711+1055259681+1053430402+1052743494+1053224329
1169+1052373823+1049109460+1045321883+1043038549+1042501708+1042135232
1157+1040889495+1039378204+1038349816+1038311571+1038805280+1038282722
1146+1036806951+1035807599+1035247267+1033993449+1031726653+1029067728
1134+1026679995+1024881631+1023244422+1021618020+1020979882+1020773246
1123+1019359870+1017745965+1017184599+1015921384+1012693763+1008870666
1111+1006590527+1006744540+1007624835+1008310521+1009725213+1011545190
1099+1013352856+1014671607+1015539779+1017470920+1019782727+1020913352
1088+1022766124+1027698893+1033354371+1035598238+1035692958+1037596097
1076+1041288954+1044504641+1046572882+1048231703+1049178809+1049292135
1065+1051199784+1055173324+1058058525+1059539558+1060808035+1061253633
1053+1060599144+1060043510+1060599802+1061907182+1062965922+1064017333
1042+1065400827+1065586884+1065168537+1066631717+1069024430+1070663142
1030+1071358695+1069969656+1067722030+1068316661+1071020973+1072009049
1018+1070594263+1069676287+1071428889+1073737406+1073741823+1071892434
1007+1070895995+1072203469+1073261363+1071529247+1069004133+1068620554
995+1069476041+1069557887+1069285849+1069489667+1070363195+1070942697
984+1070024628+1068454137+1068046502+1069469651+1070472198+1068845232
972+1065582655+1062703375+1062080835+1062998435+1062108838+1058979508
961+1056218721+1055296235+1055731308+1056013306+1055208750+1054061116
949+1053432469+1053196515+1052781927+1052546067+1053632057+1054816903
937+1053740967+1051607042+1051159189+1051775151+1051539291+1051243761
926+1052379085+1054507184+1055768049+1055528618+1055220590+1055168908
914+1053969121+1051510349+1050176939+1050777021+1050615771+1048480155
903+1045554924+1043195100+1042856438+1043916870+1044321591+1044265210
891+1044514508+1044465174+1044131963+1044097759+1044073327+1043202805
880+1041980748+1041697528+1041962237+1042541551+1043770937+1044935579
868+1045910312+1047017070+1048639901+1051822323+1055477406+1056979112
856+1057044608+1057991714+1059443241+1059734918+1059241773+1060165199
845+1063168799+1066016789+1065961629+1063893858+1063174625+1064068263
833+1063432286+1060050182+1058019528+1059346642+1060882082+1062337932
822+1064150861+1064772461+1065223791+1067401223+1070006680+1070576879
810+1070047274+1069752590+1068606553+1066795597+1066622790+1069126573
799+1071253920+1070680056+1070135322+1070810860+1070377760+1067561626
787+1062839347+1059061354+1059006570+1061610712+1064294539+1064763910
775+1062351370+1058552234+1054698315+1053089767+1054767664+1056632369
764+1057196272+1058182939+1059284716+1058699952+1056283935+1052797432
752+1050096503+1050513722+1053402117+1055875267+1055478157+1052990724
741+1052602823+1054569391+1054933893+1053057254+1051986204+1053935105
729+1056225581+1055409279+1053421099+1052184665+1051218295+1051188789
718+1051792253+1051444947+1050575835+1050985066+1053801670+1057038124
706+1055541210+1048643754+1042628283+1042221025+1046344351+1050652137
694+1051661168+1050285379+1048470664+1045560280+1042788217+1042911692
683+1046645989+1051953315+1054190605+1052845073+1052411504+1052803352
671+1048074964+1038843713+1038614148+1047763929+1054220674+1056754340
660+1055051166+1049084841+1042858412+1042364421+1048253128+1054356552
648+1056273692+1055857037+1055037540+1051430476+1046796150+1045412938
637+1041500383+1030663590+1020801060+1018804329+1024006411+1032074429
625+1034795186+1028057005+1022119341+1024995239+1035029072+1050755126
613+1057803965+1045992346+1032726945+1027915959+1030248345+1037196638
602+1040860459+1038989458
##END=
