##TITLE=Sample description
##JCAMP-DX=4.24
##DATA TYPE=INFRARED SPECTRUM
##DATE=24/8/2023
##SAMPLING PROCEDURE=Instrument type and / or accessory
##ORIGIN=Default
##XUNITS=1/CM
##YUNITS=ABSORBANCE
##RESOLUTION=4
##FIRSTX=4397.6552
##LASTX=599.8556
##DELTAX=-1.9287962
##MAXY=1.4809344
##MINY=0.31612223
##XFACTOR=1
##YFACTOR=1.3792276e-009
##NPOINTS=1970
##FIRSTY=0.57958424
##XYDATA=(X++(Y..Y))
4398+420223777+420640033+420073040+419269353+419062435+419325836+419096791
4384+418330399+417453893+416286760+415302214+415314271+415743233+415924005
4371+415807711+415339293+414877574+414667544+414806657+415342405+415998293
4357+416805611+417321004+416623672+415184494+414179204+413995104+414267538
4344+414202714+413694235+413291808+413130266+413343753+413821419+414010014
4330+413874921+413651019+413358576+412958094+412762412+413333770+414193595
4317+414161745+413299327+412701218+412586869+412064734+411075693+410664018
4303+410883858+410816008+410469892+410539167+410779102+410699066+410869812
4290+411745670+412578312+412438120+411583654+411107846+411280191+411205039
4276+410707580+410868429+411601459+411807599+411475311+411152877+411116964
4263+411096350+410526591+409636991+409268229+409476659+409499089+409171814
4249+408884471+408680794+408658625+408894886+408629411+407654891+407042477
4236+407187208+407830823+408355897+408086056+407736828+407714053+407365128
4222+406874670+406541777+406051190+405895180+406618875+407123767+406623628
4209+405944749+405802914+406096523+406326216+406353226+406378291+406015407
4195+405087431+404604665+404930643+405028916+404841013+404907739+404668279
4182+404110880+404097699+404702074+405227364+405137215+404764218+404456823
4168+403913167+403343796+403300018+403792464+404389882+404609981+404440358
4155+404265463+404327435+404230458+403496435+402672868+402572737+402633196
4141+401834609+400936883+400909225+401051708+400915535+400836666+400887574
4128+401079150+401334557+401386329+401290520+401274098+401132954+400668556
4114+400258090+400316778+400436918+400073299+399603757+399443729+399584310
4101+399896632+399991405+399608338+399046920+399050334+399626489+399991794
4087+400142012+400256405+400011457+399438456+398728418+398220415+398284374
4074+398162937+397329085+396983228+397507351+397867772+397906624+397817426
4060+397480557+397325499+397650742+397929269+397636913+397048268+396658720
4047+396260182+395946866+396435034+397214606+397240233+396697052+396182091
4033+395827763+395604293+395458267+395224684+395033411+395132073+395120275
4020+394959684+395333372+395985804+396131744+395851100+395414921+394857694
4006+394544379+394560930+394361964+394017144+394276829+395011975+395227796
3993+394822517+394569185+394419009+393878075+393151010+392510592+392073549
3979+392257736+393056799+393515277+393149238+392651995+392262360+391826354
3966+391874324+392350391+392571743+392831298+393504343+394006556+393664934
3952+392660854+391688106+391182696+391368438+391293026+390275333+390026150
3939+390931395+391840097+392248920+391555044+390703258+391292853+392092435
3925+391543765+390655331+390665617+390403944+389275100+388808195+389314124
3912+389914048+390739473+391530541+390249361+386818013+385211719+385791116
3898+386883399+388904005+390541673+389444074+387847547+388766319+389038277
3885+387956063+388194355+387615521+387027870+388362941+388823493+388090637
3871+387242221+386505908+387229213+387278047+385929623+386135331+387536997
3858+388713638+388039383+382017369+378496694+382630041+387396329+389672082
3844+389392604+388229533+386667665+384370348+384026435+385197545+385486832
3831+386084682+387445898+388144959+388663421+387595901+383290986+382275195
3817+383964723+384719663+386882794+389599609+390212022+388242109+387390927
3804+388192843+386634864+385216689+386113982+387310243+389145193+391060222
3790+392039625+392260415+391614466+390631822+390359345+389554232+388208876
3777+388511949+389741919+390385275+389963098+389486253+389683275+389798575
3763+390273734+390123084+388138952+386993427+387519322+386801678+382414912
3750+379601294+382684882+384809120+383223094+384190353+387331203+388315965
3736+385240631+381713863+382181892+385169800+387705107+388103299+387274417
3723+386902803+387243734+388570464+390476720+391549513+389598788+385559608
3709+385589686+388865153+391625011+392286172+391825274+392954247+395233889
3696+397177095+398175600+397090922+393898992+393252394+396142073+398679887
3682+399032313+397950358+396611225+393430920+390866312+391773415+390554984
3669+388524828+390521924+393291159+394328429+394437462+394830555+395294910
3655+397093515+400638780+401487930+395384540+389784530+389716292+390405630
3642+388925180+385349146+381348126+377599271+374301245+371778082+366751288
3628+358728029+356406359+357382068+356616065+352455967+347211300+345075373
3615+343932959+341855308+339550882+336080576+332586047+331408261+330477411
3601+327826824+325286979+323965284+322092412+319970271+319216131+317985513
3588+314252497+311348061+310843838+310458935+309517087+308240487+306763971
3574+305431601+304395585+302928965+299216260+294161981+292654522+293715085
3561+294178879+293993720+293729757+292675914+290894055+289708987+289146553
3547+288054529+286508975+285735452+285984549+286059875+285015215+283839784
3534+283382235+282528872+280723503+279205327+278847369+278759165+278316936
3520+278102477+278064231+277727125+277134872+276302640+275186610+274356928
3507+274281387+273963555+272682958+271582226+271277316+271065903+270699086
3493+270431320+269957543+268954544+267717271+266917236+266758698+266738689
3480+266846124+267150343+267219877+266726632+265698114+264741485+264173217
3466+263709445+263124668+262401752+261788582+261449574+261519001+261874106
3453+261846859+261180101+260094646+258960616+258406782+258518041+258776473
3439+258824421+258749398+258582152+257843786+256631081+255752285+255402495
3426+255437327+255559693+255205797+254558638+254358527+254626487+254768927
3412+254482859+254046659+253932396+254280457+254777441+255095856+255223343
3399+255321486+255416994+255359128+255194496+255346098+255913178+256322022
3385+256602688+257481139+258569382+259107637+259608812+260534671+261522242
3372+262451039+263275103+263892551+264728153+265980011+267483970+269323371
3358+271281421+273004982+274489471+275785259+276937418+277957120+278702617
3345+279284217+280374750+282081176+283293167+283306478+282999817+283249390
3331+283530380+283547320+283665883+283607196+283271127+283095562+283206411
3318+283419099+283439626+283234696+283043574+283042212+283461580+284247354
3304+284715837+284562831+284479618+284943671+285392772+285254783+284960093
3291+285258867+286277424+287649509+288785829+289370606+289818323+290413234
3277+291061949+292046473+293373765+294553604+295410036+296007043+296570817
3264+297052156+297059784+296914146+297135218+297530211+297835619+298236879
3250+299113255+300230453+300899630+301333000+301883161+302156782+302288397
3237+302523837+302572801+302462514+302495055+302949255+303837754+304791659
3223+305352235+305423217+305405153+305385187+305434475+305846258+306133040
3210+305875408+305557230+305554529+305729640+305844184+305918191+306325113
3196+307110001+307611241+307632439+307914423+308783301+309478862+309525125
3183+309670590+310205042+310452345+310536875+310969143+311629915+312197967
3169+312310826+312224977+312470530+312819607+313166026+313603458+313820208
3156+313667137+313519943+313880862+314498590+314829128+314876989+314774027
3142+314772061+314888118+314783319+314624500+314787857+315143891+315308263
3129+315231144+315123947+315086133+315186416+315432617+315698438+315865706
3115+315869055+315725664+315501352+315266257+315095749+315052079+315105386
3102+315122197+315265825+315781046+316335658+316621531+316679722+316573670
3088+316589054+316787826+316896947+317038565+317521158+318237225+318807027
3075+319037022+318900438+318525346+318214731+318069179+318109932+318349024
3061+318511452+318549071+318704692+318984731+319324581+319524607+319410819
3047+319371255+319576509+319418576+318705470+318212808+318276983+318329923
3034+318120628+317950573+318092473+318504667+318932678+319182682+319210383
3020+319143701+318994476+318719666+318539261+318575001+318760613+319057572
3007+319261551+319236399+319330740+319705789+320048751+320386570+320898723
2993+321522934+322375304+323399738+324030756+324178296+324487700+325192574
2980+325964951+326612607+327011404+327067239+327038803+327162898+327246261
2966+327115944+326880697+326551716+326027593+325532921+325480522+325861060
2953+326215474+326293587+326365109+326663170+327035929+327162746+327009070
2939+326974411+327090100+327080658+327202375+327639915+327911441+327661134
2926+327236019+326898438+326408239+325789948+325368722+325246616+325290912
2912+325478729+325832322+326040450+326030337+326050800+326160914+326504027
2899+327001573+327301534+327345485+327250885+327335545+327825117+328388394
2885+328658559+328768176+328952860+329137327+329319569+329547943+329641765
2872+329514905+329322572+329387569+329721002+329924138+330007804+330199165
2858+330346034+330321466+330141450+329694942+328983932+328445980+328557909
2845+329111397+329651964+330195534+330834958+331450958+331866652+332081284
2831+332354625+332808047+333312572+333722583+334016409+334232705+334352024
2818+334604664+335264183+335984399+336311522+336414030+336709865+337290536
2804+337839098+338128256+338341030+338581527+338726494+338783107+338924186
2791+339257208+339619898+339803004+339948491+340358502+340975777+341553791
2777+342006521+342152721+342035108+342056954+342175063+342315753+342702125
2764+342998695+343034564+343413935+344215850+344816812+345046634+345341432
2750+345825667+346146459+346273384+346521789+347052524+347726369+348215531
2737+348397556+348500367+348811997+349320692+349776880+350223409+350859591
2723+351561764+352169294+352619021+352820083+352965786+353393083+353997027
2710+354387137+354565403+354821004+355132699+355391195+355799499+356475116
2696+357064560+357288268+357374246+357538293+357679523+357610464+357422864
2683+357469429+357679264+357709602+357735726+358068424+358507952+358696740
2669+358606981+358547300+358733366+358949943+359097720+359408875+359757584
2656+359918974+360151454+360506214+360636705+360658421+360935651+361355365
2642+361659216+361890443+362173400+362569063+363055329+363463504+363858628
2629+364389881+364817157+365019840+365228271+365679186+366333346+366909804
2615+367413097+368015311+368677942+369236465+369615382+370043177+370649583
2602+371222195+371679506+372161364+372794089+373582953+374340442+374838636
2588+375062797+375169238+375366000+375773267+376270251+376687415+377019789
2575+377385007+377811073+378174822+378499114+378876994+379191952+379395932
2561+379659247+380061069+380549236+381039219+381427298+381812006+382365732
2548+382937912+383295740+383501318+383777209+384172635+384517325+384778739
2534+385147630+385701702+386303527+386740959+386941265+387073290+387331203
2521+387734451+388107707+388452830+389052106+389688590+389905967+389950263
2507+390174338+390466607+390714926+390967221+391264071+391595538+391901031
2494+392057387+392082582+392210630+392425889+392474939+392411066+392423944
2480+392408171+392314651+392389458+392585486+392601908+392457696+392309076
2467+392244080+392279214+392272170+392005139+391545710+391313338+391323580
2453+391257762+391084984+390822577+390571103+390331428+389793173+389062477
2440+388576428+388330831+388047594+387698236+387383754+387043298+386655910
2426+386368135+386204909+385989347+385584976+385017853+384439450+383946140
2413+383452571+382964187+382618675+382305922+381819656+381158149+380398844
2399+379712878+379242213+378881662+378478284+377949666+377303631+376632271
2386+375802309+374555226+372884713+370727242+367892059+364567629+361159359
2372+357823540+354508531+351345619+348641273+346370663+344383917+342956926
2359+342521547+343301379+345191580+348006841+351413404+353801561+353404946
2345+350619764+347881515+346402535+345911148+346268587+347005635+347464783
2332+347533756+347635897+348204986+349107422+349783600+350389423+351535834
2318+353125188+354603454+355645370+356334772+356953365+357763492+358783237
2305+359652894+360134752+360484628+361000864+361644933+362201490+362576194
2291+362920193+363373572+363933261+364499736+364861367+365046289+365316993
2278+365665314+365959615+366253570+366592080+366929251+367222039+367503721
2264+367911420+368463979+369024447+369534568+370002122+370455328+370997472
2251+371643075+372257779+372816345+373402094+374044024+374709982+375340589
2237+375950583+376600335+377323640+378158961+379126437+380106445+380904601
2224+381541086+382179039+382943919+383925180+385015649+385929753+386645668
2210+387478440+388510826+389556868+390611251+391747571+392882898+393920167
2197+394934532+396046004+397243172+398476599+399746154+401068735+402491059
2183+403980065+405329354+406548000+408019806+409849267+411548778+412882596
2170+414352284+416240044+418185842+419954931+421621381+423282819+425019971
2156+426712351+428199931+429547966+430636576+431386027+432118667+432914921
2143+433599981+434119696+434314038+434063169+433640820+433257926+432666775
2129+431647311+430266777+428731444+427198919+425530265+423522106+421281185
2116+419034042+416771557+414359501+411756345+409032529+406326432+403704347
2102+401118607+398440427+395680353+393027369+390496513+388003989+385494525
2089+382948889+380477930+378122098+375845265+373697864+371649774+369525925
2075+367253976+364955967+362886182+361135871+359366566+357429843+355654834
2062+354052084+352303069+350485859+348831142+347246348+345613411+343905344
2048+342165188+340517796+338931295+337362556+335898420+334510086+333040225
2035+331529006+330178270+328993871+327848929+326588903+325094387+323530618
2021+322159462+320890533+319582689+318450085+317481399+316339914+315015432
2008+313786262+312756663+311724493+310519092+309290030+308255894+307335070
1994+306185677+304730811+303480919+302638165+301804162+300944877+300190240
1981+299399410+298526058+297640671+296811271+296036301+295135183+293951930
1967+292741019+291938045+291396160+290753452+290019796+289226524+288348052
1954+287510029+286769891+286003067+285131121+284181363+283071858+282030592
1940+281605887+281486783+281112144+280470323+279741572+279095126+278550951
1927+277974320+277070264+276001339+275410987+274970443+274442755+274352758
1913+274293487+273664738+272869175+272590865+272692617+272661890+272435136
1900+272171086+271770345+271096133+270449946+269943628+269339836+269090480
1886+269329702+269398631+269231321+269043936+268847066+268636669+268359914
1873+267845709+266609193+264873380+264502285+265623717+266534991+266646790
1859+266336046+265990578+265780246+265680438+265478685+264962708+264175205
1846+262972289+261753599+262003149+262935793+263170520+262990763+262838470
1832+262028755+260240608+259165784+259360212+259558314+259791119+260152015
1819+260151994+259768538+259230564+258401466+257376492+256908355+256929898
1805+256737760+256008015+254758058+253791361+253649958+253475949+252286451
1792+250892045+251342377+252528720+252725050+252077977+251320142+250690205
1778+250409128+250027920+248497406+245983749+245347049+246840398+248268793
1765+248870078+248383791+247593328+247619754+247921358+248303993+248176138
1751+246272648+243861349+243680749+244636016+245037169+244745504+244334283
1738+244369655+243681160+241332891+240908078+242925356+244935265+246003197
1724+245952980+245482077+244489406+241464505+238343038+239646756+242463701
1711+244099339+244142382+242649681+241070592+240683766+239270431+236268607
1697+235728473+237950205+240752954+242182257+241910624+240839516+238466679
1684+235426544+236566624+239250249+240557532+239900087+238412659+237429539
1670+236373211+236649275+238370243+238771416+237695404+237563379+238110925
1657+237518045+234325639+229202366+229368337+230583721+229999290+231331378
1643+234431799+236334144+236628704+235443226+234809744+238430637+243008352
1630+246180598+248482042+250808530+253475236+257273508+261277164+264024640
1616+267309745+272741969+277896013+281830631+285289291+288961589+292619863
1603+296297714+300215608+304049793+307496914+310844098+314502674+318319810
1589+322128541+325960954+329824050+333722475+337481054+340437090+342254797
1576+345312823+350807408+355396878+358927319+363523056+368894194+373687147
1562+376984438+377843398+379811712+387692877+395713716+402643827+408615149
1549+414168832+418614199+421216491+422355750+424814220+434756051+445041190
1535+451601070+458112159+466147043+472922441+478017690+482670925+486881153
1522+491787288+498888794+506735516+515362890+523832224+530272353+534092169
1508+536059273+542874343+554866037+563774229+569803331+574206346+580052773
1495+588530232+595883125+601093241+606606906+614699699+623216701+630453559
1481+637254498+644102326+649843134+653547951+657155015+665162845+675467648
1468+683843851+690555981+698130054+706200115+712158516+716391433+724681075
1454+737128567+748713297+758465929+766578774+775179701+784882202+794267931
1441+802862807+810410129+817349488+825467952+834525844+842600573+850108309
1427+858164110+865440640+871375142+875661733+878480451+883719176+892129088
1414+899163436+902519501+904180204+906220688+908041204+910349455+913725140
1400+915142278+913850034+913714595+915804432+918422542+919056866+915664586
1387+911138146+911911020+917620972+923345704+926628561+927668855+926762790
1373+925673575+926469526+927895999+928478636+927867476+925566053+924333102
1360+926454401+928130488+927349490+926283352+926800820+928158752+928944331
1346+928573193+927327968+925310906+922596425+921158631+921798918+922883379
1333+923142589+922067376+921288106+922602994+925340293+928237837+930798815
1319+932847424+934806058+937013529+939424806+942526243+946085164+949513226
1306+953091335+956721476+959594645+961794856+964490236+967161760+968963520
1292+970825004+972651742+974585138+977256922+978601889+977589425+977005405
1279+978531014+980164405+979620143+977564273+976763568+977627974+977480089
1265+975747302+974132148+972912075+972498585+973818573+975489994+975942206
1252+975571672+975091629+974982206+975366223+975765539+975676255+975407797
1238+976124923+977811814+978951419+978777691+977764968+976776187+976379465
1225+976460192+976692262+977072303+977727889+978316750+978695927+979868548
1211+981774718+982960737+983353224+983664811+984408644+985570548+986210577
1198+986106340+985846958+985850847+986130973+985889569+984803465+984014860
1184+984262574+985028534+985355506+984365255+982647680+981897019+982392620
1171+982702824+981971178+980679107+979414781+978696704+978115536+976746973
1157+974696549+972243006+970334157+969738555+969071646+967021135+964093513
1144+961478256+959571049+957694785+955474004+953048983+949499138+944506485
1130+940009605+936425446+932462802+928881841+926397874+922976207+917380691
1117+911519657+906612657+901721043+895696219+887613020+879196280+874059631
1103+871860716+869432757+865438306+860146858+854659468+849920492+845384805
1090+840105716+834421002+829571739+825174083+819221776+812110331+806584306
1076+803180012+800026457+796302020+792491409+788205683+783261690+779026353
1063+775951884+773104730+769925159+766867284+764935531+763548990+761292771
1049+758545187+756311095+754720920+753399376+752241015+751574712+751272719
1036+750871156+750373567+749690582+748426861+747375331+747973612+749482368
1022+750035532+749843653+749871917+749968288+750285320+751303921+752608351
1009+753592811+754272598+754927492+755649977+756724239+758361778+759798968
995+760405893+760378840+760001651+759637773+759255398+758380188+757103934
982+755894406+754596112+752713798+750064919+746726400+743173270+739901130
968+737056310+734571998+732308605+730513673+729543907+729340187+729587123
955+730181515+730810048+730962601+732032628+735655940+740445479+744699139
941+748562214+752322521+756272546+760672017+765163711+769470008+773587279
928+777450267+780618862+782844311+784963448+787288640+788989188+790050572
914+791012905+791293636+790414969+789521263+789126269+788181654+786202191
901+783144229+779329643+776220168+774265597+772652259+771130798+769185907
887+766895893+765434329+764639415+763797222+762970760+761933318+760647989
874+760102171+760802702+762609993+765647470+769126614+772336869+775807197
860+779640193+783450631+786791311+789788165+793557720+798297646+803225303
847+808198077+812803774+816197869+818960320+822375677+826898746+832442662
833+837404286+838700160+837147756+837477926+840626468+844349177+848067738
820+851746540+854760853+856886214+858524444+860329488+862831606+865638396
806+868178630+870882221+874302591+879132752+885591810+891603495+896152494
793+901727525+907600488+910943415+914038023+918695062+924124023+929811762
779+933899992+936215503+939387554+944417460+949679781+953845626+956449388
766+957172132+957199271+957306101+956948619+955985854+954656012+954725676
752+958174050+962517946+963446138+961809636+960353863+959362230+959237336
739+959886872+959776412+957967392+954426017+950790258+949142433+948678294
725+948566105+948507937+946807735+945187309+946422594+947567039+944067324
712+938657032+937930831+940620419+941422940+940053685+938494108+938139823
698+938672330+938147602+937685451+941262090+947057350+947804813+943971730
685+940641249+937116988+935149884+938393760+944068275+949654283+953658415
671+951920701+944601560+938297994+936143505+937823742+944874080+951020426
658+951387330+949212270+945689478+942002293+941002448+945224042+949206134
644+944636133+936723636+934742357+936184128+950781269+1011026823+1073741823
631+1031192772+961443078+938443718+939170437+938056243+931210058+924879179
617+923561524+929577964+937696168+933322108+921256471+917739557+925328193
604+934963191+935840734+930673661
##END=
