##TITLE=Sample description
##JCAMP-DX=4.24
##DATA TYPE=INFRARED SPECTRUM
##DATE=24/8/2023
##SAMPLING PROCEDURE=Instrument type and / or accessory
##ORIGIN=Default
##XUNITS=1/CM
##YUNITS=ABSORBANCE
##RESOLUTION=4
##FIRSTX=4397.6552
##LASTX=599.8556
##DELTAX=-1.9287962
##MAXY=1.2845342
##MINY=0.34272739
##XFACTOR=1
##YFACTOR=1.1963157e-009
##NPOINTS=1970
##FIRSTY=0.48989236
##XYDATA=(X++(Y..Y))
4398+409500902+409565822+409688637+409687167+409317377+408470228+407694650
4384+407696319+408152727+408353342+408347413+408396289+408268716+407844743
4371+406885740+405628893+405473418+406434688+407050108+406711856+406001846
4357+406149150+407204436+407705188+407188094+406569934+406124437+405390811
4344+404832638+405141868+405607767+405366173+404713809+404150156+403623247
4330+403060491+402884041+403115247+402965054+402523543+402512955+402678917
4317+402480819+401910863+401753172+402427533+402840968+402778639+402856040
4303+402657070+402213242+401813159+401262809+400791927+400631545+400400563
4290+399875947+399669752+399945301+400406143+401087903+401514567+401412304
4276+401243054+401598221+402242140+401886300+400746612+400229743+400159592
4263+399583483+398584471+398072385+398761320+400030375+400122673+398834311
4249+397676612+397270476+397179274+396966030+396715816+396683580+396857838
4236+397145519+397390003+397498618+397544605+397934474+398495412+398357251
4222+397725415+397280765+397097738+396904697+396489019+396339424+396691427
4209+396921811+396922035+397330638+397978767+397713507+396521828+395846495
4195+396158316+396355293+395970805+395771885+396107745+396559021+396592353
4182+395971552+395012873+394510901+395231125+396717410+397398049+396668558
4168+395441007+394604121+394226459+394051255+393985562+394098936+394382805
4155+394711715+395018927+394910561+394026916+393318700+393789557+394533895
4141+394183586+393178621+393118110+394213804+394924437+394570017+393987456
4128+393507880+393233551+393486381+393654037+393195362+392430596+391915271
4114+391952963+391952888+391478568+390916808+390600653+390560595+390738041
4101+390926449+390583763+390111884+390452777+391125245+391399050+391104369
4087+390286939+389739553+390080097+390454147+389951378+389243834+388942327
4074+388755614+388530113+388295519+388296291+388486766+388201427+387291899
4060+386471081+386106224+386032485+386317027+386574341+386271513+385817796
4047+385602359+385509886+385465693+385721611+386306888+386331601+385488188
4033+384863551+384941599+384952710+384613113+384714628+385193756+384806055
4020+383718731+383286238+383441912+383333695+383060662+382775522+382343802
4006+382318666+382821833+383086994+382833542+382209079+381666750+381790213
3993+382368639+382691221+382438317+382037138+381979692+381987090+381593983
3979+381006389+380663529+380703961+381055615+381222075+380848225+380395005
3966+380062583+379414578+378570842+378162937+378260965+378599764+378840835
3952+378463472+377445727+376967970+377721974+378134562+377637772+377950539
3939+379032457+379440038+378416464+376359301+375454531+376377212+376785167
3925+375807232+375225891+375520497+375420576+374979837+375321801+376542004
3912+377981853+379155969+378947308+375809723+371162510+369123284+369826094
3898+372084419+375068523+376438645+375115831+374210114+374812406+373825925
3885+372179582+372243730+372346815+373625037+375633372+375015262+372736559
3871+371112960+370969120+372395517+372514770+371956423+373502571+375362557
3858+375819687+372987943+364975452+363644691+370336610+375318338+376288103
3844+374776084+373134076+371771478+370243391+370301784+371701326+372909770
3831+374411750+375997856+376740625+377091557+375598820+371677785+371589124
3817+373677526+374903508+377664727+380327693+380087793+377000430+375460086
3804+375792085+374116770+373626382+375496532+377216066+379475188+381657109
3790+382578545+382534202+381950221+381722577+381948153+380685501+379441682
3777+381224442+383397195+383173089+381106809+380236193+381217467+382468709
3763+383950186+384255305+382821883+382695680+383696709+382025479+376890096
3750+375924890+380177127+382431092+382114439+384355251+387579480+387762382
3736+384509306+383730490+388780102+395326687+399944479+402176746+404529412
3723+409478207+416766987+426093126+436939604+447730927+458008072+471752235
3709+491078724+510084150+525501436+537927818+549599024+562217325+574532750
3696+584780250+591054524+590955275+584582002+580034112+581312982+582670523
3682+580630499+575474813+568585667+558613790+551322319+551127808+547703788
3669+542371875+542994519+544929615+544452305+542499224+540448439+536731007
3655+532801377+531324608+527181236+517140304+513869740+519282865+524354350
3642+526480618+527065894+527191300+526343254+525346136+525180274+522009705
3628+516608239+518299050+523076875+525454403+523350805+519135935+518559427
3615+519837948+520193589+520186364+518574026+516401671+517354944+519729732
3601+520149694+518978642+518353258+518369600+519259747+521029976+520192393
3588+515155784+513337426+516309896+518832410+519767498+519993248+520085920
3574+520680763+521816838+522223049+519475034+515925657+517612332+521185076
3561+522556867+523178066+524835844+526155121+526007743+525783437+526143711
3547+525935548+525758575+527492832+530454092+532639401+533625209+534530851
3534+535527819+535847188+535692934+535805984+536435155+537629574+539691271
3520+542344422+544410952+545358645+545931665+546508671+546600197+546790921
3507+547891871+548422741+547401807+546691075+547095642+548274815+550694992
3493+552970830+553316107+552843979+552895048+553503543+554588998+555850230
3480+557157698+558488634+559349783+559479574+559117556+558629983+558621115
3466+559572345+560571007+560258215+559413508+559291091+559368168+559194284
3453+559373748+560172419+560768956+560665373+560831534+561799954+562511932
3439+562506102+562796723+563293463+562844255+561952812+562394996+564432827
3426+566150991+566264937+564953882+562896121+561876333+562907780+565019649
3412+566484609+566414856+566190850+566590285+566737165+566893112+567175811
3399+567184978+567522134+568475656+569072442+568525629+567659896+567326826
3385+567515258+568066456+568466389+568850329+569662851+570184553+569872458
3372+569337852+569785167+571695401+573329512+573502151+573717438+574297184
3358+574394340+574990628+576615024+577745768+577487184+576935588+577195418
3345+577921047+578339864+578290090+578267221+578531335+578364676+577824290
3331+578216600+579123388+579059365+578367466+578292033+579123936+579803529
3318+579942138+580621681+581407497+580947825+579949312+579788632+580171525
3304+580352036+580611616+580931932+580765023+580564882+581250055+582600720
3291+583632565+584150680+584055517+582967820+582171889+582677548+583115845
3277+583115696+583925029+585380573+586283425+586349790+586260855+586969594
3264+588841563+591201453+593141929+593902485+593474800+593198081+593982103
3250+595044141+595296049+595369240+596679349+598436275+598606871+597486240
3237+597516932+599139633+600128331+599965408+600085782+600607334+600917884
3223+600917436+600506043+600139940+600141036+599673144+598785588+598515943
3210+598579916+598145306+597242554+596204630+595498083+595444473+595585125
3196+595311245+594752375+594179006+593004965+590978244+589332075+589252507
3183+590576368+592113024+592498758+591045705+588759354+587523731+587244171
3169+586568714+585823155+585542599+584644381+583012312+581875140+581094655
3156+580300867+579615894+578499747+577317535+576555385+575366895+574019667
3142+573570957+573422134+572714840+571430589+569649398+568109055+567357467
3129+566840947+566290547+565773030+565016012+563911076+562876142+561954556
3115+560759141+559825349+559533632+559152482+558650610+558501438+558004200
3102+556737188+555698368+555096151+554611618+554620984+554352685+552889618
3088+551378670+550883773+550722594+550303279+549888000+549442628+548953710
3075+548639722+548199282+547264793+545926932+544705259+543992335+543444426
3061+542718995+541969451+541378145+540930581+540337233+539292782+538029806
3047+536991235+536155346+535186379+533846874+532328403+530952626+529484577
3034+527697955+526048000+524726033+523392009+522123751+521016374+520144761
3020+519925787+519754793+518321470+515934326+514069084+512894046+511678203
3007+510539088+509560804+508306746+507015321+506320083+505911282+505050929
2993+504062929+503625529+503609386+503498778+502920028+501931479+501025240
2980+500483658+500120345+499738049+499041716+497676054+495909810+494631439
2966+494235392+493868741+492818411+491326944+489549790+487735517+486534023
2953+485908289+485027260+483965222+483652679+483720091+482957392+481461043
2939+480213363+479490972+478801763+477781278+476640071+475617045+474597207
2926+473621215+472784379+471833746+470557567+469097788+467836157+466989257
2912+466303088+465651546+465230089+464855715+464286133+463583073+462807122
2899+462165993+461720621+461129066+460299555+459518870+458843712+458273282
2885+457950675+457617356+457120765+456587255+455724461+454569502+453594506
2872+452625937+451314981+450080106+449428115+449054738+448548730+448093443
2858+447809648+447437915+446625892+445156447+443487359+442352878+441743337
2845+441245501+440767893+440401192+439996376+439448068+438971556+438517564
2831+437896813+437338541+437033322+436805180+436420941+435732928+434878256
2818+434250480+433959261+433734358+433266615+432590161+432012159+431540629
2804+430988236+430470271+430233958+430089519+429621826+428912489+428370658
2791+428071368+427663413+427032698+426542335+426384992+426338158+426066022
2777+425557125+425160829+424921526+424501066+423928693+423487805+423055088
2764+422519734+422189604+422209035+422247499+422052639+421746673+421368363
2750+420881687+420447375+420128306+419777747+419348667+418965176+418759156
2737+418834090+418900754+418425936+417705961+417437836+417448174+417301569
2723+417170807+417206331+417196765+417007959+416707199+416341619+415863388
2710+415561084+415634250+415581088+415215982+414922995+414860142+414929671
2696+414958045+414809796+414380192+413797457+413483843+413585831+413772645
2683+413633587+413315763+413248402+413247729+413057079+412912093+412976515
2669+413105483+413074991+412896747+412695510+412429976+412202905+412155448
2656+412107892+411966293+411976009+412254049+412551869+412619006+412443129
2642+412228888+412256316+412482141+412582984+412585699+412724732+412837158
2629+412890943+413226255+413701098+413940326+414143531+414607562+415069202
2615+415232423+415311319+415604206+416109018+416518019+416736122+417135657
2602+417709723+418121066+418391358+418604155+418834090+419333222+420082368
2588+420709148+420982729+420971070+420980038+421222380+421590277+421945917
2575+422255321+422543649+422682408+422611758+422620428+422767058+422949711
2561+423171675+423259165+423143525+422999136+422885090+422744687+422627253
2548+422602740+422592775+422518688+422502346+422646535+422750517+422626805
2534+422400507+422270916+422238580+422271862+422485057+422807963+422946572
2521+422829686+422773186+423007755+423213477+423094000+422958829+423104164
2507+423329516+423449790+423484915+423461548+423508033+423611218+423639866
2494+423791679+424166152+424351595+424170686+423978367+423880414+423742453
2480+423673846+423691982+423633040+423541415+423518397+423426522+423096441
2467+422638165+422327814+422239826+422188906+421942230+421503783+421182471
2453+421049941+420754487+420177980+419683631+419538345+419526288+419298794
2440+418892483+418597976+418393700+418095357+417696893+417189989+416633610
2426+416120478+415642247+415207836+414806607+414439457+414111345+413804183
2413+413432649+412826048+412166135+411777836+411507892+411107386+410523081
2399+409853627+409403746+409184821+408845075+408298635+407726686+407112089
2386+406235519+404990878+403297725+401115531+398563296+395626450+392473743
2372+389578823+386891417+384180794+381590620+379241416+377340475+376242091
2359+376058168+376734073+378356576+381067622+384454450+386953597+386897546
2345+384359860+381703869+380484264+380216886+380417899+380795935+380930832
2332+380597837+380375748+380850516+381643333+382385130+383224681+384260412
2318+385472344+386618584+387335644+387763702+388331516+389072516+389807039
2305+390533042+391174371+391539029+391676816+391733116+391827856+392084322
2291+392424467+392766954+393141502+393419219+393415507+393204330+393042080
2278+392916275+392691023+392552738+392632755+392823579+393101967+393399214
2264+393583113+393794614+394116723+394266816+394256627+394434024+394840160
2251+395268194+395573388+395857033+396280458+396755351+397206827+397677185
2237+398128238+398586190+399174606+399877267+400544229+401070764+401558412
2224+402184793+402952174+403794192+404597247+405367070+406393360+407700579
2210+408957576+410088395+411294498+412651217+414145549+415812643+417535067
2197+419191574+420972366+423082790+425378707+427604024+429805924+432192420
2183+434726045+437298483+440014511+442946675+445981873+448928236+451722787
2170+454563872+457515417+460403586+463214230+466001755+468659839+471012057
2156+472974107+474576331+475807619+476694926+477337500+477574261+477194955
2143+476299378+474993055+473180127+470666780+467461385+463794474+459695494
2129+455168082+450400570+445528778+440630729+435660186+430579932+425605155
2116+420859615+416260407+411787477+407463444+403218232+399063524+395250706
2102+391865223+388640870+385376658+382209926+379274723+376367846+373461640
2089+370795435+368340457+365979420+363699795+361475026+359327907+357340746
2075+355515562+353731556+352008062+350425418+348777231+347021625+345446156
2062+343998360+342488060+340988821+339543217+338132090+336792137+335543635
2048+334251861+332777209+331273063+330028695+329143705+328343116+327372206
2035+326367465+325453602+324655280+324036148+323580587+323212167+322820305
2021+322241107+321275228+320069201+319152573+318510373+317651938+316540575
2008+315489449+314568063+313640473+312641238+311568114+310555277+309685483
1994+308609420+307242188+306168517+305496522+304914011+304468115+304140301
1981+303705542+303026846+302190733+301470185+300929201+300241089+299092308
1967+297847468+297272579+297192463+296972069+296587033+296065879+295397596
1954+294841117+294401400+293839142+293140741+292293268+291088884+290046751
1940+290016084+290436371+290567705+290452439+290253543+290029263+289766942
1927+289265319+288233848+287287376+287178536+287166778+287187928+287866599
1913+288355716+288060487+287717352+288026682+288716264+289269255+289568022
1900+289601976+289240756+288652465+288368795+288195633+287747795+287861791
1886+288698875+289332780+289678979+289985119+290294897+290621440+290773252
1873+290239867+288464057+286485740+287103751+289709794+291631537+292363120
1859+292773392+293348256+293929571+294310049+294488492+294321807+293626097
1846+292474252+292118412+293913703+296056039+297165932+297966671+298758441
1832+298354372+296880518+296869682+298296129+299651702+301239951+302683238
1819+303271130+303290562+302982677+301911596+300409368+299869057+300277535
1805+300339814+299216244+297367020+296441523+296614785+296389458+294991983
1792+294081209+295900066+298290748+299159944+298960201+298608273+298573895
1778+299204336+299469871+297969585+295437903+295512689+298043374+300331020
1765+301353025+300970630+300608562+301133503+301656500+302202018+301610413
1751+298352006+294978954+295143546+296811612+297704599+297684944+297437495
1738+297549573+296395113+293354459+293449846+296700107+299911307+301799568
1724+302175686+301868922+300528047+296723051+294075480+297842959+303252745
1711+306860266+308038817+307268969+306922571+308078675+308252609+307440038
1697+309835303+316319533+323273226+327528975+329908496+331544924+331979087
1684+333912886+341240853+349275043+355451887+359920134+364129075+368025995
1670+372278058+380065871+388622236+394724495+400389527+407830519+414909318
1657+419382747+421075301+425529174+435196329+441692717+448384512+460224869
1643+471754178+480091893+485536556+488496371+493485249+503757411+512771032
1630+518847856+523617908+527987131+531822844+536630862+541817140+545038130
1616+548028188+553400109+558248435+560885244+562721041+565281073+567828150
1603+570056556+572851655+575908028+578091792+579795557+582338748+585864808
1589+589964635+594558711+599688539+605249540+610895440+615586074+619157025
1576+626027088+636472637+644466121+651624463+661907139+673102879+682670238
1562+688956769+691059570+698500412+716295824+731503005+744149357+755460290
1549+766331978+775076702+780891503+784569724+788584103+802867706+819204884
1535+829354779+837551892+847331051+855526320+860729489+865039322+869437741
1522+874690135+882386970+890368098+898877854+907959384+914096145+915557568
1508+912511558+913403399+925020148+934406399+938364876+938283066+938768746
1495+942335710+944101754+940201172+934334952+935224899+939383169+941474860
1481+941554378+940948524+938439711+932101663+923745663+920366334+923505813
1468+925662772+923290774+920735028+921528816+920717490+913815938+910105282
1454+917769034+926903776+933959681+939182082+945067234+952763870+960632895
1441+967245969+971533780+974185387+979735427+987469630+993421646+999126238
1427+1005464685+1009719812+1012868657+1015691956+1015164624+1015072551
1416+1020460764+1025503401+1026942802+1026811467+1026233614+1024638564
1404+1023463228+1023638308+1022106434+1018452876+1015448618+1014515125
1393+1017270365+1019787648+1016462726+1009847858+1008154457+1011241222
1381+1014753780+1017109535+1017436477+1016059056+1016380418+1018413914
1369+1018520437+1017472051+1016865599+1015079625+1013507096+1014398140
1358+1015775361+1016453558+1016575825+1015515581+1012574400+1009769735
1346+1009560775+1010214659+1007901254+1002303284+998782257+1000196646
1335+1002229246+1002324210+1001747253+1001665443+1002640888+1004837407
1323+1007299585+1008904799+1009582100+1010773878+1013532904+1017139927
1312+1020776146+1024433391+1028406118+1032643707+1036818020+1040427534
1300+1043370509+1046290167+1049175247+1051578633+1053391212+1054674965
1288+1055983031+1057633684+1059263510+1060602866+1061688122+1062183865
1277+1061617970+1060310502+1058632147+1056912439+1055503430+1054156501
1265+1053082904+1052135859+1050547486+1049682649+1050788432+1052541323
1254+1054147633+1055982134+1057669955+1058525325+1058703693+1058846288
1242+1059191765+1059732350+1060672818+1061932257+1062636960+1062136234
1231+1061499789+1061844767+1062469852+1062984330+1064053642+1065425184
1219+1066104079+1066116734+1066905141+1068924189+1070000576+1069443250
1207+1069665862+1071107654+1072491950+1073611684+1073741823+1072752428
1196+1072364602+1072835035+1072540977+1071472263+1070839305+1070563183
1184+1070053389+1069812442+1070355319+1070301609+1068787373+1067210260
1173+1066200836+1065082497+1063652264+1062187752+1060672818+1058840808
1161+1056533481+1054054164+1052199334+1051064454+1049653154+1047106375
1150+1043812543+1040360571+1036338120+1031562836+1026793431+1022414543
1138+1017817925+1013175271+1008380058+1001614424+993329273+986374609+981522198
1124+976918306+970889762+963856376+957433130+952041529+946778871+942069653
1111+938351125+934189667+929519410+925754746+923155354+921117074+919778217
1097+919782203+920078752+918984130+917136276+916438049+917386190+919404740
1084+921853864+923823188+925595012+928302521+931208626+932919964+933869002
1070+935436749+937498346+939001721+940829546+943967630+947005668+948993725
1057+951199611+954603952+957931963+959270023+959026785+959744143+962530075
1043+965207889+965519386+964530489+964741641+966170678+967460310+968756220
1030+969718909+969596045+969531374+970473437+971728590+972196134+971926091
1016+972154880+972921764+973126638+972878517+972902034+973159222+973337391
1003+973051504+972566223+972710412+972737516+971343953+969362871+968294356
989+967660003+966204459+964195675+962377017+960391450+957898980+955878437
976+954614415+952506980+949215141+946320993+944889962+944413849+943454348
962+942162325+942056599+943128901+944134439+944334729+944311013+944872823
949+945048800+944393621+944601086+946098481+947928798+949564204+950716921
935+952072718+954111496+955940218+957229451+958676625+960746194+962640384
922+963094276+962480550+961798466+961417416+961406754+960628909+958803276
908+957899877+957869285+956573176+954038754+952173661+951724153+951527350
895+950341949+948167054+946227524+945849563+946487005+946843741+946897750
881+946668960+946251738+946693573+948465795+950809593+952968346+955661007
868+960205310+966425476+973409436+979648336+982865141+983486639+984259601
854+985628153+986016079+984468660+981739329+980100634+980482581+980945341
841+979679824+978023990+977839842+978885239+981343232+984000718+982831360
827+978274901+975275825+975167209+975695040+976923388+980457669+984392829
814+986031923+986087227+986001929+986811860+988860702+990213709+990827236
800+993548197+997214610+998116415+997333788+998411171+1001932099+1006211539
787+1010261294+1014150616+1017331150+1019699361+1022735107+1026594336
775+1029289190+1030622069+1032768166+1035044602+1034824681+1033718998
764+1034421609+1036165930+1037727598+1038636479+1038420743+1038141034
752+1039444417+1042458540+1045301569+1045104865+1043086515+1043046457
741+1043225722+1040665491+1038339531+1038248652+1037559793+1036081330
729+1035504673+1034164620+1031554864+1029611847+1030142667+1032893921
718+1033720294+1031611962+1029911286+1028379712+1025322541+1021559571
706+1017319989+1013546556+1013576251+1016858325+1018046516+1014818750
694+1010952645+1009306875+1007614868+1006347757+1007749491+1007966224
683+1005994409+1007265904+1011965258+1014679941+1013876986+1011336983
671+1008333124+1009269208+1017966599+1024900935+1025014034+1022230893
660+1020413132+1020844903+1023396863+1026174025+1026681627+1028182112
648+1033161075+1036380470+1033953567+1028232533+1020959995+1013082699
637+1010624108+1017135044+1024160956+1022857474+1016123627+1009490225
625+1006472814+1006826860+1004310274+999240234+997377632+997882145+1001444327
611+1012811659+1026479543+1031757347+1031143222+1027573866+1019375707
600+1015846310
##END=
