##TITLE=Sample description
##JCAMP-DX=4.24
##DATA TYPE=INFRARED SPECTRUM
##DATE=24/8/2023
##SAMPLING PROCEDURE=Instrument type and / or accessory
##ORIGIN=Default
##XUNITS=1/CM
##YUNITS=ABSORBANCE
##RESOLUTION=4
##FIRSTX=4397.6552
##LASTX=599.8556
##DELTAX=-1.9287962
##MAXY=1.4896456
##MINY=0.53076363
##XFACTOR=1
##YFACTOR=1.3873406e-009
##NPOINTS=1970
##FIRSTY=0.77936441
##XYDATA=(X++(Y..Y))
4398+561768624+561948167+561261830+559168790+557517197+557376879+558014110
4384+558179776+557493610+557030380+557579365+558200914+557908678+556781709
4371+555548106+555257330+555933744+556257343+555544926+555505271+557996795
4357+561362578+562295611+560658153+559393230+559787890+560346799+560245062
4344+559862345+559516964+559381372+558717031+556505541+553709494+552379867
4330+552963609+554455808+555902767+556763020+556831074+556678425+556644785
4317+555900791+554917706+554919124+555025372+554386766+553683157+553365530
4303+553585631+554696961+556453728+557401969+556277793+554107161+552739169
4290+552190314+551791486+551270428+550458594+550381175+551455513+551985937
4276+551976314+552436450+552163548+550953488+550437456+551184029+552197961
4263+552154096+551510721+551284391+551240010+551397427+551837285+552029588
4249+552173429+552586220+552380684+551255863+550082022+549612047+549995494
4236+550066168+549394137+549020658+548872477+548662688+548694524+548869040
4222+549119430+549322303+549014471+548325083+548065026+548265493+547965695
4209+547197985+547693480+549300305+549272508+547737303+547637886+549346147
4195+550390798+549966193+549664763+549244926+547603687+546283985+546741372
4182+548046724+549004847+549223616+548939629+548937868+549151610+548800428
4168+548076927+547417742+546555900+545804601+546093443+546845257+546619743
4155+545618141+545303564+546158017+546765345+546254126+545985992+546453604
4141+546529219+546525396+546949142+546797826+545795107+544725021+544212513
4128+543922683+543150376+542549621+542778529+542834725+541851726+541111727
4114+541900704+543112869+543542372+543190804+542509665+542388680+542936848
4101+543097488+542655697+542755114+543644109+544208517+543870225+543112826
4087+542459956+541919135+541686403+542155046+542800053+542569470+541631711
4074+540959723+540816183+540995812+541083070+540885311+540719387+540722781
4060+540882647+540945803+540453186+539654972+539680450+540578295+540630753
4047+539382929+538285562+538198003+538883095+539863086+540456108+540113347
4033+539171335+538123419+537139647+536647503+536936087+537804245+538896199
4020+539448878+538888766+538425708+539134043+539789963+539091595+537448466
4006+536407553+536750700+537375472+537212813+536707737+536662755+536781376
3993+536546238+536311831+536175337+535747938+535028691+534642580+534978467
3979+535353622+535209953+535072255+535557740+536147282+535965504+535294247
3966+534939112+535014384+535276632+535688391+536024364+535900845+535459913
3952+535279209+535012580+534135485+533850080+533736314+532586274+532534460
3939+534501188+536168205+535280842+532141819+530497874+532002317+533972311
3925+534391245+533611419+532855052+532183107+531233963+531073581+532382456
3912+533701599+534078731+533721577+532163945+529778067+528650068+528742567
3898+529626321+531150614+531216520+528778871+527881670+530029445+530340972
3885+528187482+527532937+527138277+527425916+529127432+529403514+528541156
3871+527047925+524856886+524535177+524531182+524683615+527071555+529956021
3858+531628838+529837571+521627039+518723927+524513180+529708725+531369340
3844+529817422+527368990+525278399+522620564+521510565+523042162+525227401
3831+527471027+528807227+528238050+527729838+526165589+521610842+521017176
3817+522814070+523838228+527636049+531843869+532246391+528359035+525630525
3804+524750681+521548717+520939111+524028512+526906834+529991036+532604533
3790+533211174+532341340+531030403+530717029+531676828+531061809+529366866
3777+530031336+531466523+531368352+529619060+528400967+529005116+529734417
3763+530291091+529732612+527308927+526480037+527515623+525999064+519565405
3750+516417746+520872346+523501181+521189029+522036307+525250086+525319643
3736+520413499+515689433+517284014+522887709+527378485+527872820+526148232
3723+525824118+526611118+527469008+528668327+529037596+525550528+520114604
3709+520481983+524496038+527587801+528294890+527368087+527449030+528822092
3696+530147422+529900513+526270720+520150693+518865061+523284518+527603698
3682+529354450+529005288+526597155+519375378+514062458+516124006+516423718
3669+515706790+519049674+522132544+522588341+521728475+519849435+515971143
3655+513515364+514467430+512579496+503831107+500013135+504089874+507738055
3642+508247341+506974426+505026645+502024331+498701511+495889567+490173866
3628+482600435+482038090+484155662+483802418+479643362+474171392+472289988
3615+471776062+469903037+467424531+464288472+462106970+462161233+461669390
3601+459194278+456421430+454016907+451421283+449984162+450133975+448897622
3588+444839443+442397456+442842383+442920318+441380000+439347624+438024142
3574+437334539+436880503+435800021+432055388+427029677+425790789+426402543
3561+425924061+425244125+425010619+424037030+422310122+421458161+421196472
3547+420143099+418952932+418666367+418772701+418383497+417179366+415833801
3534+415135734+414475518+412740490+410612005+409471031+409088744+409338489
3520+410154232+410208151+409069926+407716025+406716529+405992856+405383508
3507+404866617+404015172+402860062+402304161+401952421+401202025+400580476
3493+399941613+398964972+398411520+398561504+398624617+397933296+396909224
3480+396249996+395483188+394527213+393876320+393393156+393002706+392491014
3466+391619805+390485790+389300950+388732203+388823972+388677210+388226955
3453+388247320+388557944+388000238+386514569+385549013+385622352+386054089
3439+386411715+386496611+386326433+386112691+385708579+385095536+384863019
3426+385109156+384899409+383728360+382585237+382576301+383400422+384225531
3412+384486532+383949363+383422247+383837616+384732153+385221633+385226918
3399+385010813+384754365+384760423+385110616+385452604+385414753+384987870
3385+384844244+385439113+386315263+387382169+388601723+389494542+390363001
3372+391290320+391983575+393165966+394852531+395980960+396738402+397693346
3358+398484858+399498189+401377315+403305247+404582716+405636862+406937617
3345+408305997+409340766+410146800+410810925+411232008+411705678+412394550
3331+412773486+412573879+412433862+412583803+412559658+412540368+412875696
3318+413152250+413163979+413227049+413138717+412893525+413327153+414407378
3304+415182693+415360646+415088861+414735059+415055049+415886130+416284700
3291+416610576+417871934+419607133+420613933+420639754+420381889+420510994
3277+421203991+422455381+424061261+425473720+426320912+426516180+426098921
3264+425768448+426329978+427299916+427869479+428232175+428602046+428961218
3250+429424319+429606913+429451472+429613142+429973561+430468583+431795245
3237+433285425+433481295+432917617+432836803+433011105+433421404+434633741
3223+435796025+435864508+435519900+435582111+435616568+435276814+434800309
3210+434401696+434510135+435193466+435997780+436717801+437307386+437778564
3196+438015764+437866810+437706428+437987623+438594822+439200346+439604330
3183+439792251+439956198+439882302+439563429+439970247+441278779+442439345
3169+442937847+443205422+443503759+443558108+443671015+444419649+445576821
3156+446705895+447315672+447165129+446923633+446910357+446861895+446978755
3142+447317305+447510425+447504195+447477988+447346649+447139652+447264117
3129+447659980+447902593+447965320+448107055+448315470+448169008+447758151
3115+447787323+448253646+448447367+448457979+448693847+448485518+447783456
3102+447695639+448353364+449094780+449502158+449566946+449657942+449703183
3088+449401881+449312733+449823823+450217152+450402538+450994915+451543384
3075+451465664+451269364+451311211+451205564+450945722+450862030+450727125
3061+450385353+450405589+451131624+451948313+452087170+451765332+451789349
3047+452019503+451912653+451975336+452470660+452693553+452429286+452181904
3034+452299150+452543826+452334208+451825953+451783506+452034454+452091079
3020+452347957+452987378+453315747+452852989+452301427+452514525+453182432
3007+453652664+453722522+453495977+453415421+453873925+454834540+456243820
2993+457835651+458840948+459209616+459761650+460692578+461464111+461850738
2980+462144005+462640273+463153641+463037468+462324622+461989982+462397832
2966+463076994+463542071+463249492+462330680+461844766+462081880+462461718
2953+462606805+462430612+462442298+463200342+464000274+463809217+463252585
2939+463431484+464074687+464746073+465427470+465952094+466043821+465309064
2926+464055181+463141353+462745920+462626997+462735737+462804565+462337597
2912+461823886+462161405+462798163+462850106+462628931+462536302+462536044
2899+462739776+463135940+463635774+464135523+464413323+464672563+465073754
2885+465380168+465584974+465670170+465583427+465655820+466004896+466157845
2872+465858005+465499691+465623082+466278486+466792198+466646552+466291848
2858+466174171+466025175+465665701+465100993+464400649+464039543+464278891
2845+465084495+466169918+466812519+467022867+467222474+467427667+467823788
2831+468222702+468412900+468938211+469780463+470255464+470136972+469754513
2818+469736683+470334302+471287656+472372263+473201497+473532099+473778192
2804+474138310+474207137+474053629+474291861+474891112+475288479+475326415
2791+475411568+475949468+476710390+477285926+477662971+477957312+478207788
2777+478395408+478580623+478840980+479267949+479882796+480280120+480255545
2764+480281323+480609046+480955244+481269219+481704480+482051924+482243969
2750+482537494+482873639+483150666+483591855+484240901+484639041+484629074
2737+484814159+485236746+485339514+485465525+486077708+486566630+486550948
2723+486743552+487494292+488233303+488684760+488977856+489195035+489439367
2710+489608986+489735684+490199000+490867594+491289192+491619364+492140165
2696+492564685+492633941+492743669+493166728+493564095+493961591+494519641
2683+494856902+494923238+494933076+494911509+495103812+495568975+495969736
2669+496131321+496225625+496496036+496885068+497338631+497994765+498593544
2656+498768104+498698589+498625466+498565102+498667097+498994434+499453539
2642+500165483+500997123+501417045+501438913+501476420+501577384+501723158
2629+502073566+502677630+503250888+503543811+503892329+504498154+505035366
2615+505404893+505674144+505977335+506467932+506995994+507625233+508419495
2602+508867215+508907643+509198805+509854037+510456854+510948826+511449004
2588+511940805+512446955+512893042+513148759+513386904+513819544+514330979
2575+514642161+514588887+514344684+514297510+514757861+515724233+516672174
2561+517105158+517209215+517436104+517831623+518203728+518608742+519098051
2548+519520852+519787568+519930807+520155806+520537276+520892196+521229328
2534+521549619+521809547+522189556+522476637+522431482+522592981+523178141
2521+523867185+524541622+524915703+525068609+525402605+525661845+525805171
2507+526223933+526793583+527181627+527349313+527521724+527944783+528535270
2494+529036608+529339327+529394878+529297652+529206871+529124511+529252111
2480+529673753+529982143+530057844+530067983+529960232+529842426+529881609
2467+529873918+529789023+529881910+529925217+529541082+529079829+529048552
2453+529232219+529237117+529082621+528870039+528632367+528452737+528390441
2440+528356500+528149245+527790158+527597984+527521552+527181111+526747784
2426+526477116+526172120+525860379+525658022+525321491+524778049+524319674
2413+523921018+523346127+522873316+522743610+522627481+522240855+521563195
2399+520765497+520227855+519979570+519642610+519209884+518833526+518221858
2386+517149410+515724019+513766957+510973616+507669614+504360672+501062212
2372+497558259+493481520+488907353+484781121+481515785+478935585+477559043
2359+477581384+478516178+480501853+484033002+488660271+491979955+491461603
2345+487558307+484037040+482873037+482892414+483178076+483416737+483512115
2332+483765341+484554103+485829810+487243473+488400430+489271767+490225465
2318+491447469+492819843+493999700+494906654+496037833+497543007+498802131
2305+499429136+499796773+500273321+500837729+501412233+501885731+502286793
2291+502813007+503378059+503720090+503811816+503873425+504078489+504377384
2278+504663133+504876144+504971781+504980846+505079189+505425945+505936048
2264+506472272+507068172+507582528+507758290+507877513+508385296+509115155
2251+509665729+510014720+510348243+510740884+511221901+511731101+512227455
2237+512874224+513633771+514233624+514652215+515120514+515712333+516271800
2224+516767381+517259997+517702948+518195651+518968731+519789243+520255480
2210+520682277+521490630+522449828+523263680+524028125+524879914+525668977
2197+526354714+527137547+527992558+528755456+529393847+530095952+531092098
2183+532159820+532927531+533511616+534270433+535357660+536521406+537361122
2170+538015066+538857832+539872066+540898371+541722235+542321443+543046018
2156+543873619+544462043+544863234+545294628+545816631+546446343+547124561
2143+547705123+547958606+547652751+547025101+546632847+546529907+546316036
2129+545762841+544964756+544152837+543366781+542365824+541068549+539703993
2116+538399286+537036105+535569469+534169426+532908455+531638977+530271801
2102+528812082+527191423+525435300+523755438+522287384+520931593+519382854
2089+517634981+516025706+514566804+513179220+511851484+510452257+508980079
2075+507514818+506152539+504834384+503347770+501829020+500549574+499418481
2062+498203696+496909729+495713031+494613730+493419567+492079716+490692089
2048+489390990+488185785+486854355+485401338+484128466+483142674+482217289
2035+481105229+479874676+478639440+477332412+476043300+474941937+473920486
2021+472888123+471909377+470915251+469962756+469110623+468175915+467201637
2008+466301815+465399587+464471495+463517024+462564744+461770010+461041654
1994+459882420+458343648+457250878+456780689+456485875+456043740+455265075
1981+454422780+453715391+452884224+452009149+451275637+450407006+449195486
1967+448139450+447874452+447895032+447414832+446647938+446019987+445502710
1954+444977871+444339394+443523694+442605999+441617974+440433950+439505686
1940+439491508+439688580+439340020+438720619+438174470+437679448+437195209
1927+436586678+435436595+434088193+433376851+432829413+432440811+432870143
1913+433093208+432271922+431292275+431072303+431211461+431100100+430783461
1900+430426823+429846218+428994214+428449784+428193723+427553313+427149974
1886+427471167+427649851+427502401+427373426+427231604+427011847+426795699
1873+426349526+424843149+422563734+422100590+423661960+424990985+425359223
1859+425246230+425047396+424902481+424737116+424390660+423632101+422286922
1846+420367367+419078084+420047248+421567116+422006673+421966416+421921563
1832+420706605+418077040+416858259+417488358+417975002+418661383+419576973
1819+419915910+419753509+419310085+418215425+416646278+416011582+416457240
1805+416652035+415775671+413951452+412611085+412546726+412300203+410508378
1792+408844025+410208667+412435236+412931118+411886252+410547432+409667158
1778+409505874+409035985+406660891+403026889+402657061+405424280+407756196
1765+408503327+407479985+406192291+406207071+406484398+406793476+406374455
1751+403663174+400633106+400651924+402105714+402824489+402460719+401896612
1738+402045265+401068925+397739618+397268612+400241410+403254035+404970803
1724+404968741+404066298+402186700+397490603+393021180+395037574+399307690
1711+401847204+401764285+399302792+397027846+396570889+394553464+390546712
1697+389983765+393075786+397104922+399299527+399086257+397542416+393772263
1684+389237064+391478413+395861394+397848529+396868796+394769956+393219369
1670+391422733+392063357+395198514+396253047+394916245+394888491+395913207
1657+395148290+390443042+383437284+384160356+385738997+384757845+387370741
1643+392458061+395035168+394519308+391393131+389729723+395211618+401503584
1630+404846554+406507427+408382213+410821623+414861714+419265962+421582626
1616+424492311+430935250+436887119+440692245+443871481+447726573+451685678
1603+455319552+459063884+462876700+466187920+469252659+472805332+476663302
1589+480563119+484510538+488239575+491685786+494748936+496542479+496662046
1576+498778028+504987806+509782074+512370996+516623927+522198063+526484591
1562+528644396+526980172+525755247+534938253+545513225+554104756+560654287
1549+566350224+570701412+572008998+570249567+569242208+579282975+592802905
1535+601074059+607334877+615243249+622165916+626466450+629848173+633076688
1522+637017019+643237150+650606549+659626337+668893937+675261734+677696933
1508+676324859+679581086+692727923+703559385+709887054+713274963+717908806
1495+725282888+730977407+733832401+737733463+745894502+754756271+761695952
1481+766914352+770946968+773364595+773693436+774234171+780684844+791054709
1468+798802871+803120075+808245848+815040999+818452882+816512147+819949120
1454+832976089+844844169+853962601+862041322+870071066+877751604+885219388
1441+892148327+896825563+900171540+906792605+915640798+923164779+930651037
1427+939669966+947145312+951775976+954595052+955696199+959602761+968037648
1414+975578727+980164451+982742847+984430014+985836716+987686026+989721022
1400+989878526+988426798+987366981+987578961+991307139+995355909+993951097
1387+989093759+988968135+994081018+999266939+1002053878+1002544432+1000866374
1373+1000229745+1002944850+1005664680+1006727419+1006453400+1004427167
1362+1003624356+1005967743+1008782695+1010639824+1010311498+1008639713
1350+1008155947+1008429107+1007750803+1006152313+1003884284+1000767645
1339+999643898+1002175550+1004490495+1005034066+1005757051+1007145366
1327+1007911228+1007804593+1007721674+1008079816+1009387187+1012532526
1315+1016552596+1019556930+1021958145+1025123848+1029241875+1033526341
1304+1036472330+1038076835+1040456225+1044935143+1049761805+1052274811
1292+1053422273+1055391107+1057649254+1059274726+1061070331+1063959781
1281+1066892280+1067967478+1067398902+1066347076+1065319911+1065264145
1269+1066039631+1066169552+1065386418+1063568644+1060574965+1058005592
1258+1057543393+1059121175+1061155313+1062151029+1062269693+1062375039
1246+1062728025+1063433223+1063808550+1062841963+1062311969+1064234144
1234+1066466944+1066354896+1064765170+1063455822+1062544486+1061586492
1223+1060701878+1060386271+1061134948+1062636857+1063590039+1063896969
1211+1064583951+1065589205+1067176009+1069515185+1070525079+1069446616
1200+1069043535+1070767908+1072735882+1073741823+1073735293+1072248593
1188+1070264464+1069071891+1068028486+1066822078+1066340202+1066891077
1177+1068522391+1070988739+1072792937+1072222041+1069390764+1066825944
1165+1066200743+1066343038+1066076408+1065281932+1063441129+1060726453
1153+1059207101+1059961794+1061309636+1060992997+1058597625+1056226742
1142+1055274848+1054138814+1051449143+1048150340+1045293714+1042941993
1130+1040717528+1038102270+1035290240+1032065161+1028089343+1024845790
1119+1021991656+1017134147+1011523663+1007747624+1004566110+1000860875
1107+998156511+995993483+993559444+991536305+988244720+983393998+980192292
1094+979030394+977558044+974966845+972304069+970285226+967808911+964695709
1080+962584581+960708205+956855004+951924285+948309014+946286734+944316612
1067+941216385+937634626+934940143+932750736+929896259+926639559+923459936
1053+920411952+917969320+916224755+914564999+912633286+910969062+909842823
1040+908343320+906330235+904872320+904052754+902423502+899579077+896924207
1026+894461296+891704947+890130860+890491665+891360811+891265948+890306923
1013+889617621+889725459+890045706+890238697+890602682+891115319+891754097
999+892167747+891740091+890779690+890111097+890316805+890948106+891067029
986+890414073+889214110+887972558+886730319+885193266+883347823+881096893
972+878490743+876267052+875257330+874644331+872848467+870194198+868153874
959+867410266+867727077+868408904+868800814+869011248+869682764+870752548
945+871838058+873679548+876838205+880132197+882750291+885630546+889587547
932+893966532+897814835+901006832+903832610+907173861+910954970+913451048
918+914997467+917302616+919391747+919453528+918361832+918170818+918976035
905+919497522+919735625+920072800+919440897+917372045+914942732+913248863
891+912433163+911369565+909259211+907152723+906387977+906600044+907165354
878+908276555+909268577+909181533+908249746+907845892+908835937+910228032
864+911659996+914098160+917438122+921052362+924920944+929339455+934154345
851+938509013+942500212+946666530+950405105+953829361+958157477+962625826
837+965092861+966407279+968343975+970215540+971479175+972641330+974669797
824+978020500+981781931+984516885+985495932+986545867+989058100+992798050
810+998176532+1003964453+1007546384+1008297897+1008723319+1010782547+1012849423
797+1014163582+1015894657+1017701691+1019863086+1024586636+1031182524
785+1036346018+1039009052+1040511648+1042711280+1044510580+1043732774
773+1043102761+1046073067+1050892082+1053935340+1055041987+1055390075
762+1055199491+1054180059+1050434524+1045749039+1044982145+1047303019
750+1049979801+1052170153+1051258215+1047727152+1045869336+1045169551
739+1043943637+1045064119+1048178352+1048744006+1047004425+1044382894
727+1039252138+1034743146+1034824690+1037288202+1039221806+1039123592
716+1038079155+1038623757+1039446847+1038663112+1036324021+1033689687
704+1033788331+1036724782+1039125826+1039961117+1039203675+1036348081
692+1034185311+1033839801+1032028127+1028740150+1028657317+1033392124
681+1037813213+1039110875+1041670023+1045997710+1046102282+1040750352
669+1034133583+1032817447+1038382991+1042806572+1043755201+1042409248
658+1040724746+1044553458+1051089455+1052797588+1051960148+1048098097
646+1040000042+1031553555+1023817250+1019743218+1020893774+1019286691
635+1016119441+1023672206+1039021253+1047350107+1042912692+1039124967
623+1049220211+1049615043+1018273360+986579722+988396208+1012538541+1025907068
609+1035587202+1059905770+1072094269+1057914939+1050600448+1061183840
##END=
