##TITLE=Sample description
##JCAMP-DX=4.24
##DATA TYPE=INFRARED SPECTRUM
##DATE=24/8/2023
##SAMPLING PROCEDURE=Instrument type and / or accessory
##ORIGIN=Default
##XUNITS=1/CM
##YUNITS=ABSORBANCE
##RESOLUTION=4
##FIRSTX=4397.6552
##LASTX=599.8556
##DELTAX=-1.9287962
##MAXY=1.5247414
##MINY=0.58940238
##XFACTOR=1
##YFACTOR=1.4200261e-009
##NPOINTS=1970
##FIRSTY=0.83399379
##XYDATA=(X++(Y..Y))
4398+587308778+585682986+584998301+584433872+584043469+584847403+586642771
4384+587229153+586328719+585712368+585785278+586068059+585815793+585169346
4371+585112387+585656626+585716146+584622337+584118939+585480292+586826073
4357+586408765+585269119+585128673+584818567+583122762+582295322+583247762
4344+583831960+583394504+583155376+583643580+584305095+584387155+584048758
4330+583832758+583446048+582787891+582116847+581189340+580346370+580073915
4317+580460708+581806909+582986136+582705915+581519888+580501549+580638343
4303+581199624+580979889+581095612+582241385+583067902+582293181+580677170
4290+580091502+580794068+581560561+581507296+581367480+581958352+581850982
4276+580447570+579607832+579551502+579213105+578961637+579067748+578983715
4263+578490475+578261295+578646787+578987535+579521994+580444044+580268340
4249+578358130+576733891+577650191+580092971+580998693+579412399+577283839
4236+576788164+577386214+577816661+578750632+579444719+578574214+577598646
4222+577266210+576816791+576265164+575827372+575932601+576927939+577806671
4209+577232924+575672234+574284899+573503337+574143907+576398306+578164041
4195+577504708+575635087+575010257+576138947+577486953+577029978+574586233
4182+572450159+572517192+573837495+574287879+573337160+572153358+572348161
4168+573986797+575219247+574842822+573687604+573228825+573619648+573898399
4155+573939114+574290607+574382615+573527640+572574067+572434880+572985751
4141+573602354+573330822+571958807+571286295+572530708+573975632+573773777
4128+572208429+571097116+571445839+572022902+572012744+571901051+572360376
4114+573473955+573487261+571540575+569735133+569388845+569791085+570834315
4101+572500654+573411875+572924553+571995325+570965317+569866975+569700546
4087+570246297+570270978+570516234+571333264+571256073+570578607+570356060
4074+570219559+570138423+570238951+570024756+569330962+568757089+568943581
4060+569639306+570201636+569970945+568967087+568381293+568335457+567915378
4047+567631968+568107327+568218307+567823958+568053306+568269348+568061617
4033+568337892+568508140+567621432+566605443+566656862+567448120+568125460
4020+568386246+568357830+568177214+567539372+566680619+566326482+566139276
4006+565688052+565677978+566294204+566569891+566211472+565658334+564922273
3993+564459506+565060956+565973604+566163118+566001475+565654347+565074975
3979+564767303+564467901+563929874+564155947+564991530+565122784+565085427
3966+565681127+565845330+564884286+564030318+564399650+565348060+565838320
3952+565569601+564220294+562501571+562588584+563690956+563251610+562712744
3939+564281534+566650146+567141707+564470419+561554630+561739695+562849202
3925+562215684+561937520+563576240+564166231+562476596+561301441+561598619
3912+561952841+562347567+563002535+561958927+558583057+556154549+555900772
3898+557448785+560065213+560872044+557898456+555861190+558340236+559927537
3885+558362398+557652403+556896109+557283154+559948944+560089474+557650430
3871+556280304+556400434+557692236+557323240+555430240+555765698+557483876
3858+559270051+559159365+552021420+547638712+552558104+557644092+559799012
3844+559745033+558604800+556626718+553456481+551905697+553525276+555713692
3831+557454871+558727533+558960239+559206964+557606651+552111959+550775538
3817+553137602+554903504+557834361+560751032+561374602+558943701+556932837
3804+556283158+553180835+551896337+553944810+555646995+557591162+559161296
3790+559372720+559660832+560257078+560554340+560911667+560238357+558916166
3777+559710068+561812478+562485327+560336955+558189380+558349806+558814462
3763+559565802+559931147+558299605+557353084+558564295+558612649+554127188
3750+551011014+554789291+557205670+553985231+553747405+556703195+556901860
3736+552749297+549572848+551016009+554745344+557886577+558340362+557148459
3723+556761497+556969690+557939465+559722954+560491588+557746131+552474281
3709+551400830+554698627+558187911+558772362+557344605+558222288+560683957
3696+562135513+561982139+559326968+554295925+552616784+555306079+557721828
3682+558158991+557286890+555669577+551362087+547713427+548489616+547693531
3669+546588263+549129641+551445155+551776332+551385215+550732766+548635771
3655+546855681+547376667+544728086+534525470+530048614+534500663+538533515
3642+539168586+537655118+535624820+532945766+530161021+528192257+523136701
3628+515421819+514571251+516360701+515357220+510218429+504242459+502893950
3615+502811555+500695293+498294487+496039080+494425965+494256850+493556383
3601+491206198+488681736+486496006+483732878+481726001+481898936+481251146
3588+476627841+472829626+473216126+474224139+473392166+471402667+469842271
3574+468749805+468110704+467603948+464153616+457806132+455658053+457161028
3561+458058733+458137141+458067674+456980245+455123049+454303794+454255985
3547+452866047+450454328+449580422+450310440+450752220+449980312+448661352
3534+447700140+446825731+445559029+444635762+444273775+443150416+441557281
3520+441172880+441670276+441746837+441176154+440229801+438968850+437738162
3507+437296718+437098264+435921681+434742412+434464878+433987756+432831237
3493+431463588+430325160+429849842+429903486+430028233+429860630+429429889
3480+429307996+429200835+428388254+427169278+426448033+426612698+426728170
3466+425880582+424410347+422733640+421437557+421301140+421852767+421808568
3453+420985032+420230039+419626533+419199276+419252331+418939958+418207464
3439+417738191+417140099+416535417+416409410+416464606+416327938+416134520
3426+416381413+416898201+416853792+416106523+415439467+415496972+416202141
3412+416674730+416119409+415228546+415064468+415380997+415569042+415721073
3399+415777612+415664450+416081674+416616343+416331338+416374991+417472074
3385+418498514+418993140+419484449+420180132+420593453+420505685+420895836
3372+422417490+424026492+424729940+425124582+425955506+427211504+428495331
3358+429231728+429994318+431603992+433219374+434323928+435425587+436517087
3345+437511543+438363412+438763679+438780595+438769136+439214400+440310769
3331+441286127+441714475+442029576+442167671+442018705+441976227+441921450
3318+441630022+441618941+441889801+441575246+440767450+440799182+442165741
3304+443518112+443691843+443290863+443430847+444268067+444984443+444956950
3291+444688314+445261767+446771794+448064855+448521620+448340417+447884072
3277+448013730+449289708+450995587+451986727+452394717+453062319+453690087
3264+454065589+454839428+455773441+456297364+456594711+456868257+457149401
3250+457189613+456670768+455900875+455414057+455808489+457193894+458488634
3237+458955683+458792948+458515834+458993753+460089409+460847508+461059058
3223+460471502+459251644+458729357+459423990+460620427+461538111+462099896
3210+462860009+463643670+463836878+463335872+462607911+462663401+463701049
3196+464704529+465022820+465127966+465852863+467186849+468326578+468850040
3183+468820784+468315413+468043167+468590722+469329932+469998583+470923362
3169+471942289+472644939+472960292+473152409+473041806+472668655+472797768
3156+473675871+474742984+475248607+475160712+475156473+475419736+475578399
3142+475530548+475673933+476392995+477146812+476975347+476519799+477048760
3129+478145633+478635264+478135181+477652519+478108570+478491334+477820920
3115+476883213+476741508+477459101+478276593+478446589+478175939+478169558
3102+478540066+479259842+479962660+479811300+479235916+479081157+478878253
3088+478531293+478937689+480008748+480860281+481454763+482060243+482187048
3075+481371360+480484065+480820111+482045300+482656614+482192840+481576195
3061+481306258+481262689+481396587+481359062+481319648+481799541+482193721
3047+481851211+481447040+481883489+482786189+483123285+483094113+483421932
3034+483368583+482299539+481367331+481541482+482578752+483641332+483850700
3020+483450391+483450769+483881887+483903462+483429907+483293995+483921343
3007+484821147+485298185+485191192+484999118+485487237+486746341+487935684
2993+488658776+489522607+490691593+491611586+492312305+493057937+493682893
2980+494248875+494801383+495000635+494712649+494095669+493568765+493746862
2966+494508486+495034383+494972093+494459083+493685412+493083374+493065913
2953+493204344+493128664+493546435+494567922+495311371+495542986+495547309
2939+495423946+495424954+495793321+496128612+495918488+495402246+495098687
2926+494936457+494644231+494361702+494195400+493885000+493231375+492748629
2912+492986791+493635420+494459166+495391710+495751808+495188974+494702030
2899+495236573+496100783+496416220+496499245+496605020+496465162+496284756
2885+496427972+496702820+496818040+496769182+496787650+497099058+497501340
2872+497454077+496995298+496864925+497205967+497600022+497943330+498111899
2858+497972628+497772998+497796965+497959532+497800617+497061113+496288995
2845+496161058+496772036+497789578+498536259+498772155+498941521+499190597
2831+499482403+499911716+500230511+500297502+500606559+501371415+502119734
2818+502453975+502456242+502592323+503065331+503563651+503927148+504303238
2804+504715258+504992751+505158549+505432600+505901369+506538707+507150525
2791+507392003+507272083+507294539+507700976+508025984+508024389+508204794
2777+508657823+508851199+508916931+509352163+509880452+509971746+509896444
2764+510290373+511098379+511760146+512022108+512056653+512125826+512418052
2750+512776806+512891018+513112727+513786373+514446629+514709850+514702043
2737+514740953+515021803+515433614+515854196+516340847+516894656+517338912
2723+517618000+517844955+518209838+518900735+519605526+519892169+519950597
2710+520045165+520100404+520150185+520388347+520867400+521471789+521910253
2696+522041842+522200421+522628182+523228708+523785498+523983407+523880990
2683+523946889+524327848+524678838+524763416+524907388+525349923+525699234
2669+525631907+525506697+525975005+526833968+527159143+527022348+527192932
2656+527630808+527940495+528176307+528456401+528686211+528905946+529093068
2642+529008490+528969286+529439608+530053357+530560659+531198375+531587686
2629+531371225+531181585+531585252+532328911+532985012+533449584+533860303
2615+534404920+535141317+536041667+536907303+537272648+537258712+537597151
2602+538275708+538665986+538649658+538582835+538677277+539076914+539943265
2588+540889618+541445106+541751141+541932386+541978978+541966595+541986659
2575+542335256+543005124+543657279+544274932+544754992+544967886+545118406
2561+545170664+545090367+545284876+545816019+546254021+546608998+547032435
2548+547282308+547521856+548012788+548500823+548951334+549367677+549552994
2534+549734239+550116079+550368009+550284396+550132575+550115953+550237931
2521+550631944+551338624+552070236+552540223+552715172+552814735+553132900
2507+553661777+554204253+554691743+555005921+555196652+555465624+555560822
2494+555331138+555188216+555463147+555930490+556069886+556006547+556160173
2480+556345070+556479598+556654421+556658199+556512338+556475610+556606654
2467+556841458+557013175+556903664+556576013+556212851+555816026+555531230
2453+555587979+555718645+555545459+555270191+555181500+555192623+555076690
2440+554840332+554803311+554909590+554768304+554419498+554088068+553728390
2426+553290220+553002738+552967815+552888064+552483767+551879841+551415269
2413+551000269+550333255+549606259+549246875+549230757+549072262+548595433
2399+548057826+547670025+547508256+547402271+547146144+546788858+546311442
2386+545559262+544427718+542651322+540106964+537149663+533868907+530121943
2372+526239737+522471114+518635038+514997458+512308163+510275766+508382765
2359+507663997+508865974+511502424+515494686+520414372+523846235+523435054
2345+519541138+515736878+514435842+514489443+514510094+514385053+514558659
2332+515315414+516563646+517716807+518157034+518403381+519335086+520731781
2318+522127764+523452348+524714012+525931436+527040439+528048831+529072627
2305+530045004+530733635+531142507+531506676+531942118+532377601+532653205
2291+532784039+533004824+533323241+533480855+533580880+533935269+534380574
2278+534673681+534835114+534808923+534667763+534765311+535106353+535295573
2264+535386993+535786085+536415994+536924471+537352483+537805386+538057442
2251+538040148+538028606+538354662+539011854+539625141+540113806+540547653
2237+540807936+541012729+541365733+541878407+542394020+542649014+542855444
2224+543482540+544309057+545035842+545834866+546456421+546627383+546815134
2210+547247218+547692985+548214264+548833176+549340772+549827464+550431181
2197+550981128+551494768+552195865+553064356+553906110+554585254+555175707
2183+555800411+556477667+557197737+557915833+558697899+559565215+560402896
2170+561199905+561897351+562463542+562990824+563501903+564036195+564653595
2156+565322414+565951483+566524643+567075892+567452191+567497230+567439515
2143+567648715+568076602+568283115+568030556+567571818+567206810+566853512
2129+566361698+565821153+565235905+564392263+563267393+562154527+561268323
2116+560458596+559356057+557932455+556647327+555625294+554454462+553046265
2102+551810163+550846936+549718037+548266481+546796875+545470486+544239169
2089+542996519+541669207+540411656+539477266+538649280+537366376+535694371
2075+534242605+533261665+532509443+531598936+530367157+529119554+528172193
2062+527283219+526170689+524950453+523797503+522793728+521813964+520707646
2048+519641456+518739764+517846634+516761723+515613935+514731803+513858359
2035+512690927+511714394+511162390+510518084+509541467+508468939+507555871
2021+506850199+505965338+504741073+503711988+503085353+502534860+501903902
2008+501272650+500657600+499873603+498908571+498044614+497354178+496576310
1994+495499500+494289590+493467859+493138822+492874426+492449897+491852099
1981+491163300+490515300+489968795+489538390+489026891+488279664+487369324
1967+486487570+485950340+485600610+485070054+484494251+484016247+483562588
1954+483094575+482554785+481920972+481176851+480254549+479062898+478084267
1940+478099755+478546320+478566132+478096229+477408438+476878764+476491047
1927+475894927+474832935+473656772+473072154+472626470+472139862+472228302
1913+472261000+471575181+470730364+470434277+470538709+470584797+470441748
1900+470191539+469782751+469088286+468410359+467842656+467148065+466961195
1886+467390592+467539223+467412839+467444991+467542539+467418715+466962202
1873+466121121+464390267+462131209+461915629+463689967+464911672+465014971
1859+464741299+464509642+464410793+464366174+464262497+463829028+462791297
1846+461104726+459759617+460421049+461795918+462258433+462175030+462028036
1832+460949631+458685536+457571831+458207994+458840673+459400107+459924744
1819+459886170+459473520+459062256+458342102+457243928+456729070+457013321
1805+457270623+456749596+455179084+453790825+453688324+453694326+452373772
1792+450797552+451486938+453032853+453430392+452820673+451905170+451120334
1778+450991767+450732701+448687502+445239731+444597020+446831649+448733716
1765+449470995+448893554+448109852+448331812+448525523+448750212+448613501
1751+446295175+443171278+442840184+444168966+444900242+444562853+444083422
1738+444482724+443992925+441122930+440555437+443061137+445492836+446856708
1724+446980238+446559362+445314697+441280460+437150899+438955922+442725384
1711+444830817+444803575+442847530+440797084+440121255+438160256+434750094
1697+434544210+437243873+440689545+442739362+442692015+441469554+438317324
1684+434097519+435590965+439199667+440977783+440460324+438949835+437719652
1670+436228220+436674239+439156265+439786174+438376970+438444338+439634521
1657+439276731+435250889+428378432+428742602+430728575+430293175+432400119
1643+436896199+439611435+439647491+437283874+436199929+441322057+447182722
1630+450637756+452730344+454920103+457452036+461427257+465831204+468132447
1616+470492873+476284701+482164213+486182962+489446718+493219706+497118660
1603+500620075+503966268+507237916+510160462+513090732+516533929+520154760
1589+523749862+527336400+530744590+534003939+537114195+539372414+540117794
1576+542134199+547532559+551815074+554253321+558271860+563645665+568053348
1562+570437154+568777153+567189600+576167028+586363684+594425526+600823211
1549+606513252+610908468+612974318+612886340+613347554+623104235+635771752
1535+643945372+650610224+658591853+665701759+670886764+675143716+678653946
1522+682587738+689046496+696528127+704774194+713329318+719837354+723058884
1508+723193538+727462243+739666447+749652309+755923190+759748730+764433821
1495+771754480+778023598+781120464+784239325+792266412+801831438+809328893
1481+815105904+820192857+824122242+825839580+826812797+832385477+841511284
1468+848251858+851841838+856457839+863007094+867092372+866672461+869536117
1454+880350384+890732231+897581434+901944582+907757103+915368728+921884991
1441+926755525+930714460+935468808+942842691+950386233+956070481+960886784
1427+965630555+969691235+974191387+978454804+979340127+980603554+986264968
1414+991250679+993558259+995210033+996293559+996401433+997796492+1000578718
1400+1001169633+999079479+996258468+994217928+996068408+999094086+997974211
1387+994035592+993537272+996943321+1000384881+1001604655+1000667284+999057568
1373+999754846+1003469742+1007366555+1009171367+1008081630+1004524893
1362+1001969160+1003072245+1005100361+1005792685+1005740721+1006225273
1350+1006718639+1005727122+1003584416+1002101715+1001362882+1000082749
1339+998534736+997973371+999148401+1000779859+1000548748+999819990+1000986373
1325+1003682888+1006913400+1009548632+1010853782+1011590516+1012952583
1314+1015309274+1018405132+1022351223+1026949427+1031450670+1035699648
1302+1039021412+1041157066+1044134222+1048557812+1052247440+1054014979
1290+1054696054+1055667340+1057683703+1059957621+1061069017+1061751772
1279+1063660344+1065502682+1065371302+1063915296+1062546765+1061818007
1267+1061561208+1061687971+1061476252+1059714254+1058017064+1058807440
1256+1060389788+1060342441+1059928658+1060916314+1062073547+1061713407
1244+1060908675+1060893732+1060819857+1060592860+1061085219+1061888944
1233+1062050545+1061362166+1060505722+1060813897+1062783585+1064704414
1221+1064966837+1064722043+1065162690+1065139268+1064290967+1064110141
1209+1065178136+1066080584+1065774088+1067005195+1071267940+1073741823
1198+1071667955+1068888079+1068525085+1069381781+1069136651+1068142867
1186+1068444243+1069860541+1070548080+1069947931+1068767445+1068105174
1175+1067830494+1067088388+1066411006+1065603504+1064322867+1064017210
1163+1064535677+1063835881+1062044501+1061164383+1062060283+1063764525
1151+1064225655+1062675794+1060310793+1058465853+1057417586+1055621085
1140+1052279089+1048824014+1046605670+1045493686+1043963218+1041654546
1128+1039492364+1036914469+1033090943+1029269684+1027184987+1026565026
1117+1025788585+1023366834+1018663274+1012455103+1006789072+1003310072
1105+1001373964+999950614+999558742+999349290+996881955+993562709+992697030
1092+993029299+992616607+992441322+991801466+988540900+983849681+980791011
1078+980091299+980061413+978827872+976506439+973928460+971201556+968407325
1065+965304246+963416157+963420942+961631492+956957231+953063692+952539097
1051+953558569+951259383+945607792+941881059+941219207+940675052+939855042
1038+939686053+939076670+937269423+935375121+934027578+933123367+932429951
1024+930938183+928748886+927110544+926274331+926207760+926486721+926108532
1011+925058587+924224221+924077479+923953990+923045917+922105524+922172012
997+922808091+923365510+923298939+922217848+920723142+919184195+918310206
984+919125011+920193762+919544922+917777383+916107225+914783354+913603456
970+911775222+909057216+906542618+904578723+902718505+901227325+900133809
957+898982453+897824550+896971463+896629205+896937968+898136671+900195763
943+902406803+904521050+907192632+910211175+912248189+913641233+916135264
930+919863759+923814971+926569243+927367175+927832754+929321164+930796897
916+931451697+933119085+936677501+939412380+940395000+941008832+940633666
903+939136945+938186730+938121082+937687655+935821225+933247443+932537909
889+933963357+934035721+932257436+931515246+931514155+931113468+930861874
876+930744261+931244847+933059985+935355561+936703021+937433039+939513706
862+943806002+949081167+952978820+955124296+957385621+960672799+964800470
849+968636253+970568415+970791550+971721366+975080823+979910390+983950839
835+986040237+987229454+988630221+991247069+995314130+998067310+998821505
822+999965557+1001300257+1001665601+1003524477+1008138631+1012631143+1017608040
808+1023723784+1026732252+1026117244+1025556551+1026212777+1026908544
797+1028178016+1029984675+1030345318+1030283868+1031091706+1032048888
785+1034025040+1038251687+1043393375+1046708339+1047625311+1048293542
773+1050085006+1053067618+1057344887+1060146589+1058042836+1052933300
762+1049056635+1047959678+1047844501+1048209677+1050639319+1053093139
750+1054054687+1056576840+1060336061+1060868883+1058615030+1055674392
739+1051619336+1049381433+1049792445+1048470758+1044548676+1041192493
727+1041251844+1044360631+1046733944+1045508965+1043025847+1044638669
716+1049351211+1050874879+1049792865+1050024311+1049632187+1048437682
704+1048921814+1048309660+1044429133+1041331847+1042101489+1042377008
692+1038039297+1034385767+1038412533+1046380436+1048569061+1046281796
681+1045186098+1041705167+1034064664+1030309556+1037013276+1048032042
669+1051439350+1044374399+1037702243+1037514450+1046470345+1060908339
658+1065573031+1054582724+1039660178+1031940511+1037431257+1052626132
646+1056408859+1045380859+1047019033+1062376098+1066458773+1055557032
635+1037155653+1025361370+1032968294+1040457438+1025907372+1003462774+993439052
621+994747476+1001339797+1019846363+1051207652+1069441385+1060341854+1048881686
608+1049520620+1054210663+1057737011+1054106567+1040867947
##END=
