##TITLE=Sample description
##JCAMP-DX=4.24
##DATA TYPE=INFRARED SPECTRUM
##DATE=24/8/2023
##SAMPLING PROCEDURE=Instrument type and / or accessory
##ORIGIN=Default
##XUNITS=1/CM
##YUNITS=ABSORBANCE
##RESOLUTION=4
##FIRSTX=4397.6552
##LASTX=599.8556
##DELTAX=-1.9287962
##MAXY=1.2853756
##MINY=0.34255195
##XFACTOR=1
##YFACTOR=1.1970993e-009
##NPOINTS=1970
##FIRSTY=0.48859933
##XYDATA=(X++(Y..Y))
4398+408152712+407725830+407409932+407649028+407936097+407864971+407423226
4384+406548002+405959822+405831237+405601452+405862157+406934603+407704445
4371+407294019+406405475+406010111+406007123+406292823+406312665+405375775
4357+404661972+404980037+405195034+405100854+405303030+405099659+404218161
4344+403620347+403596995+403868878+404461066+405103070+405194536+404761056
4330+404030499+403275147+403138122+403177133+402471198+401751520+401914561
4317+402107998+401717687+401461787+401312688+401216169+402089526+403468783
4303+403822971+403002442+401962932+401276540+400728691+400118354+399980757
4290+400531170+400843210+400215173+399069932+398525245+398996092+399266606
4276+398692144+398360263+398805219+399230334+398988350+398455911+398354786
4263+398666725+398969852+399223562+399366213+399206384+398965944+398799169
4249+398398228+397926932+398240316+399268648+399654029+398820057+397670584
4236+397251145+397519145+397562214+397268896+397020589+396810720+397028182
4222+397546555+397672078+397409182+396675986+395954939+396325334+397110287
4209+397004730+396269120+395738324+395683653+396070280+396548571+396349258
4195+395420160+394596046+394463254+395048322+395785551+396213130+396287741
4182+395980507+395814803+395929372+395628286+395148874+394927255+394724980
4168+394757891+395090793+395253136+394987975+394314752+393715021+393505999
4155+393428275+393308304+393074063+392902558+392942391+392982746+393020662
4141+393105581+393391156+394006771+394346121+393920234+393236506+393063955
4128+393375397+393575607+393424342+392935744+392312561+391741186+391012371
4114+390430117+390492903+390738571+390572768+390294237+390530644+390945552
4101+390837655+390612152+390866136+391147454+390710962+389889288+389487799
4087+389478762+389624973+389763093+389605828+389104882+388381122+387829688
4074+387829439+388211061+388447941+388240064+387805664+387400938+387202273
4060+387256097+387206754+386707476+385849653+385325031+385562061+385822343
4047+385413908+384793763+384810916+385473209+385735532+384991358+384076823
4033+383726246+383688952+383732868+383633137+383040351+382330358+382171027
4020+382365062+382586034+383139908+383715043+383597262+383012568+382518219
4006+382400439+382388439+381873029+380988020+380445200+380716710+381291471
3993+381295604+380979805+380652529+380146778+379839668+379979307+380168811
3979+380073959+379769388+379535272+379508335+379492128+379333021+379368273
3966+379770982+379733141+378689474+377892919+378456228+379277653+379222112
3952+378635600+377622206+376854181+377465887+377730650+376620065+376569203
3939+377997928+378907259+377979157+375733388+374980749+376436809+377198386
3925+376262690+375879798+376500517+376191315+375014383+375032308+376697738
3912+378284325+378382812+376997181+374182626+371019709+369971984+370956276
3898+373164726+375879151+377025636+375245686+373637764+374399067+374367226
3885+373207521+372731819+371474325+371460334+373369043+373762615+372573409
3871+370837599+369868046+371301476+371980126+371734906+373472981+375661938
3858+376513412+373912610+365531533+363394782+369511020+374518839+376198435
3844+375214617+373013735+370407231+368484481+369580902+371906261+373271602
3831+374304788+374975670+374981272+375253479+373989238+370277626+370304737
3817+372288630+373512988+376596787+379608165+379737298+377029719+375447514
3804+375123599+372605275+372041842+374462127+376580829+378742576+380684047
3790+381594847+381639982+381015704+380670180+381309321+381322541+380841063
3777+381953665+383671899+384240138+382922222+381587851+381943806+382596391
3763+383276783+383122257+381678819+381990112+383995266+383819803+379383036
3750+376863418+379956403+382467656+382419957+384291572+387026735+387002312
3736+384025788+383895809+389204763+395305616+399767254+402492807+404834846
3723+409000128+415713808+424756507+435383278+446472407+457911367+472310594
3709+490661974+508807569+524227659+537260774+549414333+561699141+573708206
3696+584292008+591393783+592720959+587539619+581533991+579666235+578878692
3682+576405628+571899951+566149550+556847815+549204713+548973485+545712828
3669+540407658+541120315+543036667+542908555+541957898+540587951+536580133
3655+531978408+530235080+526244141+516368913+512980643+517678613+521349048
3642+522061506+521885944+522116077+522357762+522649985+522824602+519614782
3628+514610399+516145253+520032727+521341381+518915419+515487316+515465806
3615+516569322+516422588+516362889+516083612+515766842+516771722+517260519
3601+515739656+513920994+512971581+511863833+511509721+512672089+512035263
3588+508468144+507907997+510685831+512515297+513163027+513925027+514670646
3574+515022767+515323753+515534368+513606564+509964858+510143807+512952461
3561+514648290+515783572+518041190+519997624+519704754+519161585+520282727
3547+521165918+521065788+521927768+524015450+525878675+526895555+527702615
3534+528901032+530443903+531634304+531593873+530639581+530194301+531434841
3520+533956800+536086506+536726269+536717107+537361501+538136745+538846166
3507+540015107+540402032+540119867+541338101+543529746+544508586+543941866
3493+543477466+544048817+545001366+546141876+547661395+548667420+549035126
3480+549975775+551194756+551573366+551087257+550784778+551406716+551734838
3466+551369621+551393173+551424790+551367580+551535226+551806437+552618029
3453+553572122+553992008+553710092+552837706+552461785+553058877+554126643
3439+554783833+553932458+552592187+553057383+554896609+556037269+556190575
3426+556354536+556742159+556473985+555718358+556211985+557981105+559034183
3412+558644071+558211687+558712135+559341542+559561767+559769096+560181465
3399+561065751+561632819+560778756+559673846+559555543+560039511+560676984
3385+561458302+562502816+563195556+562714576+561823369+561695456+562286325
3372+563345327+564613601+565293695+565472643+566480759+568131527+568517107
3358+567612955+567045438+567121170+567407468+567828250+567837362+567253016
3345+567077553+567690081+568948695+571026369+573301216+574438639+573688041
3331+572486537+572857778+574140690+574741368+574384168+573227575+571943069
3318+571783589+572757947+573516910+573455468+573012777+573259640+574509292
3304+574828551+573473243+572363852+572306095+572924249+574285034+575868932
3291+576764222+576770396+576019052+575075962+575415536+577258696+578776372
3277+579147364+579220805+579711992+580506605+581191927+581835126+582518257
3264+582953927+583378942+584504715+585877798+586610371+587246151+588349020
3250+589547536+590362314+590546093+590521147+591331843+592859826+593282202
3237+592726386+593338316+594720611+595315961+595162804+594398862+593488884
3223+593440636+593985747+594394033+594624166+594249141+592910214+591241821
3210+590174005+590148413+590559486+590591900+590391492+590336423+590125210
3196+589501828+589091501+589223647+589280209+588650205+587081991+585094388
3183+583610968+582894129+582956118+583688741+584163498+583605740+582533891
3169+581523983+580655430+579883472+578730166+577643878+577768554+578102402
3156+576784836+574831340+574071182+573729965+572829447+571918622+571361562
3142+570628142+569311222+568085171+567194462+566160654+564999680+563608074
3129+562231405+561460692+560972343+560446302+560178477+559543942+557610014
3115+555491212+554644369+554609863+554590594+554385207+553828744+552928475
3102+552040006+551627439+551628684+551183155+549896110+548667221+548241210
3088+548183502+547827497+547170706+546411444+545663037+545165278+545081231
3075+545177875+544694306+543450230+542351296+541606274+540645161+539784127
3061+539320026+538590988+537658902+537080432+536443855+535176527+533479903
3047+532160245+531454807+531000416+530695646+530037559+528437629+526180159
3034+523959187+522205253+520953958+520131960+519564493+518788203+517608856
3020+516477507+515440961+513961175+512121750+510583510+509673084+509039196
3007+508305925+507423232+506273013+505027195+504124934+503456890+502531775
2993+501486565+500882452+500413969+499366518+498001351+497147537+497086742
2980+497262405+496872791+495957634+495105961+494277291+493189360+492019722
2966+490941501+490004834+489361934+488553579+486966693+485290184+484192693
2953+483078224+481817817+481268673+481466343+481457829+480768673+479510109
2939+478003685+476834496+476297451+475921281+475024447+473684574+472349830
2926+470980580+469619795+468535200+467599729+466641652+465640606+464674862
2912+464204239+464284950+464162763+463525589+462761846+462069603+461415849
2899+460756568+459989091+459142546+458349825+457679391+457048739+456399516
2885+455924063+455425307+454554315+453728932+453114462+452219471+451142743
2872+450223354+449384079+448775485+448380792+447682774+446801126+446255119
2858+445835133+445111721+444167985+443082294+441699701+440308294+439368640
2845+438763781+438387212+438294203+437995407+437233059+436563073+436286136
2831+436155584+435828159+435175450+434516866+434170969+434052018+433771148
2818+433052815+432135716+431446561+430975389+430369882+429807395+429759247
2804+429735247+429043801+428212841+427981562+428030706+427722600+427136711
2791+426659714+426166585+425460898+424912651+424741320+424512133+423974491
2777+423415986+422978822+422564164+422212341+421932965+421574271+421178882
2764+421070537+421297732+421434458+421163596+420528662+419785533+419266861
2750+418984597+418728871+418595381+418644326+418647214+418471601+418057441
2737+417504762+417060154+416735866+416474812+416314411+416161105+415913420
2723+415758670+415650275+415191975+414639370+414498039+414554328+414467691
2710+414322302+414236786+414112234+413896714+413710920+413674348+413749757
2696+413809182+413693543+413260312+412746146+412528560+412611960+412699293
2683+412543423+412295041+412113404+411914514+411681742+411441102+411287647
2669+411294119+411372042+411355536+411113727+410745349+410616889+410914738
2656+411170389+411048227+410877121+410746544+410620075+410766386+411013622
2642+410886531+410554426+410456686+410592516+410850483+411140763+411276718
2629+411374133+411765365+412333679+412716894+412956264+413199069+413403984
2615+413609993+413919419+414415486+415070037+415647860+416023682+416401570
2602+416924100+417389321+417687793+417970506+418253418+418477626+418744157
2588+419152342+419559134+419757352+419912998+420301765+420844585+421365149
2575+421804952+422091549+422225387+422253867+422069641+421745751+421608129
2561+421706018+421819740+421820487+421753917+421628941+421462441+421435852
2548+421572528+421704375+421707113+421530853+421278812+421223096+421497245
2534+421834428+421965926+421938143+421904335+421930624+421905032+421635265
2521+421191080+421075466+421451138+421757999+421731560+421711545+421888999
2507+422039318+422074470+422227826+422428683+422459005+422538073+422856486
2494+423109822+423081890+422987137+422942774+422818297+422611714+422573624
2480+422791260+422831889+422397613+421900750+421781351+421953030+422112461
2467+422069690+421830893+421461096+420992265+420582038+420382078+420247393
2453+419949395+419488431+419069291+418860169+418622617+418113206+417654782
2440+417376899+416985443+416568743+416319365+416059730+415699742+415398184
2426+415143130+414715177+414108649+413573248+413234894+412937941+412408913
2413+411687094+411131054+410832458+410643178+410380208+409876274+409338756
2399+408950014+408489523+407930072+407450785+407036973+406585644+405982775
2386+405135832+404027935+402574638+400608521+398109640+395362851+392705287
2372+390116110+387395984+384533580+381666023+379144811+377316191+376269960
2359+376135176+376963671+378617526+381198287+384484586+386935742+386818659
2345+384177600+381495688+380493846+380456353+380582847+380781289+381087204
2332+381263339+381293214+381445375+381656563+381949508+382573960+383380946
2318+384229955+385198861+386135279+386874499+387561240+388366085+389040826
2305+389439303+389830062+390189652+390387272+390530918+390683801+390872559
2291+391095821+391342609+391524346+391570926+391661570+391802304+391752040
2278+391544138+391455734+391613248+391859290+391946000+391848410+391813855
2264+391988074+392307109+392674765+392893372+392909280+392982273+393224979
2251+393506123+393838079+394379032+394996464+395413588+395712806+396062786
2237+396514838+397122436+397788539+398415705+399019768+399579666+400125001
2224+400741188+401429473+402160453+403046681+404116638+405149799+406144272
2210+407287172+408585619+409958603+411292750+412557962+413980015+415785656
2197+417789068+419730913+421748489+423911555+426118537+428439738+430908122
2183+433463888+436177641+439129843+442198705+445191486+448017070+450753826
2170+453506317+456211755+458937906+461827520+464667891+467153303+469276039
2156+471210465+472948266+474207876+474946076+475500946+475870942+475646435
2143+474754829+473492332+471913462+469715344+466715940+463028028+458771704
2129+454027328+449072139+444188498+439304958+434250535+429039669+423881382
2116+419040661+414567622+410330193+406141982+401858372+397625648+393777409
2102+390305166+386918913+383577794+380430138+377467306+374570572+371824006
2089+369367125+367052570+364786138+362639952+360480645+358212147+356065811
2075+354161508+352387011+350735745+349115450+347293875+345404037+343809832
2062+342424600+340972548+339499285+338035781+336554627+335211567+334032369
2048+332787647+331391062+329979938+328640762+327484020+326608099+325854489
2035+325029852+324192593+323513147+322987654+322545436+322168394+321762947
2021+321189207+320341791+319367706+318571052+317867805+316982150+315883962
2008+314683827+313494198+312390409+311364268+310340617+309290702+308274569
1994+307158631+305860756+304873826+304395311+303982071+303441417+302833047
1981+302182354+301497680+300793686+300138513+299558922+298848655+297735953
1967+296575999+296083567+295993695+295638362+295069352+294488143+293908726
1954+293395780+292917389+292384129+291745337+290890054+289694151+288775384
1940+288953636+289532306+289669803+289432749+289101490+288863365+288686607
1927+288225071+287143264+286151653+286152151+286361622+286424408+286978182
1913+287434217+287091730+286626509+286987916+287854577+288395107+288492672
1900+288456275+288259874+287849199+287633405+287492124+287037981+287047217
1886+287774563+288396003+288798313+289193578+289579657+289887539+290045550
1873+289776804+288431603+286709187+287263384+289663604+291443678+292187978
1859+292590861+293011220+293531187+294059941+294353807+294200650+293616205
1846+292567957+292048912+293692335+295852911+296929415+297561411+298201747
1832+297881865+296637068+296689996+298086307+299460809+301011248+302265779
1819+302589096+302458022+302235606+301455258+300238792+299710734+299896454
1805+299752808+298635923+296992824+296188253+296323510+296146503+294917266
1792+294063750+295695074+297798764+298394910+298027827+297693382+297759952
1778+298405989+298677399+297379500+295098430+294974152+297150113+299343825
1765+300364240+299881443+299413333+300020210+300634903+301080830+300583270
1751+297887691+294915772+294807626+296044955+296662586+296442585+295943680
1738+295861176+294789577+291976217+291991129+294990359+297951697+299664155
1724+300058225+299943681+298913682+295480127+292892046+296319651+301402430
1711+304809596+306014884+305486329+305158057+306014212+306199160+305914406
1697+308447244+314401463+320817244+324828299+327131750+328847594+329482926
1684+331349985+338084377+345606661+351645674+356329952+360932622+365117895
1670+369287857+376564523+384678721+390623554+396152982+403252840+410028161
1657+414332982+415928830+420473942+430289868+437012834+443973949+455525586
1643+466491782+474450557+479740840+482844057+488099237+498260364+507180900
1630+513501854+518513009+522911487+527076346+532541344+538076897+541393418
1616+544612250+550331880+555542298+558551062+560519097+563025570+565836864
1603+568474387+571189186+573927237+576116343+578110070+581071433+585050373
1589+589468518+594161310+599266370+604827714+610400909+614956925+618664305
1576+625635628+635889614+644299246+652312344+662510166+673148489+683124941
1562+690936534+695383160+703347911+718441472+732619181+745686353+757334534
1549+767987893+776146529+780993026+783879105+788637521+803550989+818958881
1535+828386289+836412432+846443803+855293039+861187285+865457153+869280596
1522+874173846+881947100+890390740+899040613+907663500+913359279+914824326
1508+912950595+914962048+925027377+933164902+937278327+937460760+936974005
1495+940065820+942774843+939966637+934194876+935017322+939868150+942430788
1481+941883387+940178746+937325230+931401109+923414152+920172964+923014431
1468+924465935+921535840+918598576+918578560+916606840+909583835+908658322
1454+918730223+928188800+934171076+937378307+941517523+948586735+956469928
1441+963435475+968514943+972153064+977648385+984932992+990924530+995693003
1427+1000739808+1005379125+1008734533+1010220791+1009838397+1011496334
1416+1016930811+1021503109+1022572319+1021793191+1021738321+1022029897
1404+1021951426+1021580982+1019538062+1016613046+1014455407+1012938478
1393+1014030492+1015426927+1012155964+1005581276+1003610453+1007940269
1381+1013539554+1016227963+1016097113+1015172496+1015052998+1015820873
1369+1016033281+1016212827+1016729855+1015494842+1013643716+1013722485
1358+1014271978+1013929516+1012508782+1010407607+1008798365+1008679365
1346+1008860404+1007372354+1003684840+998797665+996306925+997847356+999949428
1333+1000370559+999987767+999918856+1000908600+1002803940+1003897945+1004755643
1319+1007372354+1010696991+1013529894+1016933301+1021073712+1024705958
1308+1027563856+1030171505+1032959197+1036211638+1039581585+1042792002
1296+1045920564+1049066053+1052042454+1053947752+1054979618+1056602901
1285+1058425049+1058982507+1059009892+1059681273+1060173605+1059654386
1273+1058512183+1057342495+1056112262+1054529907+1052852850+1051338609
1261+1049974936+1049113654+1049464879+1051076809+1052806943+1053600510
1250+1053815109+1054648708+1056165936+1057409912+1058448152+1059597724
1238+1060274083+1060706268+1061523138+1062213936+1062476235+1062693821
1227+1063032300+1063241720+1063448950+1063940187+1064048532+1063999438
1215+1064459705+1065010293+1066156678+1068490676+1071006610+1072367395
1204+1072709658+1073167634+1073741823+1073579306+1072662157+1071743814
1192+1071029016+1070798982+1070923858+1070116648+1068853851+1068613261
1180+1068948952+1068406131+1066768310+1065295694+1064360024+1062959306
1169+1060803062+1058673206+1056858926+1055264621+1053765218+1051794097
1157+1049516462+1047486885+1045736835+1044106283+1041624008+1037694809
1146+1033342388+1028731054+1023551108+1018936687+1014820474+1010416071
1134+1005779444+1000027799+993026203+986080373+979575193+973269077+967046510
1121+960891559+955515237+951010257+946137421+941052676+936567512+932469323
1107+929155141+926971412+925215188+922979378+919891844+917097978+916173062
1094+916513831+916580053+916425402+916878699+918419826+920500986+922338171
1080+924292364+926412161+928297941+930029768+931622380+933429789+936069005
1067+939535049+943265283+946282910+948082254+949647580+951864171+954287294
1053+955935672+956467438+956905698+957784905+958911972+960801935+963095503
1040+964605163+964942944+965203948+966575488+967701758+967489748+967184530
1026+967569314+968254138+968578376+969149378+970572701+971268080+970899229
1013+971272362+972253243+972788495+973569316+974250655+973804329+973255633
999+972718190+971212514+969568120+968677958+967813887+966457782+965041928
986+963401717+961077976+958312490+956038540+954683132+952741885+949512248
972+946800437+945860086+945324436+943292569+941052476+940827023+941688904
959+941858292+941328418+940825928+940679144+940922622+941616308+942582252
945+943155445+943270661+944084941+946148076+948848934+951548198+953711811
932+955161622+956079767+956819360+957762002+958974908+960575187+962350830
918+963545114+963567122+962180844+960215299+958583950+956913963+955293668
905+954415456+954132246+953765884+952711612+951100080+949628659+948393447
891+946864866+945173071+943813282+942547896+941895038+942856002+944695676
878+946111829+947190200+949028978+952140311+956112330+960561047+965080765
864+969020519+972501202+976605565+980835600+982719389+981890470+980520423
851+979656153+979168202+978828828+978191205+977613731+977039044+975690010
837+974567723+975787202+979948426+983379516+981111441+974997518+971054378
824+970721874+971883994+974447627+978676965+982368861+984425125+985714908
810+986031578+985307220+985178561+986249662+987392961+988263007+989547114
797+991841777+995030884+998446539+1001648592+1004455802+1007117325+1011087452
783+1016896555+1021671104+1024171304+1027208847+1030658161+1032006399
772+1033134660+1036571427+1039017454+1037107575+1034283934+1034597118
760+1037161051+1040439681+1043871967+1045145319+1043563662+1041736137
748+1041074914+1041539264+1041892779+1040454320+1038266707+1036438983
737+1034905125+1034460492+1034607375+1034326356+1033017054+1030285426
725+1028399546+1027983494+1026856526+1025660151+1025223983+1024295980
714+1021892872+1018242204+1015424936+1015180163+1016615237+1017317786
702+1015386796+1010523719+1005453512+1004268887+1006772174+1008584264
691+1007315094+1004937778+1003499120+1003561757+1005570820+1007453015
679+1008384304+1010815195+1013510276+1014399741+1013565445+1010791096
667+1012203863+1020367777+1024844178+1023260628+1022085264+1021932904
656+1017758933+1013891774+1015087951+1017173293+1019102790+1023457402
644+1027008289+1023479708+1014862597+1010346364+1011020234+1014449233
633+1018207649+1013446544+1004290397+1004491652+1009035668+1002823856+990385294
619+987164720+993275755+1001314595+1009880222+1011426727+1003499917+1002320171
606+1012639633+1020653776+1019333023+1012114737
##END=
