##TITLE=Sample description
##JCAMP-DX=4.24
##DATA TYPE=INFRARED SPECTRUM
##DATE=24/8/2023
##SAMPLING PROCEDURE=Instrument type and / or accessory
##ORIGIN=Default
##XUNITS=1/CM
##YUNITS=ABSORBANCE
##RESOLUTION=4
##FIRSTX=4397.6552
##LASTX=599.8556
##DELTAX=-1.9287962
##MAXY=1.3296307
##MINY=0.13725236
##XFACTOR=1
##YFACTOR=1.2383151e-009
##NPOINTS=1970
##FIRSTY=0.17681672
##XYDATA=(X++(Y..Y))
4398+142788143+142746027+142571927+142413976+142342703+142412063+142421473
4384+142123309+141596847+141285723+141414938+141669445+141589868+141253630
4371+141162489+141593093+142430354+143344352+144114142+144407950+144051339
4357+143560352+143191347+142754089+142412256+142331692+142244185+141790453
4344+140925599+140158746+140011758+139999484+139471999+139101694+139555077
4330+140032612+139930568+139820583+139802364+139321725+138592079+138188142
4317+138154689+138378522+138694448+138828885+138556484+138066111+137797946
4303+137549444+137454344+138143810+138911566+138725121+137909845+137367390
4290+137394117+137577145+137598685+137664880+138049468+138606531+139054776
4276+139372230+139652319+139659070+139221872+139010517+139340233+139439797
4263+138848235+138022947+137702714+138092235+138544752+138340256+137651945
4249+137032428+136743253+136980805+137371566+137265564+137023872+137330809
4236+138020588+138550829+138432336+137729524+137413972+137780449+138298175
4222+138762400+138850593+138597687+138522346+138752593+139261992+139712366
4209+139585305+139027641+138716854+138941361+139332796+139768358+140116629
4195+139868572+139461084+139596821+140023382+140514153+140919944+140861208
4182+140362002+139972589+140028279+140284928+140594680+140684149+140291474
4168+139952842+139819235+139394227+138849197+138629840+138618456+138809884
4155+139394973+139802448+139417896+138631116+138199609+138393600+138716914
4141+138574691+138352470+138661043+138975067+138779704+138562405+138645339
4128+138839330+138971529+138943046+138850846+138863276+138850076+138762123
4114+138748056+138754242+138831376+138918534+138821496+138843517+139145773
4101+139300294+139165604+139231956+139413601+139059529+138581490+138736167
4087+139249862+139524801+139629624+139873807+139929690+139609481+139406693
4074+139583404+139937848+140214400+140376563+140424299+140260946+140040241
4060+140010013+140099734+140148024+140270861+140586774+140826600+140555066
4047+139756180+139199309+139518460+140074560+140151827+140001132+139672981
4033+139068037+138752906+138677155+138200596+137752279+137805683+137810028
4020+137666240+137751064+137852505+137838703+137858306+137720764+137329016
4006+136993103+136862191+136757645+136541778+136281567+136195865+136207574
3993+135849567+135278269+135227175+135609128+135680185+135248727+134648440
3979+134239581+134139354+134227319+134542089+134945316+135156358+135259762
3966+134985737+133980381+132934220+132702119+133148583+133637741+133581353
3952+132699700+131184404+130250323+130712454+130929404+130345952+130859815
3939+132173515+132402403+130872258+128403482+127478028+128833520+129631661
3925+128653344+128247216+128791379+128224365+127353097+128414914+130489306
3912+131740769+131717605+129727880+124897486+119787472+118385134+119915868
3898+123174349+126591009+127264291+125016858+124478422+126075654+125264577
3885+122881805+121955544+121735525+123785286+126103415+124839232+121515651
3871+118595791+118170686+120397807+120695838+120081833+122363008+124603582
3858+123922527+119035058+110837992+112061513+120466674+126218478+127127001
3844+124234613+120025348+115818033+113300895+115178770+118764860+121353188
3831+123316139+124398051+124272302+123476556+120078067+115177963+116000929
3817+118994674+121704732+126028194+128980123+127851690+123757079+121599933
3804+120379564+117398261+118018668+121546805+124827295+128325084+130865098
3790+131642902+131065587+129476863+128433421+128488390+127790235+127806998
3777+130332186+132282466+131428924+128413398+126498460+126958197+128101491
3763+129019557+127926044+125421000+125469747+126495764+123578684+116341583
3750+114185844+118170096+120399612+121057731+124051489+126379004+124318691
3736+118795016+117718398+123895644+130768301+133963390+133327592+132212118
3723+133320841+136137058+139651441+142408044+142654392+139660189+139607206
3709+149690619+164021251+177917235+191737638+206647690+219634995+227315805
3696+230197591+229210442+224313323+218143068+218054406+223111016+227324035
3682+228485019+226846164+223444101+219166895+219786424+224385908+227417391
3669+233075720+241920377+248975689+253384901+256515178+258724705+260019694
3655+262659272+265494705+263641439+259469405+266243521+279134486+289054185
3642+295300659+299826932+303829896+306958079+309534867+311619127+311545121
3628+313423658+321495360+329383674+333619460+334759603+336948866+342363735
3615+347752034+352466317+357270611+361572436+367054572+373989478+379547520
3601+382804052+385387506+388358989+391679394+396104298+400158933+400295344
3588+397824282+400538202+407445841+412656839+415217165+416744398+418462192
3574+420616607+422352837+421791646+417648926+414716768+417999580+422871284
3561+426171280+428796875+430714087+430855167+430404780+431018051+431537558
3547+430806697+430905419+433145752+435606104+437059645+437636767+438552655
3534+440197575+440542548+438656912+436859120+436929202+437578526+437984918
3520+438767042+439763794+439972646+439180462+438316126+437843886+437849614
3507+437855487+436558381+434899695+435199519+436368205+436687764+436778063
3493+436821527+436069968+434715294+433582132+432688675+431314314+430193907
3480+430774736+432102359+432411665+431897165+431343820+430650214+429862025
3466+429281678+428662294+427670692+426754756+426296380+426153952+426257054
3453+426397412+426122521+424950996+423451247+422636055+422248435+422409682
3439+423473870+424262684+423692445+422823006+423038356+423591364+423448263
3426+422966156+422617042+422722166+423614853+424978143+426163001+427121968
3412+428472358+430687999+433394218+435652313+437165105+438521801+440033728
3399+441778765+443707674+445471532+447672685+450740387+453611946+455825035
3385+458047270+460725090+463454269+465389002+466602548+467968677+469650660
3372+471435408+473506889+475873814+477893262+479031863+480308127+482474913
3358+484188230+485069510+486170519+487082074+487029127+486650267+486470344
3345+486155694+485779144+485628678+485610725+485466179+484793367+483402400
3331+481188444+479065413+478824359+479652980+479439267+478497724+477735094
3318+477085771+476928326+477646432+478076218+477508385+477409663+478474139
3304+479791076+481248948+483646245+487067249+490492345+493398366+496546597
3291+500428721+504444465+507855650+510417419+512422235+514228980+515664374
3277+516720042+517971950+519709142+521789383+524173973+526466290+527556566
3264+527036049+525996265+525465640+525268099+525069981+525652013+527665878
3250+529891434+530880196+530861809+530455464+529433394+528208922+528472550
3237+530134990+530986619+530638516+530223315+529750739+529105892+528654928
3223+528261484+527949096+527449613+525686573+523282730+522300418+523189062
3210+524619546+525411730+525157151+524003483+522917588+522652997+523394400
3196+525170340+526566408+526294453+525884210+526933428+528037181+527530478
3183+526075397+524923847+524704406+525182999+525435797+525318591+525312960
3169+525122447+523943364+522045502+520891834+521115175+521554683+521076668
3156+520234906+520107978+520481447+520357310+519547076+518398655+516970000
3142+515631691+514756381+513965593+513089945+512487841+512008911+511146548
3129+510062915+509231984+508700973+508447646+508272150+507526897+506274025
3115+505426199+505044451+504389833+503288342+501984353+500654083+499365160
3102+498079317+497026923+496470161+496224053+496417021+497225474+497733332
3088+497430090+497026345+496487104+495097196+493362844+492747359+493661946
3075+495148458+496235798+496359646+495092623+492755397+490478626+488425389
3061+485901500+483051073+480328632+477930902+475919589+474040547+472215800
3047+470920041+470571602+470578966+470090265+469556751+469531096+469499039
3034+469220586+468878885+468268791+467172162+465917750+465344286+465740378
3020+466212521+466222629+466522887+467512996+468801486+470641492+473418323
3007+476703349+480253014+484673947+490231219+496427803+503503837+512542039
2993+524646982+540218608+557317659+572243427+582617098+589206019+594299139
2980+598276905+599854630+598753524+594975657+587801046+577754154+566845429
2966+556564175+547681733+540796789+535902173+532097977+528664122+526334885
2953+525914342+526638176+527355945+527827125+528589178+529961516+531475272
2939+532485742+532477174+531150611+528618058+525305258+521619856+517486137
2926+512734767+507701863+502978506+498568500+493812268+488723047+483804557
2912+478979446+474291756+470248962+467114690+464426810+461565697+458895337
2899+457132442+455986139+454792183+453659598+452863034+452373322+452379964
2885+452642630+452082498+450139102+447395723+444503757+441385898+437740977
2872+433736641+429906116+426513270+423411873+420467826+417670634+415096398
2858+412750796+410378047+407686798+404511901+400863562+397173707+393935395
2845+390940903+387803936+384753152+382015959+379354889+376731388+374481765
2831+372602964+370819852+369101673+367417067+365767935+364330351+362961959
2818+361540476+360527070+360081953+359646488+358850020+357726918+356376215
2804+354977258+353753508+352734133+351590381+350076794+348440201+346940548
2791+345598028+344406648+343225111+341902494+340556195+339291917+338034376
2777+336757775+335415496+333999163+332837890+332142166+331558257+330746988
2764+329922988+329357056+328847345+328267141+327799667+327403551+326926234
2750+326260810+325398231+324682892+324266223+323838315+323241915+322607441
2737+322170724+321958382+321660483+321119749+320430981+319830995+319611337
2723+319617787+319399645+318860211+318222055+317678674+317313700+317110721
2710+316817923+316256637+315717155+315384647+315097626+314754578+314292037
2696+313723795+313027325+312114470+311269989+310695562+310001523+308932041
2683+307794522+306896300+306118315+305183993+304091936+303046160+302091669
2669+301120982+300138887+299159222+298060306+296951451+296120544+295506166
2656+294895831+294220949+293476947+292763269+292212355+291882928+291679876
2642+291509579+291448016+291403782+291262437+291172138+291208094+291375383
2629+291642621+291864878+292030121+292285614+292741681+293245616+293563948
2615+293823798+294215582+294689289+295207496+295687918+295929285+295922570
2602+295754993+295463327+295281430+295351897+295430596+295320442+295125717
2588+294915686+294474493+293680480+292791596+292016066+291281811+290578265
2575+289915850+289122511+288130668+287035026+285926074+284868987+283939213
2561+283224260+282597511+281860272+281064045+280292125+279549639+278964141
2548+278640683+278427619+278191740+278028351+278038483+278196746+278457198
2534+278779356+279066377+279329259+279617700+279892760+280239010+280698566
2521+281178579+281678976+282249625+282895651+283540738+284056828+284344595
2507+284482281+284660448+284792021+284760036+284842826+285163830+285312346
2494+285038658+284651447+284449767+284322718+283958683+283269120+282579774
2480+282166330+281903833+281620879+281302018+280898946+280392628+279967439
2467+279740537+279534598+279170009+278694906+278266372+277935284+277613342
2453+277232268+276808379+276357439+275867703+275392623+274954752+274452790
2440+273911190+273534881+273302395+272907001+272347712+271951644+271775547
2426+271660532+271530763+271369058+271234549+271174502+271085455+270936986
2413+270900766+271025480+271180711+271315389+271453509+271574902+271611267
2399+271581376+271608740+271686957+271741059+271826545+271847266+271554638
2386+270988393+270296351+269301284+267668013+265357356+262595543+259492125
2372+256234005+253346370+251047891+248815572+246459526+244691311+243952291
2359+244140109+245216907+247159726+250156769+253967704+256705185+256500978
2345+253918631+251762941+251207406+251371927+251821736+252368053+252635532
2332+252545185+252759789+253781378+255129410+256230178+257265076+258606513
2318+260145611+261561944+262568347+263068745+263412323+264006292+264775035
2305+265371074+265689623+265885599+266039049+266198949+266494466+266868561
2291+267160949+267355890+267456249+267458703+267367370+267129999+266748515
2278+266344987+266065571+265932890+265823579+265673305+265518147+265332543
2264+265088530+264838812+264618649+264385224+264139430+263999987+263919218
2251+263729788+263524980+263392853+263252158+263124893+263051080+263050430
2237+263102318+263052981+262931636+262902491+262870338+262743144+262677899
2224+262772771+262926895+263063883+263227586+263374225+263417714+263433453
2210+263499806+263637516+263853660+264127950+264501997+264911542+265189586
2197+265411482+265712318+265990988+266162271+266291847+266370738+266314614
2183+266150117+265967474+265754844+265467943+265179719+264954237+264694604
2170+264268428+263747622+263351915+263142606+262983500+262712700+262296512
2156+261854741+261486086+261209750+261007709+260780037+260460044+260127345
2143+259785788+259353451+258919936+258571111+258221468+257830575+257434892
2129+257036104+256650554+256305483+255973096+255616715+255191598+254709034
2116+254380714+254319946+254246205+253955670+253655196+253534188+253558255
2102+253658156+253790163+253980820+254261271+254571444+254890402+255302450
2089+255870909+256477850+256985781+257514216+258167029+258849636+259509092
2075+260147537+260793370+261480141+262115385+262595422+263100368+263900518
2062+264826129+265617182+266351509+267074910+267763269+268454180+269102227
2048+269692707+270299191+270806568+271093661+271465951+272164684+272922356
2035+273482583+273868447+274115445+274249786+274420492+274599958+274620872
2021+274504798+274195539+273888735+274086396+274505207+274605421+274511585
2008+274429950+274305789+274029189+273610811+273197801+272900936+272552761
1994+271696897+270593890+270242514+270576802+270896337+271081869+271184201
1981+271163985+270962088+270658798+270501786+270627318+270647246+269962256
1967+269145885+269331801+270063360+270403665+270325544+269942400+269380392
1954+268939199+268603779+268018955+266946946+265361857+263363202+262069201
1940+262443536+263099141+262921720+262365343+261951659+261753589+261555952
1927+260891442+259350660+257885519+257632649+257686414+257978249+259179954
1913+260022245+259668944+259175164+259647644+260658524+261396726+261785525
1900+261913609+261607190+261094013+261099693+261171677+260720014+261067275
1886+262425607+263469024+264130260+264754169+265326575+265817803+266100395
1873+265475091+262930890+260058634+261047612+264681439+267094211+267807071
1859+267984347+268269298+268660890+268916889+268790706+267977897+266400990
1846+264309510+263689428+266357911+269265497+270387156+270886398+271363547
1832+270298734+267854001+267561589+269439692+271479718+274013209+276273133
1819+277407908+278031985+278337706+277732906+276962599+277738345+279585427
1805+280705738+280099037+278468148+278023754+278925923+279017618+277336814
1792+276724819+280258263+284325967+286084073+286365294+286444378+287078394
1778+288524642+288966485+286750700+283859239+285572557+290812821+295559955
1765+298086034+298272841+298581065+300312408+302360376+304645377+305347623
1751+302785059+300507085+302812062+307006213+310233527+312346787+314547699
1738+316999123+317174762+315919653+319887335+327313156+334363631+339408183
1724+342378728+344422027+344515334+341181259+340608300+349208679+359523098
1711+366996691+370870465+372222900+374571005+378532333+381102791+383322644
1697+389409386+400636876+412129872+419137893+423359600+426104278+426514618
1684+430088494+442402337+454832856+464082317+471197580+478483573+485179880
1670+492324745+505046280+518209249+526408867+532689829+540857342+548184296
1657+551112941+548911115+549158425+559241802+566637444+574093011+589514460
1643+605591393+617535377+625431367+630638082+642352854+663361706+680878076
1630+694654220+708783328+723591938+738983015+757191547+773858647+786458837
1616+800758867+818034424+832038529+841656887+849498150+857626385+864623865
1603+869775900+874536897+878385761+879270939+877632180+875577547+873567677
1589+870736070+866832526+861700611+854939275+847077123+838632360+827347807
1576+815431067+811840488+809977523+804038599+800548186+801566550+802219916
1562+800802524+793206695+783741451+792452970+805149235+815328927+824254930
1549+834012491+842734407+847692367+850554491+857666047+881118020+905960094
1535+922215314+937414962+954913282+968192686+975668903+980761349+984464849
1522+986197084+989598208+993942657+998561371+1004616297+1007221291+1002790009
1508+991617801+986358620+998177264+1008445522+1012606678+1011935502+1011025776
1495+1015571423+1020171557+1018061185+1013413687+1017390201+1025431123
1483+1030571991+1033113063+1034584413+1032918122+1026044249+1017122386
1472+1014791272+1019686466+1022406788+1018753636+1014475034+1014647160
1460+1012806240+1002579376+995593834+1002282681+1008964500+1011139467
1449+1010497749+1010929508+1013744846+1015880922+1015400356+1011202330
1437+1003453195+1001285062+1005593121+1008173856+1009510335+1011887946
1425+1012715845+1012125919+1010375971+1005342153+1003553987+1009118912
1414+1014358069+1015978634+1014679506+1011524055+1007964956+1006188342
1402+1005756776+1002935181+998357476+995034617+992690411+993231049+995194421
1389+992739989+986193811+983879737+986827731+990178315+991743911+990687762
1375+987354217+986301534+988907298+990605742+990506876+988659698+983209620
1362+978933329+980956772+984490456+985314601+983742170+981229978+979462799
1348+979888108+981070078+980516060+977545154+973100395+970944392+973434828
1335+977467851+980118379+981278304+981649222+981616107+981927724+982810592
1321+983392335+984041081+986456524+990279974+993851973+997059119+1000283882
1308+1003378107+1006472042+1009932371+1013949607+1017994664+1021109490
1296+1023026461+1024099264+1025340535+1027464192+1029504097+1030772515
1285+1031912417+1033255635+1034625134+1035522827+1035598974+1035522442
1273+1035781882+1036073668+1035970277+1034474379+1031687440+1029355460
1261+1027673863+1026413242+1026189998+1026583731+1027345591+1028710758
1250+1030332189+1031352334+1031021944+1030603085+1031408457+1032461429
1238+1033236574+1033376932+1032138549+1031129475+1032128344+1033841710
1227+1034427497+1034147167+1034032705+1034259029+1033889844+1032344368
1215+1030945604+1030938288+1031834055+1032445064+1031874488+1030386676
1204+1028882788+1027759829+1027285713+1027051976+1026377430+1026103646
1192+1026592877+1026517499+1025712608+1025311655+1025357382+1025153488
1180+1024863242+1025069446+1025665919+1026136858+1026580073+1027163164
1169+1027531483+1027833378+1027887865+1027130145+1026706376+1027941967
1157+1029957227+1031308724+1031557864+1030810734+1029987167+1029966180
1146+1030622435+1031508575+1031629006+1030375990+1028707485+1027662503
1134+1026939439+1025197578+1022511623+1021290472+1021815996+1021433814
1123+1019770122+1018157548+1016973460+1016642108+1016914545+1016665501
1111+1016028981+1016273019+1016812694+1016314895+1016384497+1018647453
1099+1021088311+1021920446+1023090286+1025718769+1028110050+1029962522
1088+1032191688+1035121007+1038768287+1042072760+1043935725+1044820614
1076+1045866077+1048057122+1050340583+1050906635+1051693428+1054878240
1065+1058898749+1061311785+1061740079+1061389377+1060669490+1060289715
1053+1061641982+1064344303+1066469211+1067156464+1067073770+1066453905
1042+1066603408+1068765283+1070695732+1070985304+1071533932+1072285491
1030+1071125084+1069280699+1069064867+1070325007+1071769305+1072262675
1018+1072562837+1072742472+1072035677+1071829280+1071911396+1071229342
1007+1071384140+1072844708+1073741823+1072988820+1070406834+1067797315
995+1067881646+1068831900+1068332562+1067892620+1067417637+1065906818
984+1064321295+1063140287+1062204569+1061649684+1060994681+1059518903
972+1057481501+1055380466+1053474181+1052456058+1052772392+1053117607
961+1052024684+1050275891+1048805889+1047631428+1047598312+1049413914
949+1051064610+1049881099+1047094256+1044910817+1043389215+1042889299
937+1043756764+1045071968+1045931443+1046644110+1047160777+1046695324
926+1046380723+1046807379+1045999023+1043942945+1042677607+1042659605
914+1043179641+1043033508+1041945687+1041674020+1042138992+1041428057
903+1039837528+1038749226+1038301102+1037916803+1037239273+1036103511
891+1035140068+1035776973+1037579771+1037836420+1035612259+1033042980
880+1031297076+1029877133+1028921391+1028527080+1028844377+1030047526
868+1031062376+1031190123+1031206970+1032620271+1036545667+1041585069
856+1044812143+1045212133+1044329362+1043901165+1043574915+1042606177
845+1041353739+1040401366+1041127222+1043309891+1044467698+1044687862
833+1044506398+1041584492+1036529976+1034302446+1036426392+1039407117
822+1041571688+1043491451+1044790483+1046504426+1048750728+1048460578
810+1045883791+1044755923+1045640619+1046785816+1048604017+1051854868
799+1053642360+1051223547+1046963429+1044226934+1044055000+1045853370
787+1047229800+1047571742+1047869304+1047339738+1047028120+1047521490
775+1046901240+1046208885+1045220412+1041394653+1037558496+1037558592
764+1039295255+1038245941+1034100670+1031715935+1033223578+1034297247
752+1033316861+1032827342+1031928397+1031012895+1033317053+1036532864
741+1036452673+1034926451+1036101971+1038428945+1037084764+1034234481
729+1034141872+1034475920+1032514376+1028903581+1026694150+1028892029
718+1033092654+1035837236+1037013911+1037166591+1037185941+1036441313
706+1034893816+1035887487+1038882845+1039641239+1038363868+1036547978
694+1033461454+1031010199+1031939757+1034621091+1036128926+1037332845
683+1039933892+1040917937+1038349428+1037084764+1040397130+1045073509
671+1046566422+1046360410+1050043213+1051423013+1046124074+1041217521
660+1040487622+1041956180+1045179884+1046380338+1041433256+1036484345
648+1038111937+1043321251+1048039409+1052563781+1053877830+1049198660
637+1036335323+1012098964+999080925+1017427264+1038783401+1040074635+1043890768
623+1052157340+1046942924+1034340471+1028591290+1030563134+1028283524
611+1020817222+1022797634+1031248461+1031491921+1029350358+1031590306
600+1028122180
##END=
