##TITLE=Sample description
##JCAMP-DX=4.24
##DATA TYPE=INFRARED SPECTRUM
##DATE=24/8/2023
##SAMPLING PROCEDURE=Instrument type and / or accessory
##ORIGIN=Default
##XUNITS=1/CM
##YUNITS=ABSORBANCE
##RESOLUTION=4
##FIRSTX=4397.6552
##LASTX=599.8556
##DELTAX=-1.9287962
##MAXY=1.403821
##MINY=0.27051041
##XFACTOR=1
##YFACTOR=1.3074102e-009
##NPOINTS=1970
##FIRSTY=0.30032423
##XYDATA=(X++(Y..Y))
4398+229709265+229317329+229311995+229432876+229159725+228933530+229448126
4384+230172503+230267285+229704774+228972624+228604144+228707086+228779961
4371+228528510+228341797+228371749+228547453+228988398+229241399+228977023
4357+228869363+229171646+229339485+229323005+229215344+228771139+228112959
4344+227473629+227110301+227239548+227343972+227182652+227257784+227357216
4330+227060608+226976289+227481243+227842018+227473242+226850484+226621281
4317+226687478+226834505+226861266+226505984+226142861+226267572+226739085
4303+227130087+227280898+227098060+226406576+225538864+225079934+225343557
4290+226182684+226923633+227101411+226858029+226594999+226658255+227032205
4276+227196261+226846381+226374253+225975729+225705791+225912838+226392922
4263+226557866+226357817+226284600+226547836+226542411+226094673+225804516
4249+225693345+225486618+225337334+225595236+226219931+226493880+226145483
4236+225756077+225634671+225418735+225021032+225112918+225728563+226219452
4222+226589665+226905146+226900701+226590759+226259822+226067501+225837136
4209+225550923+225486436+225917374+226888210+227684049+227826973+227739623
4195+227428427+227117436+227485095+227993331+227870717+227242762+226570243
4182+226521462+227015542+227165806+226915245+226770109+226755657+226721100
4168+226545648+226201034+226025353+226103677+226047487+226003881+226285375
4155+226613098+226681414+226257315+225574470+225408842+225745409+225895331
4141+225677161+225426713+225311621+225232204+225207996+225272300+225417504
4128+225622248+225791546+225891388+225790133+225369931+224882051+224661510
4114+224826454+225288621+225518736+224960534+224218445+224283593+224825975
4101+224986406+224728436+224547558+224687473+225012050+225305193+225230996
4087+224701469+224169253+223953499+224020038+224043904+223654407+223149203
4074+223144849+223597169+223945612+223958058+223706083+223277334+222983119
4060+223112230+223509751+223635077+223132312+222439232+222416209+223035639
4047+223380070+223374326+223486751+223623520+223922726+224264810+223914429
4033+223061192+222558564+222575250+222874729+223255701+223311002+222939057
4020+222608485+222461822+222419515+222626402+222794104+222587513+222443632
4006+222709785+222921983+222652456+222217757+222063914+222245544+222527905
3993+222444338+221995848+221826459+222062181+222185867+222027875+221846769
3979+221727028+221563953+221442661+221439356+221239307+220717782+220467220
3966+220745592+220850563+220604469+220655028+220934516+220909875+220533667
3952+220052877+219445574+219080058+219487129+219446441+218646863+219001757
3939+220113124+220265736+219277188+217797752+217314773+218389143+218978597
3925+218164704+217934726+218620056+218275214+217109846+217297904+218728423
3912+219680362+219877014+219305727+216726025+212773613+210933310+211948869
3898+214726842+217883483+218968978+217027032+215962030+217248234+216733206
3885+214569830+213961206+213837794+214935278+216723860+216388615+214791556
3871+213148179+212342971+213711373+214337117+213951381+215218346+216912100
3858+217366152+214903343+208034547+206905537+212720364+217407411+218818896
3844+217522526+215172847+212475409+210198150+211133039+213786847+215508799
3831+216807426+217803564+218010975+218119411+216240493+211568673+211181090
3817+213620513+215434852+218616956+221498463+221288795+217954672+215822731
3804+215427353+213633642+213521788+215521587+217593988+220221423+222291635
3790+222899781+222703585+222104990+221614580+221686749+221125241+220560520
3777+221927623+223748482+224196630+222736638+221122210+220797792+220857515
3763+221485265+221506418+219962221+219588316+220603716+219531101+214756407
3750+212777898+216398645+218879120+218311116+219865525+222527813+222117072
3736+218128962+216552624+220583360+225855941+229220108+229897779+229654534
3723+231117216+234517399+239007727+243674350+247828338+251891694+261352912
3709+281075745+306482312+334225998+365042531+398246149+425365094+442097027
3696+451502443+455694613+454116794+446301826+437826489+433248492+428334361
3682+420435508+410270793+398948780+384235291+371450527+366547042+360290312
3669+354305868+354186332+354297229+351974859+348951659+346340591+343028556
3655+340768667+340396015+336561270+327816998+326013441+331302297+335751412
3642+337466343+337700994+337974601+338098241+337432401+336473464+333551473
3628+329752880+331613311+335718655+337510314+335658477+333185045+333860960
3615+335199957+336030855+337794658+339141542+339650553+340949590+341953638
3601+341606403+341101336+341348729+342111835+343492000+345053042+344461673
3588+341111730+340593260+343887446+346310251+346182257+344912785+344064654
3574+344255721+345046637+344554357+340376708+335254733+335292003+337962429
3561+339771092+340757907+341103980+340269161+338640532+337548837+337076298
3547+336069674+334914792+334849986+335283113+335396928+335155461+334651716
3534+333957838+332670791+330467387+328399204+327218859+325967509+324782127
3520+324517637+324325955+323430365+322108191+320698347+319437309+318506182
3507+317805899+316646548+314850285+313499275+312933300+312363814+311354865
3493+310033329+308564948+307072063+305654446+304508773+303557677+302577040
3480+301970535+301678281+300872731+299441529+298016572+296879994+295906970
3466+295004427+293869992+292540751+291398520+290119998+288797687+288026193
3453+287383057+286327378+284984210+283751437+283132897+283048647+283069800
3439+282947186+282498696+281880361+281330570+281045565+281337933+281840834
3426+281895132+281681566+281716283+282086495+282851653+284319236+286276659
3412+287902120+288892218+289883319+291421475+293238732+294921317+296444201
3399+297755684+298714279+299622110+300843576+302394680+304271022+306207109
3385+307951696+309838729+312130508+314401385+316224044+317854862+319378657
3372+320576554+321819766+323414591+324911192+326040521+327092279+327957962
3358+328254319+327987550+327636189+327654539+327733295+327506987+327016418
3345+326479392+326313217+326279503+325733906+324801434+323864107+322881873
3331+321636313+320142698+318772312+317424790+315774300+314312781+313240485
3318+312178514+311405675+311178501+310609357+309226275+308383455+308890847
3304+309957604+311084130+312528439+314689695+317431629+320142538+322473092
3291+324774650+327587932+330462031+332558822+333687650+334010449+333890274
3277+333672674+333242488+332466412+331663893+331026524+330378920+329583446
3264+328726493+327944012+327253530+326436720+325205269+323931329+323052790
3250+322424151+321920862+321246975+320393488+319956372+319849669+319484403
3237+318835090+318330866+318273263+318362049+318120993+317850463+317963617
3223+318041325+317669083+317052184+316273076+315224418+314298329+313860621
3210+313689294+313510422+313176773+312515127+311822480+311856992+312544236
3196+312993410+312880644+312702205+312967538+313312197+312969043+312108352
3183+311582632+311445019+310997122+310239031+309832688+309810532+309540959
3169+308969695+308518333+308006199+307285287+306595763+305856660+305128271
3156+304871212+305000118+304886143+304265141+303305793+302385585+301940947
3142+301924899+301826790+301419467+300761993+300143020+300068959+300127451
3129+299656348+299227530+299317547+299428194+299168651+298835548+298857272
3115+299116473+299198307+298987066+298749292+298643501+298359978+297636102
3102+296804520+296594556+297199875+297711097+297554906+297296412+297262744
3088+297481279+297737061+297401041+296807962+296921982+297709638+298282247
3075+298208095+298009209+298161867+298355350+297987486+296951912+295684719
3061+294713245+294151327+293600647+292891315+292074390+291110825+290312091
3047+290070738+290192395+290202516+290012589+289767976+289657147+289749649
3034+289556553+288941956+288643594+288733884+288588133+288280265+288242836
3020+288755380+289874839+290823837+290820304+290139898+289517870+289592136
3007+290555518+291997047+293572541+295410177+297504871+299867292+303169639
2993+307821013+313483433+319551625+325252546+330650385+336555024+342488499
2980+346789469+348543288+347889985+345236313+341328305+337214117+333426078
2966+329988079+327047236+324767493+323373947+323190312+323850886+324540683
2953+325023799+325684236+326913362+328490474+329945475+331226823+332428777
2939+333313676+333232025+331883295+329728741+327321368+325030888+322785451
2926+320316304+318069864+316405697+314909666+313399160+311888654+310197977
2912+308493919+307027977+305630192+304132543+302638153+301310941+300191824
2899+299210023+298359339+297530516+296581973+295861881+295731426+295935965
2885+296005809+295737626+295137481+294210366+293166267+292228529+291172007
2872+289794601+288294216+286981000+285971344+285099689+284297307+283701151
2858+283079329+282047379+280757961+279416525+277959451+276590068+275624247
2845+274948856+274418441+274286937+274477024+274500092+274369409+274274582
2831+274024772+273648041+273447514+273357428+273307325+273542272+273877540
2818+273877266+273718591+273764523+273933957+274079229+274114493+273897873
2804+273613780+273617678+273902204+274131270+274150874+274171640+274262364
2791+274403578+274587579+274584479+274484273+274559154+274705429+274928933
2777+275302679+275549320+275534686+275515697+275643531+275794890+275830222
2764+275813650+275963755+276232530+276468275+276834612+277274737+277524911
2750+277671049+277819262+278002533+278290570+278603818+278834708+278902500
2737+278841706+278941205+279401230+280073794+280685314+280987278+280968267
2723+281014518+281303763+281563329+281681156+281825972+282031081+282089778
2710+282042205+282211001+282498400+282518414+282341935+282281916+282333798
2696+282371728+282357595+282220758+281981206+281837233+281819270+281664037
2683+281403924+281344452+281368820+281203899+280956870+280807130+280680436
2669+280510933+280396571+280362173+280321894+280203543+280003221+279823141
2656+279757150+279717829+279619879+279511808+279368542+279250738+279338726
2642+279595260+279834334+279882157+279673857+279394232+279316684+279484933
2629+279724895+279945869+280160324+280288454+280340221+280537990+280870545
2615+281100022+281243448+281407252+281519426+281521728+281489610+281443245
2602+281282040+281023271+280771137+280517338+280232812+279974842+279755714
2588+279458445+279037833+278603248+278227200+277902555+277678093+277624593
2575+277654979+277566557+277299127+276922464+276426059+275956597+275817297
2561+275861952+275755181+275591331+275489666+275307466+275056813+274940126
2548+274984029+275026792+274985852+274903517+274820179+274802102+274927930
2534+275159139+275385060+275489438+275489073+275639930+276053589+276502536
2521+276750886+276759206+276723441+276860484+277103547+277265687+277345743
2507+277510687+277770412+277879874+277778277+277728492+277888741+278127039
2494+278284119+278290980+278107413+277852520+277709618+277704216+277800137
2480+277944611+278083957+278176094+278191024+278217102+278366500+278604046
2467+278755883+278777333+278860671+279037833+279143510+279193135+279379917
2453+279691295+279919313+280142909+280482348+280733662+280810549+280899404
2440+281168179+281562805+281929347+282232064+282379296+282299879+282224633
2426+282442324+282946229+283471196+283863656+284206333+284516708+284764808
2413+285038097+285351481+285639336+285889237+286129678+286481016+286996022
2399+287451487+287699952+287915751+288144179+288278419+288473771+288791419
2386+288874666+288388837+287379364+286093137+284532163+282525207+280199850
2372+277818099+275368169+272755482+270196660+268247420+267279502+267127961
2359+267536925+268658345+270781487+274050394+278008483+280878615+280992407
2345+278839814+276915830+276300983+276383045+276928641+277655640+278184231
2332+278604296+279384590+280548590+281650360+282529218+283379219+284508137
2318+285979026+287496781+288789914+289740372+290482780+291369001+292424406
2305+293331918+293992059+294543673+295013887+295359572+295652875+295978865
2291+296388991+296909491+297336166+297413851+297273662+297253010+297408130
2278+297460695+297317338+297220619+297236370+297245648+297221758+297179565
2264+297155858+297197140+297276216+297325088+297426730+297730724+298086712
2251+298179829+298051950+297998290+298057648+298099774+298079440+298046547
2237+298123594+298275089+298405636+298579219+298741975+298810383+298875371
2224+298935230+298963473+299027231+299113806+299183946+299258007+299379709
2210+299525779+299639434+299718327+299737840+299721245+299737088+299810077
2197+299954073+300103676+300232877+300394881+300526886+300588866+300651483
2183+300724769+300772935+300828099+301005329+301315203+301556191+301596037
2170+301546732+301601986+301813409+302023761+302057817+301948082+301884621
2156+301958203+302109333+302196524+302094471+301832717+301493186+301171162
2143+300945059+300706510+300281704+299696969+299181074+298824060+298423598
2129+297839661+297173616+296538070+295917866+295255878+294555960+293853489
2116+293191478+292636125+292140016+291607459+291000680+290294493+289651882
2102+289211825+288796502+288278168+287755321+287321898+286981159+286674659
2089+286347118+285995917+285642664+285354696+285112180+284783637+284434487
2075+284231658+284171479+284115996+283977107+283764658+283521755+283401649
2062+283391186+283272652+283051815+282832824+282653770+282567788+282576518
2048+282575538+282465233+282243188+282012731+281958046+282005505+281886652
2035+281669439+281564811+281526925+281425237+281252224+281068747+280936377
2021+280756115+280248859+279553910+279258055+279357327+279380304+279226096
2008+278985428+278719912+278422917+278032987+277688966+277500361+277263567
1994+276655672+275804122+275314737+275218566+275179928+275161373+275073134
1981+274839851+274553022+274328560+274215612+274080916+273719731+273107254
1967+272548824+272456208+272667106+272715842+272555913+272291925+271997916
1954+271820981+271744163+271604658+271269663+270632089+269633443+269010982
1940+269578644+270445946+270791836+270850191+270832023+270813468+270864689
1927+270760789+270127523+269431115+269424710+269583408+269822071+270738655
1913+271618654+271732104+271618198+272003295+272696102+273316625+273881939
1900+274328857+274419307+274272508+274397150+274622182+274521702+274871011
1886+275942647+276922350+277671893+278303882+278797096+279168311+279400842
1873+279247888+277989449+276209735+276645095+279063888+280990629+281832811
1859+282259463+282753931+283286329+283664702+283896550+283904482+283517151
1846+282660472+282322742+283891124+285831588+286829983+287540319+288250313
1832+287844722+286336063+286234899+287671048+289041684+290712780+292458370
1819+293473269+293997211+294364027+294168241+293681797+294202616+295657228
1805+296765153+296713773+295786954+295518658+296479168+297181024+296429885
1792+295981236+298342767+301218712+302552695+302847593+302963664+303356307
1778+304325525+304846480+303562282+301382084+302238558+305865254+309238858
1765+311099380+311341029+311655895+313160246+314859038+316590610+317359369
1751+315725884+313827066+315087398+317821057+319867449+321059738+322203633
1738+323662531+323741584+322313573+324128802+328736591+333189558+336294478
1724+337979228+339120571+339247265+336868796+335295718+339635303+345474361
1711+349490554+351155746+350922736+351095020+352688659+353140227+352770676
1697+355578373+361748481+368175534+372159290+374296543+375716416+375812041
1684+376803734+383213075+390591931+396127770+399958641+403564798+406957687
1670+410379890+417075353+424843956+429930143+433819140+439365785+445010949
1657+448222663+448283754+449637453+456944322+462536739+468091134+478916263
1643+490400759+499094745+504922542+508656442+515876919+529073040+540569662
1630+549287856+556933276+563847753+569986564+577384658+585072202+590526801
1616+595866741+603591395+610692153+615618182+619770051+624676750+629722408
1603+634625324+639946070+645062347+649055562+652623106+656960297+662054052
1589+667365817+672610566+677811821+682877310+687290865+690136766+691098210
1576+693765354+700551040+706369719+710329563+715795696+722645709+728650212
1562+732401026+731882259+732163640+743168986+755002016+764718902+772841191
1549+780731610+787996992+793699645+798236292+805069300+821974293+838810354
1535+850467863+862262142+875800780+886874191+895146198+902263139+908090435
1522+914664219+924988863+935475442+945344096+955523491+963418196+966876369
1508+965343091+967480434+980895706+992463130+998781884+1000876738+1003560704
1495+1010416325+1016311640+1017030319+1015837688+1019579795+1025131546
1483+1028972400+1030939876+1031213688+1028750560+1022639695+1015679491
1472+1014201012+1018470867+1021313942+1019032808+1015403582+1015196968
1460+1014341338+1006803602+999988374+1003610397+1007709108+1007803205
1449+1004537421+1002126903+1002859806+1004040856+1003998367+1002595932
1437+999022416+996832644+998249759+999553447+1000647330+1002567119+1003515753
1423+1003899801+1004083164+1000099978+995258153+998023451+1003154225+1004219295
1410+1001449802+998919109+997560076+995740858+993911611+991286273+987889646
1396+985638328+984239266+984938615+986080367+983002505+977012909+975418085
1383+978497497+981943179+983734587+982905854+979975338+978890208+980587427
1369+981376679+981170886+981031929+978995338+976144331+976029080+977466893
1356+978054273+977649891+977063970+976527651+976433827+976320855+975264264
1342+973209712+970456723+968679448+969556779+971779011+972931705+972544556
1329+972095587+972638197+974212051+976273350+977711255+978831671+981952661
1315+985886063+987594771+988810105+991559265+994602844+997294105+1000272581
1302+1003356188+1005773818+1007830012+1010495104+1013733352+1016527736
1290+1019042473+1022227563+1024953927+1025609510+1025393596+1026420280
1279+1028345539+1029924863+1030856902+1030838575+1030314839+1029746789
1267+1028416568+1026391376+1024721966+1023869983+1023937274+1024894478
1256+1026046352+1027026260+1027870949+1028656553+1030061177+1031900272
1244+1033295321+1034135907+1034107003+1033135392+1032134968+1031417931
1233+1031072998+1031756755+1032562237+1032513091+1032477166+1032435588
1221+1032317875+1032866412+1033386592+1033063178+1032981207+1034216054
1209+1035901602+1036926645+1036538128+1034322461+1031710527+1030488992
1198+1030694602+1030917081+1030509325+1030297424+1029981121+1028328215
1186+1026204731+1025405176+1025189536+1023986875+1022307801+1021015146
1175+1019903574+1018767931+1017739515+1016724867+1015968896+1015526948
1163+1013988381+1011158619+1009441705+1010236062+1012279947+1013358876
1151+1012436320+1011210409+1011863620+1012803318+1011319642+1009235730
1140+1009248768+1009468329+1007546625+1004936332+1003723278+1003665196
1128+1003150031+1001505604+999064815+996414129+994932185+994653358+994185970
1115+993773929+993890001+993353864+990491642+986525507+985541404+988252906
1101+991848122+994464251+996140590+997737694+999011110+1000358108+1003392842
1088+1007557841+1011161445+1014282983+1017991444+1021668540+1023363024
1076+1023429950+1024657411+1027715670+1029935167+1030033185+1030143147
1065+1032165514+1035254774+1037759116+1039692399+1041620030+1042619997
1053+1041766008+1040711241+1041036844+1041654951+1042021311+1043176194
1042+1044762265+1045774542+1046912556+1048204846+1048879941+1049907445
1030+1051004155+1050964492+1051257543+1052587582+1052850088+1051018196
1018+1048951335+1048555706+1049101964+1049019081+1048572574+1048702688
1007+1049462123+1050529656+1051150589+1050591019+1049117191+1047608622
995+1047564400+1048984251+1049327998+1048078471+1047167312+1047074674
984+1046600448+1044867213+1043113462+1043333935+1044292051+1042859891
972+1040258625+1040056662+1041267529+1040363755+1037155597+1034593265
961+1034089406+1034515124+1034782827+1034312522+1032673932+1029989510
949+1028182510+1028959544+1030753413+1031841734+1031983792+1031241042
937+1030267061+1029650959+1030115246+1031560627+1032018349+1030542971
926+1028458055+1026974652+1026681874+1028084127+1030560568+1032904343
914+1033695327+1032350517+1031032423+1030219283+1028057776+1025853780
903+1025399796+1025276065+1024581732+1024891378+1025922256+1025301687
891+1023623159+1022678538+1022150516+1021817983+1022395607+1023269017
880+1022717745+1021405942+1020998095+1020890959+1020325554+1020429225
868+1022756314+1026490853+1029563974+1032520203+1036059070+1037344977
856+1034783283+1032807601+1035135784+1039082498+1041290324+1041313939
845+1040689449+1041698262+1043061216+1043123401+1043575926+1044286307
833+1043738226+1041888371+1041128753+1043431041+1044591303+1043305942
822+1044074132+1045392043+1044524286+1043430676+1042560822+1041292147
810+1041860562+1045386025+1048468994+1048980239+1048148041+1046696096
799+1045785666+1046796758+1046860948+1041937061+1036956369+1038559765
787+1042841017+1044791807+1046226885+1048005619+1047519084+1044772021
775+1043210204+1043711236+1044062916+1042522435+1039954541+1038494206
764+1037496062+1036409109+1036473390+1036480138+1034909658+1032981846
752+1032524579+1033549439+1034222163+1033857536+1033027162+1032914373
741+1036403820+1042503196+1045300316+1043489852+1040742972+1039406460
729+1038662707+1036352121+1033752679+1033260673+1033501296+1033905040
718+1035392364+1036743191+1037686263+1037911295+1036235503+1034034424
706+1032199159+1030561389+1031040173+1035022904+1040208659+1042247164
694+1038897586+1033049136+1030248186+1031940756+1035255503+1038482991
683+1041035112+1043045442+1045779739+1047150535+1045914868+1046008418
671+1046125675+1044709654+1049746604+1057090127+1057705590+1055506700
660+1053871483+1054785104+1062001340+1070343281+1070905496+1065611510
648+1058291967+1052805410+1052350788+1051547221+1046512551+1045878031
637+1045464349+1016481691+983614594+997990353+1038621585+1055617210+1053722860
623+1055791910+1066309035+1072941174+1070678458+1063944380+1051549045
611+1049621870+1059811386+1063138534+1064147802+1068899998+1071853309
600+1073741823
##END=
