##TITLE=Sample description
##JCAMP-DX=4.24
##DATA TYPE=INFRARED SPECTRUM
##DATE=24/8/2023
##SAMPLING PROCEDURE=Instrument type and / or accessory
##ORIGIN=Default
##XUNITS=1/CM
##YUNITS=ABSORBANCE
##RESOLUTION=4
##FIRSTX=4397.6552
##LASTX=599.8556
##DELTAX=-1.9287962
##MAXY=1.3844986
##MINY=0.33644095
##XFACTOR=1
##YFACTOR=1.2894148e-009
##NPOINTS=1970
##FIRSTY=0.44175646
##XYDATA=(X++(Y..Y))
4398+342602286+342645923+343258720+343871771+343885962+343637497+343595084
4384+343512778+343147569+342520697+341769037+341394605+341602345+342150726
4371+342774362+343116713+343268959+343326741+342977572+342477406+342191936
4357+342264974+342639105+342459840+341584803+340988254+340765537+340399935
4344+340223906+341004249+342279720+342426141+340925618+339421975+339371588
4330+339869028+339940817+340055319+340389765+340739119+340956451+340988855
4317+340867512+340522942+340190530+340060704+340119943+340337992+340535955
4303+340808019+341098874+341094991+340959386+340579500+339767954+339479364
4290+340224137+340757655+340323361+340068193+340744781+341278739+340967291
4276+340544969+340364317+339770959+338628064+337742510+337352662+337159830
4263+337389320+337967331+338266507+338347680+338721949+339178317+339065433
4249+338407704+337991854+338325745+338762328+338419030+337951083+338394507
4236+339114941+338999838+338035307+337284386+337484361+337754206+337567568
4222+337780716+338276630+338222338+338036462+338132104+338179717+338464539
4209+338885498+338636223+338232299+338608303+339068068+338625568+337931298
4195+338040415+338734615+339100703+338729115+338125332+337969273+338129631
4182+337917268+337370205+337174091+337416223+337791395+337953787+337622808
4168+337187127+337031206+336804998+336539915+336807379+337277383+337469175
4155+337490624+337055775+336505384+336734365+337125993+336773357+336398024
4141+336822333+337396346+337230833+336594046+336114773+335875391+335854774
4128+335980116+336103355+336299354+336323438+336090574+336173665+336545785
4114+336656173+336325449+335711404+335236662+335090056+335114232+335570021
4101+336570817+337147904+336574931+335602634+335195520+335244381+335314345
4087+335496522+335857571+336265540+336301873+335531954+334767420+334754246
4074+334780849+334301253+333737341+333609063+333642346+333501680+333542289
4060+333748874+334049922+334629620+335030123+334678481+333788420+333187596
4047+333146686+333187088+333175878+333296852+333398133+333261373+333228229
4033+333557637+333775778+333645605+333434028+333154175+332690504+332290347
4020+332260670+332516370+332856664+333222405+333428827+333301891+332984918
4006+332623984+332284523+332124904+332256487+332545839+332633923+332362137
3993+331988375+332121275+332861587+333138366+332631358+332254360+332203142
3979+332210238+332244792+332238204+332203442+331969746+331514419+331321078
3966+331562702+331765981+331576662+331464772+331827185+332128764+331883211
3952+331430172+330844233+330040291+330099391+330657363+330294350+330136880
3939+330858170+331225251+330709275+329610758+329217281+330249857+331009676
3925+330375153+329979642+330426002+329984265+328987006+329385845+330757744
3912+331662828+332038508+332051590+330580212+327599737+325752379+325995529
3898+327732775+330215627+331411843+329540240+327874043+329279386+329905657
3885+328892728+328891364+328132331+327937835+329642515+329951190+329022184
3871+327896740+326393050+326863678+327334745+326288856+326738567+328742886
3858+330497490+329883307+323672504+320564098+325380051+330542260+332648739
3844+331454371+328928807+326802590+324984563+324941735+326785302+328483164
3831+329780385+330723236+330995115+331495767+330143491+325203005+324266117
3817+326557684+327918489+330481103+333296274+333907799+331682081+330332925
3804+330760425+328560154+326661578+327776459+329627469+332275000+334538462
3790+335000169+334308534+333257976+332942136+333982247+334040260+332864707
3777+333387363+334959351+335495112+334052741+332468202+332672198+333423650
3763+334446588+334657934+332669910+331687952+333512566+334408891+330318364
3750+326716332+329457218+331584798+330086494+331354592+334611939+335472970
3736+332722562+330016669+331223633+334927686+338188662+339311217+339464457
3723+340616781+342767220+345483121+348332360+350817153+352229823+355587319
3709+366106350+381890536+400488322+422121592+447283625+471640538+491292927
3696+505787035+514648998+517591984+514661618+510228995+508416284+505587661
3682+499094278+490199263+480570408+466462242+452422445+446800146+439299496
3669+430341105+427993511+427217652+424495211+420929698+417071897+411305974
3655+406488195+405103723+401092174+391181062+386498056+388969836+391621227
3642+391970743+390377467+388282361+386189751+384538114+383714111+379850231
3628+372986969+372545834+375248189+375878644+373074707+369111603+368352477
3615+368758643+367661027+366270152+364871904+363886548+364441470+364809823
3601+363667044+362166197+360605950+358173462+356283785+356147302+355144958
3588+351126336+348410482+348857836+349098951+347862633+345933594+344328762
3574+343340586+342381672+340463935+336003576+330977826+330147975+330919026
3561+330523585+330088320+330058296+328943299+326445262+324337837+323243526
3547+322061732+320459326+319185704+318745863+318504863+317443257+315828787
3534+314393512+312850045+311039622+309623623+308659785+307386810+306111547
3520+305409257+304825213+304034192+302777951+301082423+299538401+298436185
3507+297650919+296204180+293884831+292483625+292238580+291995384+291766195
3493+291429530+290085737+288073791+286698102+286034896+285149850+283883185
3480+282876311+282200162+281386513+280313142+279413720+278888083+278264747
3466+277215391+275774315+274280310+273199266+272466651+271720168+270689118
3453+269611356+268983004+268286585+266981344+265922280+265543203+265302134
3439+264909905+264401071+263995737+263702594+263451448+263351784+263068210
3426+262525053+262240693+261946695+261216137+260925306+261757815+262875355
3412+263196349+262862365+262798804+263404020+264435556+265380603+265771976
3399+265840807+266317051+267337747+268063220+268170950+268435502+268943781
3385+269298382+269771483+270484151+271270642+272297348+273712121+275230511
3372+276436157+277299153+277897619+278258992+278916443+280244912+281575809
3358+282347739+283035075+284166505+285501793+286435561+286802804+287035830
3345+287390985+287861683+288664214+289553767+289897574+289853613+289757370
3331+289431915+289028130+288973028+289086421+288951810+288662874+288231977
3318+287413497+286600172+286415406+286428789+285900956+285378693+285613221
3304+286352053+287235065+288118816+288997227+290128843+291554988+293045711
3291+294554532+295855797+296620146+297132979+297568059+297732786+297877520
3277+298255973+298675637+299029012+299470472+300005239+300416836+300476930
3264+300268959+300260083+300344769+299832445+298899695+298412541+298572252
3250+298845194+298732056+298370567+298125292+297857504+297516563+297361844
3237+297399495+297474266+297653508+298031684+297881634+296817739+296129132
3223+296402167+296697112+296573134+296147784+295828593+296151182+296625023
3210+296727182+296767330+296655740+296290970+296056372+296141659+296721242
3196+297666705+298271389+298375583+298382494+298449822+298689759+299042672
3183+299248540+299396163+299509463+299436334+299518570+300024792+300523688
3169+300669878+300563558+300302311+299960954+299756611+299834040+300135088
3156+300656102+301153842+301351158+301553398+301664548+301296519+300923567
3142+300997112+301191170+301088155+300780474+300668075+300814866+301054733
3129+301370319+301647999+301794421+301994880+302268238+302473760+302737665
3115+303023365+303011485+302815925+302737757+302809847+303049922+303283318
3102+303353651+303596384+304221454+304926125+305390582+305509845+305350758
3088+305359610+305881503+306462889+306588254+306516904+306840996+307463176
3075+307715640+307628203+307730247+307914251+307765818+307360462+307111349
3061+307173061+307202022+306832236+306265457+305897497+305723248+305655850
3047+305785029+306079027+306323540+306244170+305879030+305677946+305698078
3034+305618638+305364764+305091984+305063046+305239284+305365643+305554731
3020+306091208+306882044+307321539+306909364+305947838+305371236+305616905
3007+306243939+307009906+307896130+308587858+309040504+309758719+311085848
2993+312753571+314516959+316200052+317580340+318983026+320679109+322331207
2980+323501421+323986819+324053454+324113062+324157509+324003714+323610561
2966+322952347+322055954+321092971+320284037+319698768+319462784+319951810
2953+320906495+321653994+322407110+323481567+324364717+324707345+324816531
2939+324889384+324861602+324744419+324496415+324147639+323894135+323556407
2926+322753182+321661968+320706266+320075303+319686033+319222292+318704005
2912+318366346+318127103+317880117+317671938+317541534+317430429+317310704
2899+317249431+317284817+317208960+316783633+316439757+316554236+316738863
2885+316761607+316706320+316628868+316644423+316605755+316239506+315730648
2872+315284543+314798591+314455293+314462758+314600489+314673873+314686585
2858+314599726+314297200+313874254+313619848+313429951+313005156+312532332
2845+312301549+312336103+312612396+313037931+313514638+313962361+314439484
2831+315064114+315574196+315865074+316215584+316624939+316874930+316897326
2818+316979008+317383394+317902629+318316538+318608779+318777666+318931599
2804+319242840+319670062+320083878+320453225+320629531+320622944+320754942
2791+321162287+321700151+322119607+322409606+322752466+322999960+323090471
2777+323402890+324014069+324496670+324639739+324700296+324879977+325140137
2764+325509946+326044551+326614219+327042643+327363105+327738877+328176685
2750+328564268+328901511+329231311+329478621+329649981+329935889+330394591
2737+330972695+331607172+332049902+332289654+332700073+333243230+333667216
2723+334181689+334848247+335335724+335585669+335829096+336181986+336482317
2710+336619886+336871125+337277360+337466517+337515887+337697486+337843399
2696+337919348+338092072+338165595+338047117+338132312+338514533+338790041
2683+338815303+338709723+338551144+338514001+338730478+339045278+339257410
2669+339328783+339264367+339186430+339264020+339465173+339727113+340095605
2656+340433264+340342198+339893389+339648413+339714471+339939314+340354933
2642+340838505+341144568+341243608+341299102+341446055+341741139+342137551
2629+342473800+342624590+342728968+343048807+343478640+343711897+343717398
2615+343740211+343995240+344396899+344755198+344948076+344891496+344708209
2602+344677099+344820562+344860478+344658632+344331281+344094419+344042738
2588+343966118+343717213+343389216+343069493+342886969+342931092+343051211
2575+343050748+342832630+342488500+342335168+342384376+342278495+342004859
2561+341848615+341851874+341886798+341896436+341805139+341620998+341539177
2548+341584202+341547868+341331021+341169808+341328802+341593632+341693133
2534+341754568+341877668+341930204+341888809+341984173+342287671+342505488
2521+342494209+342471766+342544919+342613773+342718452+342926146+343060363
2507+342976810+342882162+342925730+342916854+342844303+342876060+342932479
2494+342817838+342542330+342420386+342548062+342588187+342430856+342223624
2480+342026932+341988541+342240682+342569003+342666378+342511752+342269735
2467+342139608+342267793+342543001+342676710+342603002+342547970+342623295
2453+342632356+342478816+342419092+342586014+342759177+342817191+342859534
2440+342919212+342936269+342952749+343116205+343391689+343521053+343487262
2426+343584313+343856747+344064349+344201201+344429951+344645203+344699172
2413+344711283+344772440+344912390+345225895+345643895+345927331+345941568
2399+345873154+345975845+346184371+346351640+346453546+346506290+346577177
2386+346549765+346062242+344973015+343447623+341503260+339079717+336525192
2372+334110917+331530066+328783518+326381494+324578721+323359160+322726440
2359+322881691+324183673+326622008+329953825+333849138+336653354+336474782
2345+333863053+331737853+331287726+331634052+332323676+333157434+333799769
2332+334149215+334620629+335411905+336340565+337351900+338538039+340081691
2318+341902353+343444479+344459929+345363326+346342025+347245561+348167911
2305+349098281+349769507+350126373+350375532+350695879+351089332+351497324
2291+351946503+352442764+352837604+353063696+353275550+353535896+353742504
2278+353838908+353853446+353819632+353787528+353844571+353974466+354096896
2264+354250505+354506644+354784186+354906500+354873171+354898781+355108994
2251+355420142+355732030+355990665+356134775+356152156+356153542+356325041
2237+356640303+356874508+357026199+357280073+357613155+357807213+357861806
2224+357977024+358128068+358171659+358201198+358395532+358718468+358990509
2210+359124102+359217572+359406498+359717507+360055212+360200408+360169783
2197+360329102+360726970+361014520+361192097+361539695+361917547+362101827
2183+362268195+362582602+362995355+363427315+363822502+364121470+364397393
2170+364848237+365421741+365869880+366160989+366432706+366749702+367077746
2156+367354247+367640734+368026999+368375151+368563222+368668525+368758990
2143+368866211+368982424+369014666+368903308+368664295+368302669+367754912
2129+367004547+366275098+365707996+365098251+364301197+363375033+362467037
2116+361682811+360869208+359833026+358676680+357683488+356932175+356255217
2102+355479427+354496498+353422965+352507295+351705318+350855497+350031078
2089+349249232+348368116+347480598+346804171+346247054+345534640+344637691
2075+343798641+343223079+342829071+342338843+341677070+340993802+340334802
2062+339669562+339107406+338758561+338461627+337958017+337296451+336758426
2048+336413556+336051328+335541639+335033637+334750525+334599943+334274280
2035+333773351+333366284+333118743+332853127+332494667+332073270+331582834
2021+331126512+330747343+330309281+329881389+329592244+329336521+329064527
2008+328775128+328432130+328106236+327785103+327392597+327048236+326791080
1994+326287123+325468643+324926850+324747261+324493804+324246864+324115928
1981+323887040+323470542+323043390+322838100+322799177+322607177+322037995
1967+321341436+321082616+321210108+321191987+320897989+320491569+320049902
1954+319692458+319551607+319458069+319154918+318665915+317926574+317176833
1940+317177341+317651621+317871819+317822704+317749875+317785168+317789768
1927+317443095+316672090+316022127+315996241+316038399+315979599+316415072
1913+316938213+316880223+316563643+316678538+317180693+317638331+317945804
1900+318119314+318051962+317798343+317762495+317913538+317804352+317922067
1886+318573601+319096603+319480188+319962165+320396551+320729749+320980457
1873+320971697+320076643+318422858+318202336+319781305+321245540+321940388
1859+322272361+322545858+322848986+323149155+323344807+323226214+322708828
1846+321816826+321240710+322203946+323648397+324369617+324752624+325106415
1832+324591341+323110533+322779693+323780257+324572111+325552312+326743120
1819+327355570+327557995+327785774+327648575+327148940+327385479+328410635
1805+329271343+329446378+328856348+328384818+328798704+329233067+328763479
1792+328501747+330313256+332613815+333632662+333700614+333730961+334020892
1778+334724245+335218957+334348589+332490853+332971697+335802885+338344513
1765+339750250+339949161+340035719+341022716+342179409+343451113+344217103
1751+343045802+341241158+341816141+343777862+345242629+345841096+346299890
1738+347371458+347743555+346566661+347434441+350608257+353653380+355818542
1724+357123459+358000068+357983588+355748648+353782304+356606327+360902375
1711+363934462+365291823+365108744+364810077+365439654+365085330+363798025
1697+365102226+369220049+374101551+377419777+378909552+379470391+378829651
1684+378409756+382570754+387855786+391466740+393332380+394837132+396555588
1670+398171145+401849912+406938160+410355241+412453768+415695283+419544208
1657+421964516+421726359+421414101+426515061+431169893+435053580+442316998
1643+450679858+457321628+462047879+465294293+470790394+480790953+489752303
1630+496626265+502943250+509306183+515675542+523099179+530308605+535752609
1616+541442536+548896683+555863191+561510128+566653754+572085416+577399386
1603+582478989+587903301+593452655+598305843+602774660+607676756+612847378
1589+618042409+623485950+629282660+635267833+641277090+646607193+650730840
1576+656197126+664278746+671218165+676842543+683833273+692170062+700270727
1562+706535384+709197592+712528277+723871520+736207654+747478876+757973593
1549+768540376+777600741+783711280+787745711+794236506+811559744+829305952
1535+842219589+855744982+870810075+882902551+892667080+902028517+910296058
1522+918756363+929424520+940550315+952675242+964927105+973412095+977079213
1508+976963648+982044083+998210745+1012025051+1020682649+1025274012+1029367428
1495+1035465208+1039965875+1039474492+1036988359+1040845651+1048401680
1483+1054246234+1056564289+1056111828+1053947705+1048995871+1041884907
1472+1038867913+1042619440+1046332137+1045115928+1041558643+1041164426
1460+1040661671+1032933218+1024862045+1028519641+1033712498+1035219285
1449+1033178587+1030618491+1030319686+1031949249+1033746798+1032948658
1437+1027936082+1024979829+1027252860+1028865320+1029176421+1030717878
1425+1031601351+1031695653+1032597154+1032331262+1031626776+1033571786
1414+1035342709+1034332113+1031274625+1028641863+1026630287+1024828115
1402+1024122335+1022368331+1018866240+1016324358+1015636328+1016690099
1391+1016730408+1012703928+1006402013+1003873999+1005659899+1008342031
1379+1010403439+1010618390+1008515934+1007414920+1008961924+1010205868
1368+1010244421+1009273303+1005737467+1002681180+1004844563+1008679852
1356+1010202633+1009854827+1008515749+1006516839+1005195512+1004973996
1344+1004693866+1002873389+999247966+996420499+996702941+999012953+1001517946
1331+1003131700+1003462957+1003501417+1005147991+1007750892+1008776927
1319+1008704352+1010045926+1012894195+1016209994+1019890796+1023752803
1308+1027661314+1031738735+1035685706+1038669695+1040244342+1041341103
1296+1043277053+1046216941+1049392583+1052538918+1055511997+1057429642
1285+1058549701+1059742520+1060878110+1062177989+1063686070+1064856238
1273+1065640141+1065819128+1065130174+1063829833+1062452202+1061341851
1261+1059656447+1057384155+1056867994+1058710660+1060977959+1062525332
1250+1062981122+1062846326+1063619597+1065204968+1066591567+1067202583
1238+1066670428+1066229061+1066733573+1067297994+1067836898+1068310346
1227+1068219743+1068115642+1068649184+1069351266+1069430682+1069053477
1215+1068614422+1068222609+1068439872+1069439003+1070073410+1069719873
1204+1069596542+1070093750+1070417795+1070425006+1070150238+1069853467
1192+1069164975+1067553994+1065899099+1064888134+1064365871+1063875782
1180+1063164454+1062566843+1062219038+1061609130+1060192022+1058130985
1169+1055955213+1054689912+1054674935+1053941234+1051769531+1050050936
1157+1049369655+1048383190+1045654832+1041910423+1039975768+1040548047
1146+1041744287+1041709247+1039562876+1036533494+1034428079+1032761997
1134+1029968182+1026461931+1024499170+1024670114+1024401448+1021409046
1123+1017070263+1014340703+1013954807+1014274044+1013126805+1009716519
1111+1006544760+1005858856+1005014120+1002966396+1003654425+1007605649
1099+1011821564+1014727893+1015334287+1014293644+1014065565+1015997169
1088+1019724289+1023324194+1025576146+1027693857+1030219283+1032452559
1076+1034039594+1034520623+1034404966+1035723704+1039813607+1045438678
1065+1050047885+1052505820+1053027158+1052954306+1054114674+1055936076
1053+1057115027+1057870269+1057714580+1056272140+1054651822+1054326390
1042+1056420063+1060568303+1064784125+1066492088+1064807885+1061704541
1030+1059216836+1057957637+1058130522+1059001330+1058905272+1058247752
1018+1059010852+1060967327+1062528845+1063284457+1063649182+1063943087
1007+1064075109+1063312563+1061505584+1060025701+1059817313+1060343459
995+1060725749+1060919529+1061421822+1061916719+1061886487+1061680226
984+1061099256+1059124569+1056848210+1056449093+1056840721+1055669998
972+1053793495+1052762745+1051413867+1049507409+1048660639+1048709084
961+1049011218+1049383616+1049113378+1048035200+1047474939+1048604058
949+1049490768+1047990360+1044825997+1041873073+1040608326+1040351309
937+1040521513+1041922072+1043779253+1044994168+1044680385+1042741292
926+1041903397+1043291105+1044370208+1043803198+1042612968+1042413826
914+1044652927+1048189965+1049437053+1047317216+1044536252+1043469815
903+1043586860+1042593183+1040574304+1040335869+1041815567+1042602151
891+1041871778+1039743620+1037623136+1037307689+1038171747+1038150945
880+1037395703+1037901972+1038751700+1038560786+1039365676+1040918411
868+1040765680+1040900198+1044162098+1048891862+1051643518+1051883339
856+1052724192+1055523924+1057332474+1056564289+1056874651+1061226286
845+1065543620+1065834105+1065158279+1065893737+1066024002+1064984562
833+1063480826+1060371934+1055964459+1052661048+1051985222+1054718387
822+1060499796+1066623832+1069576757+1069276102+1068598242+1068910824
810+1069175699+1068716212+1069523227+1071745594+1072945439+1073378671
799+1073741823+1073361382+1071056363+1066901189+1064334622+1064779780
787+1066201418+1068017735+1068779356+1066249031+1063126364+1062688140
775+1063142636+1062117710+1061108132+1061347398+1059751857+1056295623
764+1054984557+1054703965+1053482763+1052659383+1052070185+1051263355
752+1051074012+1052539103+1054975127+1055835210+1055509501+1056230906
741+1056788485+1055444600+1053945487+1053302111+1052362889+1053098809
729+1057855754+1062215155+1060179726+1053969894+1049877218+1048914051
718+1048494780+1048337241+1049127800+1051367086+1054443434+1055035129
706+1053302111+1052184364+1051027324+1049332120+1047798707+1047296044
694+1048276500+1048741535+1048050454+1047144700+1046367916+1046342122
683+1045812001+1043142165+1040682750+1041527116+1045466784+1050168350
671+1051880658+1051436148+1057311303+1066406015+1068849805+1063231205
660+1053331326+1046986606+1046906173+1048734416+1049454342+1050336428
648+1048599158+1040209025+1033673946+1036168954+1037015447+1032371294
637+1035896128+1043367471+1038042037+1030025595+1029884975+1026075111
625+1017355570+1019870086+1035427487+1042558421+1033465004+1029719024
613+1037695156+1041151021+1038114334+1042472810+1052337095+1048570036
602+1029498710+1020443290
##END=
