##TITLE=Sample description
##JCAMP-DX=4.24
##DATA TYPE=INFRARED SPECTRUM
##DATE=24/8/2023
##SAMPLING PROCEDURE=Instrument type and / or accessory
##ORIGIN=Default
##XUNITS=1/CM
##YUNITS=ABSORBANCE
##RESOLUTION=4
##FIRSTX=4397.6552
##LASTX=599.8556
##DELTAX=-1.9287962
##MAXY=1.4909281
##MINY=0.50698793
##XFACTOR=1
##YFACTOR=1.388535e-009
##NPOINTS=1970
##FIRSTY=0.72512972
##XYDATA=(X++(Y..Y))
4398+522226481+521303180+520613955+520300336+519742251+520060593+520580945
4384+519623689+518068556+517251840+516993638+516651902+516234315+516563732
4371+517701793+518624923+518950004+518638617+518318816+519263838+520631426
4357+520923110+520360046+519034526+517233468+516567595+517635043+518896561
4344+519017183+518268034+517421742+516560341+515341191+514889993+516359531
4330+517882041+518057609+517723085+516795362+515569301+515206875+515706537
4317+516553730+517294122+517640881+517463810+516745439+516245047+516601850
4303+517250338+517526697+517556703+517551551+517289830+516245691+514634152
4290+513944327+514405699+514551133+514431283+515173478+516417954+516978443
4276+516950455+517232137+517072795+515935763+515725639+516850136+517081895
4263+515637468+514089074+513970555+515093764+516198043+516638595+516337467
4249+515172791+513873585+514048767+515826773+517096232+516353264+514629774
4236+513801683+514177588+514471290+513989400+513222565+512493032+511712461
4222+510914676+510973313+512336738+513342200+513123662+512936761+512973764
4209+512485477+511936235+512110259+512893062+513493773+512965436+511642663
4195+511209193+512143140+513081380+513303180+513357825+513269998+513299918
4182+514074780+514779157+514686866+514009961+512929721+511843686+510916436
4168+510345259+510500223+511024438+511571105+512191218+512693584+512916200
4155+512189329+509992276+508247022+508543385+509506994+510062160+510206178
4141+509652643+509142250+509728923+510501210+510027518+509108252+509145040
4128+509615898+509724373+509680331+509647406+509584777+509477032+509606970
4114+510060614+509882084+508684827+507430950+507098143+507960747+509209644
4101+509956389+510376681+510731037+510667850+510185101+509877105+509654704
4087+508677916+507280580+507103380+508198301+508848462+508580216+507877341
4074+506873252+506328603+506803754+507289938+507207562+507436702+507884338
4060+507829993+507781229+507660949+506865053+506579336+507441811+507566039
4047+506289712+505530518+506196433+506997223+506743958+506382519+507269891
4033+508003973+507159012+505824906+504789396+504574249+505674106+506876300
4020+507101963+506687596+506330106+506269236+506206135+505959394+505581686
4006+505500298+505827181+505811556+505451963+505396030+505601303+505785886
3993+506045419+506567488+507036458+506788344+505526054+504124253+504003201
3979+504865375+505430543+505615426+505561296+505096104+504793388+504937148
3966+504858936+504422161+504162371+504288832+504709853+505124092+504753724
3952+503384848+501916297+501635258+503071314+504404476+503957613+503314534
3939+503721003+504227104+504005390+502859988+501463553+501199771+502021938
3925+502715326+503405710+504083645+503018257+500679333+500372367+502452746
3912+504311497+504823865+504349015+502330063+499180132+497022829+495765776
3898+496299779+499417472+501706044+500161556+498990527+501233726+501982575
3885+500496295+500268915+499652708+500141810+502486744+502349766+499895284
3871+497190971+495579304+497610790+499635194+499362741+499938812+501728451
3858+503234692+501522190+492024579+487185069+492833310+498835735+501315157
3844+500380094+498096415+495166654+491758264+491393133+493522148+495590765
3831+498078301+499995431+499879573+499371798+497112416+491999338+492050248
3817+495159700+497166804+500559826+503455805+502861662+499076981+497328722
3804+497701751+495405023+494592772+496880185+498794569+501045451+503527406
3790+504834168+504723718+503485038+502481893+502491509+501520731+500192935
3777+501202862+503140125+503675888+501507896+498950863+499121195+501035535
3763+503703361+504726165+502006141+499572650+500100558+499889532+495182966
3750+491819992+494595391+496133311+494311691+495943190+499668419+500033206
3736+495142229+490893643+492569056+497075972+500490071+501083226+500026639
3723+499441511+500053296+501812887+503901852+505123748+502972026+498105859
3709+498177246+502788001+507488643+510319503+511876225+514940389+519911810
3696+525153624+528885507+529865256+528252645+527665284+529944842+532033849
3682+531748046+529631952+526149557+518343799+511354842+510882696+509084857
3669+506725199+508189415+509291375+508179499+506633294+505344690+502528983
3655+499478470+498479618+495590465+488208432+486110753+490977778+495127119
3642+495442455+493285581+490992116+488562660+485799967+483124028+477111172
3628+468728227+467861932+470188236+469747812+465066229+459554623+458257348
3615+457624271+454659181+451593815+448535060+445782626+445187196+444868511
3601+442793068+440574252+439280282+436972650+434213220+433250555+431833859
3588+427346431+424416112+425430674+426513146+425665567+423821669+422038425
3574+420418730+419033113+417375772+413404704+408225305+407338105+409048073
3561+409405907+408590135+408215088+407582140+405510904+403644427+403011264
3547+402113890+401081041+401180372+401743393+401655523+400896672+399773678
3534+398308432+396496342+394464770+393217847+393230467+392963337+391940833
3520+391480921+391677695+391664688+391328962+390702066+389358817+387705941
3507+386741215+386113032+385189258+384565625+384547682+384347388+383415759
3493+382369817+381721158+380997335+380141771+379517065+378839731+378239279
3480+378300878+378822389+379117207+378418667+376938655+376019303+375957446
3466+375675163+374557362+373229653+372429077+371925552+371318489+370766113
3453+370547747+370633643+370448373+369721459+369063571+368663927+368452000
3439+368438822+368228655+367922891+367846568+367657735+367290587+367137726
3426+367030067+366660600+366091183+365411403+365124355+365496483+365908060
3412+365998463+366038813+366217430+366404588+366524696+366645533+366771565
3399+366696315+366305300+366080623+366282119+366554701+366693010+366767186
3385+366961385+367358711+368080259+369136932+369888099+370168751+370636476
3372+371207481+371631979+372507203+373996574+375318961+375935940+376332536
3358+377257640+378671847+380134732+381324305+382186994+383145409+384315151
3345+385343707+386340541+387325142+387960880+388547253+389404104+390147888
3331+390529760+390690090+390738167+390662617+390551781+390668841+391061188
3318+391529385+391874812+391945641+391704095+391318488+391369012+392015696
3304+392559057+393025881+393975882+395022554+395415072+395122272+394802299
3291+394981860+395572139+396120136+396631860+397607918+398828183+400020719
3277+401293054+402022371+402267910+403074967+404306779+405119760+405318809
3264+405082843+404829364+405285498+406371233+407000017+407013067+407276076
3250+408081588+409131693+410110627+410880897+411413998+411572439+411357421
3237+411163394+411310503+411775051+412442083+412786137+412465778+412188603
3223+412402204+412843486+413202307+413058118+412679250+412870916+413545073
3210+414104660+414226743+413986871+414097234+414761175+415099005+415069257
3196+415527195+416370052+416935735+417060564+417077821+417532753+418522290
3183+419474610+419944352+420022692+420010158+420303130+420917362+421314645
3169+421560784+422089722+422727993+423467355+424395078+425197713+425883160
3156+426363377+426054994+425270173+425231883+426026835+426522676+426354405
3142+426091696+426060060+426241037+426498637+426722970+427048008+427457825
3129+427756206+428023851+428278361+428480329+428831123+429193592+429229221
3115+429223641+429607101+430044821+430152780+430229404+430372005+430369515
3102+430440515+430830715+431229972+431146567+430739926+430591015+430823976
3088+431313550+431824802+432019000+432088198+432518147+433399810+434313882
3075+434584146+434051388+433228963+432755701+433061165+433781940+434105475
3061+434008376+434025804+434250309+434344274+434204034+434004813+433924455
3047+434032200+434079419+433800999+433254676+432737028+432641775+432972651
3034+433263090+433226946+433062882+433103361+433544772+434287611+434708289
3020+434698459+434940606+435170605+434890940+434691204+434938159+435470874
3007+436142928+436773172+437323702+437741932+438022370+438349253+438767270
2993+439428120+440703631+442216783+443090461+443450270+444046902+445021586
2980+445787692+445802158+445321040+444896585+444903024+445327135+445712270
2966+445990862+446185876+445874403+445193935+444962090+445365898+445804089
2953+446039454+446259623+446556029+446994521+447493883+447746117+447534748
2939+447101021+446698072+446170937+445874961+446376984+447052472+447076940
2926+446696441+446316114+445902262+445442865+445165904+445076661+444873190
2912+444809874+445314687+446224939+447136822+447555568+447430609+447344241
2899+447569476+447842787+448052611+448325622+448663881+449222996+449879468
2885+450048726+449920720+449813919+449458060+449157748+449240853+449262703
2872+449031073+448887098+449071423+449451450+449785760+450094657+450455753
2858+450758598+450686782+450049284+449227675+448732993+448800001+449425608
2845+450212962+450675664+450821614+450966748+451300457+451955640+452696376
2831+453023861+453175520+453667240+454277523+454690731+455189363+455781188
2818+455988178+456127732+456852628+457799839+458298170+458374536+458421927
2804+458646989+459085653+459591196+459919110+460185124+460548753+460850610
2791+461123364+461558937+462021682+462329936+462726145+463359265+463777582
2777+463761141+463758866+464061582+464513810+464943717+465304813+465523480
2764+465564302+465768546+466389260+466948718+467132958+467337802+467858884
2750+468560900+469157533+469592033+469883030+469891143+469877106+470314139
2737+470998512+471428119+471691686+472067548+472546434+473001710+473327392
2723+473809325+474623594+475384033+475944865+476432293+476955049+477489009
2710+477605211+477327649+477459562+478131530+478741512+479145191+479431037
2696+479619612+479817975+480170571+480724449+481175518+481474543+481851049
2683+482128181+482235368+482351527+482545339+482828438+483115701+483400388
2669+483750623+484031619+484104207+483984743+483798658+483922114+484563475
2656+485302966+485639122+485657967+485832033+486211244+486500996+486692447
2642+486801781+486879434+487253794+487840682+488142068+488189888+488344422
2629+488637566+488887182+489002396+489159764+489501329+489984378+490639905
2615+491395966+491969075+492159110+492227362+492633144+493310521+493815549
2602+493942224+493956905+494120669+494328561+494572168+494755935+494649650
2588+494543793+494623379+494663601+494875871+495352267+495606176+495720489
2575+496135843+496479812+496410400+496430103+496730501+496899416+496959169
2561+497271630+497695656+497726949+497404315+497240422+497331812+497444151
2548+497579240+497786745+497903762+497965404+498274774+498921072+499601325
2534+499787797+499519465+499435200+499629227+499808058+500011357+500255007
2521+500299907+500071196+499858754+500016251+500542570+501021927+501203935
2507+501244157+501277897+501374867+501669771+502127837+502496789+502597794
2494+502366765+502006227+501962228+502206350+502297997+502047050+501655949
2480+501454539+501438828+501351816+501160923+501088420+501123620+500955392
2467+500571631+500263721+500286386+500556692+500498441+500005176+499803851
2453+499989250+499867983+499462373+499302172+499362097+499396481+499374374
2440+499216019+498836336+498477858+498310789+498093454+497758972+497528587
2426+497413759+497265964+497047254+496743551+496411816+496168467+495903269
2413+495641204+495607807+495641290+495593513+495624806+495625321+495447692
2399+495290711+495211383+494971296+494398788+493675480+493242483+493120444
2386+492786262+491855964+490281986+488167695+485639036+482731897+479488387
2372+475828320+471687908+467635023+464251917+461620278+459926450+459376479
2359+459762686+461008836+463502725+467395881+472004576+475164680+474814745
2345+471515989+468243503+466593031+466140116+466606166+467843602+468971018
2332+469297730+469536701+470312035+471414382+472762439+474282158+475757148
2318+477268583+478826850+480214742+481496950+482860332+484217017+485327306
2305+486013568+486303621+486551392+486995078+487448723+487805740+488199632
2291+488789267+489541250+490185059+490560706+490687768+490718418+490824016
2278+490931461+490965802+491019030+491104411+491207820+491352353+491502981
2264+491716454+492105151+492532311+492772054+492872244+493027036+493353362
2251+493779190+494152520+494543450+494877674+494952967+495049122+495376134
2237+495665886+495800847+496048746+496562788+497017807+497223080+497533652
2224+498082207+498449012+498517007+498713352+499108059+499478985+499916919
2210+500323259+500488526+500672980+501121602+501728923+502224980+502546798
2197+503029633+503709886+504209204+504462941+504813735+505457157+506055592
2183+506379342+506765679+507380469+507987232+508460366+508881859+509308589
2170+509733387+510166857+510623249+511173650+511792046+512293039+512759733
2156+513367612+513985365+514484640+514835348+515049250+515329945+515811148
2143+516222854+516198644+515844717+515596087+515611069+515731735+515722634
2129+515390041+514807832+514148871+513328249+512330213+511416184+510742713
2116+510218197+509611348+508766473+507792175+506793753+505690933+504516427
2102+503449022+502519110+501612379+500647868+499615491+498530443+497391866
2089+496236377+495197518+494373676+493687843+492914097+491903870+490847025
2075+489966864+489162898+488292782+487287663+486160333+485126668+484380867
2062+483853990+483290153+482609170+481922779+481105720+479999210+478893815
2048+478138484+477593749+476996216+476292740+475564324+475012807+474619602
2035+474130500+473490211+472812191+472086093+471305178+470626599+470072163
2021+469532322+468924744+468283124+467862018+467666231+467370898+466843334
2008+466286323+465919131+465615771+465085417+464361508+463808832+463477913
1994+462923477+462060745+461433635+461189685+461031287+460842068+460407439
1981+459663999+458985892+458566288+458340152+458162738+457654877+456693543
1967+455892195+455766765+455925935+455872578+455677135+455485211+455085396
1954+454423215+453838130+453425823+452915644+452196028+451295134+450597968
1940+450782980+451372659+451493968+451174554+450800966+450573371+450427164
1927+449972704+448729043+447233320+446614151+446349597+445970085+446102728
1913+446257992+445739013+445119201+445161698+445518114+445594781+445428227
1900+445150580+444566610+443698383+443185500+442959923+442359727+442120413
1886+442697729+443103253+443141630+443197777+443244481+443203959+443095140
1873+442670428+441106151+438712496+438397374+440354598+441901876+442221075
1859+442068988+442074139+442254129+442286323+442034647+441544042+440730031
1846+439246155+437919218+438725202+440392115+441072926+441078378+440959300
1832+439802308+437402643+436354426+437150709+437920248+438770446+439686364
1819+440003160+439841800+439401935+438475457+437549193+437655135+438310405
1805+438432015+437581131+435926108+434989027+435460873+435694606+434398619
1792+433068977+434381620+436517889+437227504+436830822+436207232+435686321
1778+435712721+435541832+433619636+430571311+430623467+433535843+435924262
1765+436789098+436155549+435532645+436182163+436957626+437631784+437577997
1751+435271568+432428431+432470799+434050444+435050540+435057881+434758212
1738+435119008+434569380+431847939+431803897+434916954+437863113+439586260
1724+440018227+439927438+438834664+434636559+430401538+432695132+437188999
1711+439785438+439844333+437759618+435787155+435425029+433661703+430204506
1697+430169264+433594052+437653504+439780759+439666747+438554699+435517965
1684+431373947+433274251+437499742+439745130+439200052+437424707+436307551
1670+435190008+436046301+438962971+440071327+439172451+439608882+440910321
1657+440553089+436655855+430396000+431476412+433682566+433225186+435859357
1643+441355424+444979089+445745066+443918638+442991946+448383916+454958806
1630+459155022+461882043+464670277+467817846+472542013+477802285+481110614
1616+484385203+490616425+496947665+501570525+505430457+509856543+514632564
1603+519393604+524187440+528625459+532337252+535846948+539750535+543896356
1589+548278657+552798623+557094986+561059872+564666410+567453570+568914523
1576+571885409+578452014+583983538+587801401+593365764+600587081+607138189
1562+611527702+611964048+613178003+624255002+636367125+646766060+656043202
1549+665232131+672846224+677565411+679963745+683856086+699680989+717592667
1535+729662766+740608968+753557595+765600993+775912831+785269473+793142582
1522+801717365+813280676+825289904+838005270+851089631+861927830+868777663
1508+872136559+882157614+899507903+912213310+920980316+926962781+933861635
1495+944585995+953444606+956794831+958893153+966613617+975641701+981912115
1481+986443156+990542788+993287494+992803887+989885243+990591638+996348138
1468+1000576291+1000541778+1000150377+1002249644+1002093564+994401860+989759812
1454+998116014+1006138421+1008406131+1006480029+1006721360+1010917920
1443+1014441910+1015665910+1014379753+1010420833+1010473118+1015914625
1431+1020331224+1022714320+1024817708+1025588320+1024612864+1022129836
1420+1018025482+1017825531+1023010425+1026445043+1026210666+1024896606
1408+1023367314+1020731555+1019200288+1020046966+1018733336+1014267801
1396+1011172730+1011359459+1013970150+1015477549+1012729752+1006988362
1385+1003803403+1005142360+1008604622+1011056743+1010638899+1008467430
1373+1008033188+1009925893+1011100614+1011152383+1010275399+1006763428
1362+1003844183+1006074375+1009782176+1010233331+1008241294+1007501674
1350+1007971030+1007559281+1005971267+1004066198+1002140697+999626848+997828408
1337+998525874+999893849+1000001938+999755798+1000398491+1001963068+1004701249
1323+1007347569+1007962102+1008081179+1009833688+1012376726+1014904054
1312+1018376791+1022906115+1027019311+1030627866+1034690581+1038368248
1300+1040541777+1041862790+1043854656+1047741803+1052286151+1053860429
1288+1052652999+1053750709+1058190575+1061897946+1063831690+1065340033
1277+1065594844+1064430683+1063766785+1064048467+1063606241+1062005348
1265+1059956992+1057758651+1056678540+1057312046+1058121979+1058511148
1254+1059057686+1059494675+1060195490+1062363439+1064790233+1065246626
1242+1064106332+1063652172+1064607367+1065303975+1065093894+1064644971
1231+1064544352+1065468812+1066972005+1067730083+1067185348+1066342448
1219+1066476721+1067027294+1066982822+1067020511+1067655992+1068452189
1207+1069423611+1069789944+1069512039+1070441650+1072150460+1072742070
1196+1072486315+1072378828+1072446308+1072799763+1073406740+1073741823
1184+1073607893+1072863122+1072408790+1072977392+1073035943+1072361056
1173+1072702406+1073689024+1073271866+1070886109+1068593330+1068507220
1161+1068625096+1067201145+1066609535+1066978444+1066676844+1066106783
1150+1065596904+1065164379+1064527267+1063168994+1060887633+1058145502
1138+1055534983+1051839202+1047026565+1044134879+1043653933+1042470197
1126+1039375642+1035853454+1033153305+1031083228+1028408663+1025289897
1115+1022647355+1019490384+1015564432+1012898796+1011792843+1010496899
1103+1008753061+1007447072+1006786179+1006600480+1007120918+1008257520
1092+1008658108+1008218114+1008599729+1009974658+1011138132+1011074858
1080+1010082574+1009665932+1010283813+1011650156+1013330720+1014387565
1069+1014637139+1014763256+1015008623+1014860270+1014745055+1015339842
1057+1015747642+1015999104+1017057838+1018193495+1017649877+1014994972
1045+1012485072+1012380676+1013983200+1015215871+1015442951+1016166087
1034+1018167654+1018839536+1016741128+1014964495+1015167107+1015493518
1022+1014662122+1013340164+1012530059+1011408481+1009129267+1007526142
1011+1008774181+1011905224+1014022348+1014309182+1013071016+1010587301
999+1008540061+1007470767+1006463459+1005989553+1006096955+1005460100
988+1004386256+1003803146+1003288546+1003109114+1003348127+1002497242
976+1000561353+998942860+998124943+999009568+1001354201+1002229297+1000808694
962+998744798+996701250+994809574+993031396+991471712+989989640+988033231
949+986849153+988085687+990860871+992991560+993004352+991190374+989231819
935+987889772+987429602+988494775+990425170+992242067+993772475+994739089
922+995701926+998155335+1001394895+1002509605+1001838582+1002158039+1003256780
908+1003859036+1003633158+1002275914+1001417561+1002924788+1004768815
897+1004408921+1002629627+1000625055+998881647+998045186+998083734+998704619
883+999766959+1000696914+1001218468+1001742255+1002504797+1004318776+1007184793
870+1008303366+1007027511+1006661607+1008320193+1010046259+1011450120
858+1013839311+1017112869+1020004985+1021516161+1021485512+1021027059
847+1021664085+1023537388+1025685162+1028314397+1031455656+1034376189
835+1037266759+1038551114+1036094013+1032061346+1030724107+1032494558
824+1034508230+1036926010+1040712280+1043657453+1045630688+1048608227
812+1050718225+1049678636+1047852295+1047670888+1048870935+1049546595
800+1048647976+1048515334+1049975343+1051131434+1052236356+1054945090
789+1058431134+1060168618+1060887118+1061818533+1060452361+1056675449
777+1054518575+1054766345+1054619366+1054142369+1054677574+1054483805
766+1052426262+1050915343+1052309674+1055079450+1056515677+1056657763
754+1056148228+1055418911+1055269785+1054504152+1051556490+1048706013
743+1048687383+1048815475+1046184265+1043561469+1043297473+1044924121
731+1048311949+1050565837+1048578350+1045438636+1043091427+1039701881
719+1037439323+1039133623+1042013118+1041998695+1039935143+1038727283
708+1039271159+1041961435+1044091437+1043144827+1041689454+1040223865
696+1038841209+1040252025+1043353277+1045283672+1046514540+1048591743
685+1050522739+1049402620+1043770177+1036141747+1031644618+1032685237
673+1037346344+1040558089+1037020105+1030561931+1030921053+1036228630
662+1044546284+1051916727+1052097361+1048257776+1047032918+1048319419
650+1050328540+1051071680+1048580325+1045736115+1042733507+1038032306
638+1036331224+1042640100+1052949104+1046857264+1024513876+1014008011
627+1013765048+1006288578+998659203+1000770490+1007350316+1013649405+1021945682
613+1021550846+1011596327+1012004556+1024562125+1038144516+1045716197
602+1050495180+1058977585
##END=
