##TITLE=Sample description
##JCAMP-DX=4.24
##DATA TYPE=INFRARED SPECTRUM
##DATE=24/8/2023
##SAMPLING PROCEDURE=Instrument type and / or accessory
##ORIGIN=Default
##XUNITS=1/CM
##YUNITS=ABSORBANCE
##RESOLUTION=4
##FIRSTX=4397.6552
##LASTX=599.8556
##DELTAX=-1.9287962
##MAXY=1.3464833
##MINY=0.16821288
##XFACTOR=1
##YFACTOR=1.2540103e-009
##NPOINTS=1970
##FIRSTY=0.20493548
##XYDATA=(X++(Y..Y))
4398+163424072+163470997+163559631+163524707+163048967+162477500+162461232
4384+162605727+162391444+162285818+162507527+162863679+163344623+163593758
4371+163324482+163187592+163659755+164326523+164822369+164961374+164826849
4357+164721841+164581172+164219709+163649952+163144731+162810491+162417610
4344+162075956+162057597+162041781+161595344+161227999+161355442+161293378
4330+160912593+160857398+160992660+160810829+160321673+159845850+159489259
4317+158875227+158191776+158270951+158949922+159418925+159484019+159397559
4303+159206959+158785262+158418535+158353703+158155854+157557745+157272438
4290+157956781+159040743+159624664+159701747+159846836+160269211+160568966
4276+160438244+160228940+160225827+160127318+159808158+159441954+159098030
4263+158777039+158557243+158488335+158489285+158564385+158581781+158404442
4249+158028280+157547894+157574761+158138196+158314703+157956817+157796601
4236+158060803+158336187+158392310+158251784+158042361+157859247+157849872
4222+158314382+158893705+159086658+159064104+158941260+158803443+158834528
4209+158837832+158704958+158911184+159564287+159950859+159824176+159750336
4195+159987422+160140140+159806982+159229810+159142376+159561507+159624592
4182+159155317+158750683+158617608+158721832+158976124+159048419+158856678
4168+158628968+158501917+158432497+158301466+158325101+158741284+159141033
4155+159063130+158647838+158166061+157683548+157459866+157577434+157533349
4141+157256183+157339410+157807569+157952587+157687065+157700505+158012749
4128+158037085+157828150+157709262+157494766+157190602+157216138+157680815
4114+158298269+158565205+158245652+157726647+157529832+157805549+158126919
4101+157944506+157444086+157312163+157497760+157427176+157277940+157396447
4087+157481077+157315549+157274910+157720884+158243466+158347048+158293350
4074+158342319+158366025+158277664+158109772+158027020+158013819+157775141
4060+157590256+157894349+158223455+158229717+158112612+157868789+157586121
4047+157443729+157483679+157723902+157978895+158074195+158085531+158032843
4033+157775533+157409257+157204766+157065987+156903679+157040284+157386953
4020+157498735+157462730+157336748+156950735+156530084+156183819+155938629
4006+156116646+156542371+156662351+156442246+156159875+156023900+156024292
3993+155721566+155032874+154637153+154788813+155069236+155180958+155029547
3979+154683389+154249655+153774699+153405714+153088277+152808556+152874838
3966+153108810+153000903+152707516+152774963+153148439+153313111+153032879
3952+152292818+151050899+150141804+150361826+150348054+149591607+149889901
3939+151111049+151719140+151106106+149412069+148385550+149166642+149716198
3925+148972263+148668943+148905494+148093316+146935491+147396983+149118505
3912+150534602+151036235+150030165+146517466+142112795+140338525+141070328
3898+143485805+146498489+147454270+145391807+144240043+145677102+145781338
3885+144144255+143388545+142985349+144029978+145664684+144965844+142947039
3871+141101104+140489211+141829235+141907591+141257589+143081053+145277863
3858+145406090+141928207+134476131+134139943+140746759+145697635+146816496
3844+144661003+141239064+137736940+135225901+136432065+139526312+141668948
3831+143125899+144019403+144175460+144265686+142212040+137633654+137439370
3817+139649156+141504276+145087750+148190137+148027414+144796039+142731116
3804+141961574+139619414+139524054+141843352+144095251+146780991+148983647
3790+149836440+149559048+148394699+147709691+148104842+147671167+147116965
3777+148554773+150100440+149753795+147585967+146054488+146373315+147259083
3763+148277832+147787357+145381755+144586854+145340046+143873506+139040174
3750+137341361+140557324+142331914+142122325+144324078+146729455+145309448
3736+140103424+138258749+142946041+148597539+151560920+151348349+150452397
3723+151420311+153733727+156503478+159003335+160043746+158586546+158782387
3709+166849837+178951833+191331352+204066535+217805174+229939229+237867485
3696+241752948+241892500+238146826+232626930+231646503+235030988+237880413
3682+238313874+236611852+233618693+229244204+228257812+231461393+233005896
3669+235723232+241991270+247507102+250708924+253001402+255063996+256210853
3655+257872806+260045292+258929639+255129423+258804157+267890154+275612718
3642+280942061+284653917+287339764+289201990+291100339+293192735+293135674
3628+293375896+299439716+306590360+310824561+311780318+312758059+316452543
3615+320688145+324987867+329584279+332995690+336839302+342562608+347589557
3601+350617486+353130842+355807920+358191325+360979816+363815671+364428729
3588+363231298+365497825+370596333+374209561+375793492+376635769+377595163
3574+378968601+380358224+380152105+376736749+373800412+375864789+379251816
3561+381225336+382522534+383637142+383967198+383785463+384260989+384950596
3547+384426112+383810797+384979257+386859687+387953309+388210097+388270604
3534+388224831+387739585+386605157+385340803+384786660+384667927+385207145
3520+386639903+387660065+387584562+386940086+385897798+384371499+383383586
3507+383455501+382981924+381832714+381901230+382652461+382590837+381911212
3493+381082481+380106998+379173675+378720464+378583598+377919658+377009126
3480+377141834+378001032+378229776+377455112+376172933+375222333+374626838
3466+373634528+372388236+371408523+371021167+371339674+371666332+371102160
3453+370075082+369508937+368684841+367403661+367036624+367321740+367646094
3439+368391882+368910424+368663808+368346965+368117342+367933348+368278734
3426+369206900+370168219+370685240+371019693+371708445+373180843+375505999
3412+377818037+379502282+380930619+382485555+384305145+386550306+388889912
3399+390896609+393022205+395619002+398488462+401630181+404815961+407408884
3385+409685630+412780388+416410205+419105178+420621851+421975350+423933494
3372+426617107+429508859+431754805+433107353+433951222+434673127+435672470
3358+437347803+439091106+439902892+440263844+440951573+441609073+441516292
3345+440870105+440464378+439984360+438945661+438101316+437910621+437683279
3331+436927152+435770955+434552112+433925223+433919662+433622924+432964046
3318+432666596+432493630+432078825+431894546+432085907+432549622+433344962
3304+434595983+436642488+439626308+443279557+446746960+449595696+452866510
3291+457150309+461179911+463820365+465939830+468467778+470620990+471937890
3277+473098365+474400578+475564047+476486961+477665070+479245768+480342789
3264+480853132+481551128+482033807+481689348+481219883+481531925+482596767
3250+483523816+483203741+481661495+480678882+481260332+481936035+481740682
3237+481873389+482636408+482547572+481472986+480328054+479180460+478288537
3223+477712173+477095646+476712829+476233334+475294593+475045196+475919058
3210+476648947+476372458+475415417+474674928+474573449+474526773+474186022
3196+474124802+474889579+476013598+476360528+476079048+475998245+475457625
3183+474333131+473851450+473979641+473967664+473772738+473562222+473357695
3169+473122891+473011858+473146514+473343579+473103926+472265571+471722669
3156+471773765+471188941+469847990+469202754+469195529+468651629+467854008
3142+467567584+467371613+466619527+465574553+464641705+464004121+463639367
3129+463002924+461994786+460871766+459684816+458709143+458179788+458149510
3115+458159112+457493152+456240181+454970432+454055123+453443444+452738461
3102+451848962+451265468+450992639+450276629+449036824+447959529+447668971
3088+448283359+448824645+448318295+447223223+446457828+446406351+447013658
3075+447673249+447599052+446701806+445408386+443674827+441299026+438781725
3061+436468523+434331425+432718738+431334438+429297393+426902342+425121300
3047+424202141+423763808+423461937+423252942+423226610+423272002+423101698
3034+422697778+422354460+422245470+422240290+422139333+422021408+422316625
3020+423290730+424540373+425621376+426821681+428580574+430903425+433711380
3007+437021264+440962125+445738015+451275117+457679569+465681641+475787396
2993+488029538+502520192+518433788+532876435+543501707+551226291+558125781
2980+564530518+568653709+568727858+564647207+556917870+546524360+535633056
2966+526260041+518486120+511382483+505213596+500811254+498243142+497261433
2953+497328927+497593961+497998214+499049937+500554491+502210859+504013908
2939+505338508+505541657+504638706+502572191+499473678+495859499+491625893
2926+486690394+481896965+477598051+473176269+468281503+463035530+457731283
2912+452970081+449136687+445592332+441621146+437571248+434043433+431280205
2899+429279141+427683470+426290758+425317271+424745755+424186265+423410128
2885+422536837+421619199+420226249+418040716+415479829+412818936+409672844
2872+405944923+402227078+398803499+395416733+392292126+389821524+387828706
2858+385967621+383830356+381127018+377938742+374399852+370754707+367384125
2845+364277080+361175953+358179585+355394873+352732412+350436749+348713386
2831+347222402+345660004+344056395+342476457+341090946+340090794+339250989
2818+338330214+337543501+336953733+336262273+335391073+334482371+333490513
2804+332372009+331431057+330815266+330201781+329335476+328179992+326847764
2791+325666922+324815875+324010150+322984972+321890994+320830097+319841424
2777+319079593+318334137+317316328+316261752+315491414+314919684+314328372
2764+313739389+313326628+313059978+312785889+312566057+312218319+311499884
2750+310865533+310577493+310325816+309989841+309526317+308940304+308406837
2737+307972426+307582266+307247266+306974722+306742437+306483843+306174652
2723+305937971+305741215+305460258+305168511+304863432+304521089+304199279
2710+303771165+303262462+302981434+302846088+302532763+302096545+301732432
2696+301426711+301045629+300581083+300067651+299463339+298880725+298316553
2683+297605557+296853994+296149319+295379385+294521708+293597653+292613448
2669+291658926+290868339+290253523+289610425+288834074+288155590+287658746
2656+287052414+286227818+285534552+285161931+284782513+284291135+283951738
2642+283805889+283772213+283694689+283385855+283082392+283126097+283360212
2629+283454776+283409312+283430154+283617641+283974815+284493048+284995833
2615+285310941+285606799+286034271+286431965+286644453+286702156+286663014
2602+286535512+286383222+286292651+286296739+286328394+286209661+285962927
2588+285765340+285479059+284889006+284142077+283419507+282753666+282236503
2575+281806939+281228556+280418909+279545475+278836594+278218166+277538707
2561+276941311+276489265+275953945+275218613+274492074+273962553+273557444
2548+273170350+272840911+272625167+272531126+272571338+272633722+272620057
2534+272670987+272872329+273106206+273333263+273651984+274047943+274395895
2521+274686097+275025517+275440180+275831647+276207666+276616126+276971564
2507+277295703+277697960+278065400+278209372+278185440+278189932+278281810
2494+278322093+278198084+278069298+278087170+278040209+277780546+277565205
2480+277495929+277386108+277258154+277177731+277000131+276652677+276268981
2467+275986931+275803080+275664218+275533269+275394835+275317240+275326627
2453+275238718+274906760+274496518+274249332+274109614+273796930+273300205
2440+272951373+272855360+272733585+272429623+272073686+271759837+271529596
2426+271419989+271365589+271344438+271423910+271584993+271628223+271435127
2413+271282814+271436244+271761643+272085497+272329404+272393761+272372301
2399+272457999+272642040+272772038+272739099+272673672+272801008+273055871
2386+273067730+272542866+271469112+269821561+267573216+265005009+262509263
2372+260149504+257675266+255113571+252753337+250765320+249367022+248692768
2359+248783173+249786153+251760077+254833374+258693338+261499224+261435081
2345+258991144+256857420+256310835+256549703+257008475+257517724+257918127
2332+258253745+258897294+259857567+260716884+261434772+262415793+263811476
2318+265295686+266531070+267418905+268120656+268876902+269689163+270452039
2305+271129169+271611730+271860080+272067483+272393499+272778597+273057986
2291+273218642+273347380+273398999+273386189+273320144+273108108+272831310
2278+272562734+272325958+272212429+272023089+271601011+271227677+270999147
2264+270785637+270681829+270679524+270593635+270464207+270474236+270583986
2251+270534292+270322826+270200955+270162835+270048475+269838601+269652184
2237+269639636+269731846+269753354+269695865+269644959+269728590+269880809
2224+269820278+269617272+269590512+269704777+269718466+269709150+269893619
2210+270154185+270310990+270388490+270489850+270699677+270949857+271166481
2197+271389925+271616649+271803209+271946516+272023112+271995521+271914242
2183+271820368+271771173+271802401+271744532+271551508+271340326+271059203
2170+270707401+270470196+270392221+270282876+269990202+269612566+269312953
2156+269042002+268750635+268513692+268296332+267999571+267595080+267125947
2143+266638823+266185684+265822688+265489447+265136551+264814290+264498254
2129+264102533+263684163+263366702+263074100+262679377+262234675+261850338
2116+261522800+261158093+260726866+260323254+260066087+259952796+259927605
2102+259937158+259882973+259815621+259886656+260076021+260268190+260423284
2089+260597224+260860761+261248188+261778637+262347372+262759301+263030609
2075+263312517+263668692+264174210+264771202+265187220+265420622+265795334
2062+266364568+266927147+267479508+268076524+268599367+268988291+269345988
2048+269714022+270072288+270365461+270509124+270697942+271129573+271523132
2035+271643290+271649446+271689728+271768440+271859153+271858441+271743890
2021+271631099+271413833+271065952+271019110+271310572+271428069+271264609
2008+271109182+271019514+270828201+270497313+270180113+270010640+269866074
1994+269400245+268729056+268552787+268944610+269391095+269663971+269752570
1981+269776335+269855451+269966840+270117871+270309184+270300605+269871992
1967+269522875+269945475+270717881+271155668+271250136+271100579+270814156
1954+270561266+270360375+270126878+269647336+268690603+267256325+266217387
1940+266486985+267124830+267106982+266720648+266485060+266393301+266262423
1927+265898952+264901771+263799046+263565621+263603764+263794578+264716969
1913+265439040+265214502+264812222+265188051+266030471+266620761+267007475
1900+267399774+267468837+267165493+267164994+267332660+267210362+267758516
1886+269129721+270222986+270910074+271492854+272069550+272621863+273008815
1873+272870071+271478024+269612353+270274059+273030941+275114876+275962880
1859+276327445+276687494+277101206+277478722+277679090+277427508+276608687
1846+275351082+274965794+276901266+279163324+280199291+280781382+281369533
1832+280810091+279175349+279146759+280749964+282409611+284479311+286482823
1819+287684080+288486787+289060822+288895223+288461596+289183595+290839630
1805+291978383+291833175+291012882+291191243+292470450+293171773+292459209
1792+292281609+295080509+298454703+300175998+300743569+301157589+301898744
1778+303232826+304028214+302861132+300891795+302353142+306677414+310573691
1765+312731894+313261962+314096444+315987117+317885419+319964149+321073980
1751+319727349+318343810+320276786+323641331+326288987+328120483+330081907
1738+332422344+333252572+332848081+336111290+342041903+347643862+351746353
1724+354319052+356115851+356572222+354617358+354570444+361256400+369147819
1711+374961030+378354926+379899215+381895384+385147517+387498032+389488069
1697+394521483+403416880+412579569+418726686+422843889+425820056+427475141
1684+431667014+441724716+451821726+459797608+466475555+473596587+480371070
1670+487572193+498765796+509973088+517718110+524462648+532478551+539403898
1657+542954243+543030768+545633625+555251045+562341135+569944800+584257497
1643+598939891+610534705+619372281+626374818+638256626+657399255+674644201
1630+689032947+702623597+716112911+730698057+748059359+763781404+776508507
1616+791594679+808265875+821347038+831150448+839291500+846680134+853311025
1603+859135596+863814759+866685645+868024695+868744413+868793845+867865846
1589+866097209+863453807+859840389+855337566+849840390+843130407+833727781
1576+823780541+821294278+821016696+817341297+815017115+816685746+818864102
1562+819760731+815829994+809145393+815822579+826335820+834885261+842262962
1549+850453828+858138106+862515446+864218204+870230334+892810707+916448364
1535+931944018+945409328+959446344+970281181+977285287+982944639+987735692
1522+991221346+996667189+1002605645+1007143545+1012039166+1014583037+1012120350
1508+1004539405+1000294962+1009686181+1018272601+1020984352+1019487689
1497+1018747723+1022416943+1025979599+1024807954+1022481491+1027184610
1485+1034448997+1037935317+1037331956+1035736998+1033822345+1029544155
1474+1022745764+1019162956+1022568473+1025708766+1023121831+1018948780
1462+1019055630+1017926193+1007825428+999223038+1005287926+1012528453
1450+1014208872+1011639904+1011032550+1013368805+1014829914+1015420252
1439+1014585604+1010009583+1007531400+1010571022+1013284009+1014409834
1427+1015731202+1016010685+1015724927+1015361694+1011680496+1009234824
1416+1014354983+1020295054+1021456813+1018926536+1016323250+1014475902
1404+1013096831+1011524974+1007226155+1001135314+996832217+995401527+997972111
1391+1001204424+999277128+992623042+989563172+992169214+995313404+995743087
1377+994528189+993300742+992527314+992341372+992506495+993255778+993037704
1364+989827541+987538152+989577526+991492655+990219008+988103393+987480069
1350+987122919+986311751+985884160+985792425+984551005+981173246+978722726
1337+979963291+982230816+983548951+984174367+984464213+985384607+986997912
1323+988365100+989522010+991076186+993759894+997098487+1000055309+1002891022
1310+1005638137+1007872294+1010171094+1013420233+1017305150+1020326045
1298+1021837728+1023646956+1026980891+1030198280+1032331481+1033916837
1287+1034943037+1036041483+1037954330+1039360779+1039363916+1039143371
1275+1038952485+1038622333+1039019599+1039615831+1038359201+1035111297
1263+1032639103+1032850142+1034685798+1036185408+1036400914+1035985586
1252+1035908776+1036423349+1037765726+1039464587+1039963189+1039023592
1240+1038365380+1038976726+1039612314+1038711787+1037246209+1037187081
1229+1038149018+1038576799+1038540485+1039191662+1040204553+1040435174
1217+1040340682+1040558660+1040746599+1040926362+1041048137+1040069279
1205+1037499741+1034970510+1034177404+1034686558+1035468827+1036069812
1194+1035960490+1035371008+1035063956+1034284064+1032477117+1030942904
1182+1030326804+1030082874+1029686083+1029028441+1029192139+1030939387
1171+1032483771+1032178145+1030764757+1029363632+1029465634+1031514514
1159+1032878470+1032287752+1031508145+1031397968+1031507004+1031822232
1148+1032519990+1033153486+1033073919+1032361711+1031733348+1031584575
1136+1031643799+1031307944+1029805672+1026887160+1024337395+1024180542
1124+1025125558+1024670208+1022544327+1020399908+1019587695+1019365629
1113+1018909424+1018530030+1018135236+1017632070+1017581972+1018288381
1101+1019164857+1019720497+1020663897+1023003384+1025844800+1027759928
1090+1029617733+1032641860+1036457191+1039176262+1040376045+1042781886
1078+1046305375+1047870674+1047545845+1047547746+1049141754+1052196110
1067+1055291438+1057381861+1058815023+1059988569+1061397394+1063767586
1055+1066349292+1067679691+1067004652+1064714028+1063315374+1064412870
1043+1066705206+1069738553+1072970962+1073293128+1070730055+1069931055
1032+1071849890+1072994917+1072852229+1072217497+1070665317+1070077641
1020+1071126940+1071720986+1071717944+1071461180+1070669500+1070461503
1009+1071615656+1072949763+1072769429+1070924172+1068712259+1066866527
997+1065547630+1065173750+1065278223+1064941702+1064654329+1064848636
986+1064892745+1064773252+1064316762+1063287140+1063097206+1063848579
974+1063796770+1062885787+1061124660+1058036461+1055449907+1054957769
962+1054937521+1053831944+1052819815+1052631021+1052194874+1050691176
951+1048306535+1046484948+1045894325+1045559991+1045367394+1045967809
939+1047237843+1048181908+1048692203+1049894553+1051545122+1052188980
928+1051485993+1050673019+1050555617+1050335738+1049940278+1050153218
916+1050038763+1048584973+1047271305+1047068917+1046514988+1045332126
905+1044372281+1042618093+1040603055+1040775783+1041712433+1040828543
893+1039384734+1039423425+1040567216+1040356843+1037376730+1033818543
881+1032586534+1033187708+1033874535+1035094186+1036547310+1036887824
870+1036759585+1036899422+1037657355+1039278740+1040486318+1041235885
858+1042612485+1043659502+1044932769+1048681841+1052669901+1052936836
847+1050918851+1050290013+1050779014+1050708097+1050653437+1050839284
835+1051001555+1051432663+1050783577+1048502744+1046835158+1046751408
824+1047184988+1047789205+1049439014+1051585999+1052273491+1052612388
812+1053922919+1054146506+1053314995+1052327961+1049947788+1048432017
800+1050419013+1053036272+1054189759+1054031100+1051372774+1048953720
789+1050644691+1053498941+1054793121+1055451523+1054317238+1051807304
777+1050118425+1048929099+1047993209+1046904174+1045279081+1044524951
766+1044653855+1043967124+1041564041+1039054772+1039492440+1042161318
754+1043304824+1041851320+1039713650+1039127495+1040366444+1041274386
743+1041149854+1042039163+1043979197+1044483123+1043231056+1042614576
731+1044192137+1045588319+1042544325+1035795081+1031261458+1031641328
719+1033935185+1036254043+1039309065+1042012831+1042105802+1040261970
708+1039815462+1041324103+1043985471+1046677165+1045727586+1042202765
696+1040690132+1041738861+1043334484+1043602750+1043151584+1043030474
685+1043670530+1045164816+1045537366+1045976174+1049853866+1053934802
673+1050978550+1040015569+1028777286+1030814284+1042024143+1048106619
662+1052019769+1058504169+1060170233+1050585562+1040051122+1040013382
650+1048802095+1058539437+1062101046+1058352734+1054481221+1056666231
638+1063387717+1069853008+1073741823+1073145781+1067744809+1061552821
627+1055334692+1043742302+1030743938+1025535752+1022105709+1018090176
615+1022236230+1030669790+1040294102+1053066977+1054170557+1033183526
604+1008183719+998379548+1010618458
##END=
