##TITLE=Sample description
##JCAMP-DX=4.24
##DATA TYPE=INFRARED SPECTRUM
##DATE=24/8/2023
##SAMPLING PROCEDURE=Instrument type and / or accessory
##ORIGIN=Default
##XUNITS=1/CM
##YUNITS=ABSORBANCE
##RESOLUTION=4
##FIRSTX=4397.6552
##LASTX=599.8556
##DELTAX=-1.9287962
##MAXY=1.4391851
##MINY=0.53758299
##XFACTOR=1
##YFACTOR=1.3403456e-009
##NPOINTS=1970
##FIRSTY=0.67523915
##XYDATA=(X++(Y..Y))
4398+503779875+505455001+506418212+505994195+504970816+503735939+503273455
4384+503608489+503292755+502204806+501224829+501092354+501754996+501919622
4371+501261606+501075456+501451713+501454737+501237147+500953831+500351357
4357+499874687+499806560+499952776+500481031+500957167+500752028+500392447
4344+499970697+499750484+500403520+500907939+500507579+499708949+498908897
4330+498222375+497547193+497150791+496849109+496204700+496205011+497732675
4317+499858456+500922125+500368878+498975156+497771319+497643425+498164208
4303+498005941+497389948+496917636+496355007+495561047+494839038+494992947
4290+495874424+496537377+496771954+496524169+496184911+496700892+497608294
4276+497657210+497232792+496761237+495637979+494093194+493135274+493747754
4263+495612631+496867741+496663092+496213149+496359987+496314895+495748308
4249+495076595+494686774+494492620+493760339+493001998+492791212+492262513
4236+491439826+491186838+491327406+491549665+492342158+493376077+493547818
4222+493120999+493649076+495105722+495409049+494004299+492165614+491337634
4209+492462137+494055884+493734991+491732925+490004925+489418637+489331922
4195+489091563+488948060+489511090+490497559+490990816+491165804+491630111
4182+491635670+490301848+488409978+487660709+488362351+488972251+488872862
4168+488684889+488344341+487964615+488286619+489158001+489488455+489021346
4155+488561930+488397526+487930595+487172700+487117602+487459929+487066907
4141+486456383+486397995+486553594+486528691+486225364+485798722+485999280
4128+486887827+486937856+485892820+485208121+484765782+483844283+483213170
4114+483293127+483684948+484361242+484861748+484497275+483685749+483248657
4101+483297084+483670362+484280663+484460765+483823160+483097638+482599801
4087+482220208+482138162+482053803+481827720+481844974+481926665+481852445
4074+482000706+482326179+482349882+482264722+482180986+481287547+479761928
4060+479166525+479586140+479719949+479536156+479501737+479190583+478777638
4047+479155496+480007490+480285113+480048668+480032526+480494254+480759204
4033+480216497+479572799+479040987+477968514+477004546+477150673+478138432
4020+478957829+479014172+478475689+477664875+477218178+477484284+478017119
4006+478757760+479394476+478890102+477833682+477991682+479077808+479710699
3993+479969602+479738182+478141322+475935630+474765145+475122414+476114976
3979+476966346+477882598+478421036+478273575+478120911+477538581+476524230
3966+476824800+478478180+479248927+478357845+476778640+475321816+474918165
3952+476222681+478408051+479423737+479483504+479412264+477393566+474444697
3939+473464721+474654238+477158233+478535101+477092195+475461406+475443218
3925+475989705+476379348+476960610+477002545+475196856+472875721+472238960
3912+472708159+473680621+476083136+478776171+478719161+476159179+472806437
3898+470671851+471796799+473638597+472153757+469266567+469880470+472086296
3885+473229699+473818565+472058325+469439109+470002006+471692918+472712962
3871+471834020+468608951+467656812+468638523+468757079+469185544+471129266
3858+474061947+475111786+468556165+462996753+465947356+469676488+471484667
3844+471979480+471774253+470449414+467535143+465817193+466057107+466139064
3831+466723973+468297085+469296095+469868953+469061207+464613134+462467120
3817+463303326+463062256+464005101+466736291+468920594+468121430+466897182
3804+467377543+465324870+463526741+464597703+465181367+466150137+467680247
3790+468129390+467847631+467304212+467011380+467799204+467702704+466167080
3777+466319033+467892501+468699846+467792800+466895314+467338098+467482580
3763+467895658+468578400+467826641+467907220+470913410+473830972+472015323
3750+469070189+472102705+475484753+474745001+476250075+481387426+486173468
3736+486269166+481321166+479358100+482259164+486048775+487969951+487346932
3723+484825016+481533864+479897516+481297242+484794510+487374058+486353881
3709+486112989+489665177+494866743+499697609+503965358+508972858+514751862
3696+520845087+526770440+530775284+531178135+531089062+533014640+534872180
3682+535506495+535570842+536026834+533120389+527333203+526543023+525626282
3669+523450250+525662347+529461874+532012518+534524250+537818781+540372360
3655+543648258+550146379+556416194+555455383+551473219+552870321+555735586
3642+556859912+556707470+556366032+555986351+556834475+559606132+559771070
3628+553591796+549854036+549718937+548962643+545867958+542485956+542277971
3615+542445844+541256460+541029442+540474284+538031702+536933569+537817536
3601+537962863+537208881+537832789+538345524+537120964+537192649+538109034
3588+534551644+528873853+527502321+528427956+528399718+527385099+526632051
3574+526227333+526658955+529351456+532743554+531520684+527554617+525542501
3561+524120052+522314185+521699171+522656246+523124244+522652199+524175194
3547+527561955+528159982+525554997+523764695+523801160+524207301+523568984
3534+522290216+521511376+521726875+523936659+527121128+527671661+525496786
3520+523579968+522630542+522342112+523289048+524926019+525221653+524320209
3507+525334784+528658309+530254456+527978769+524616066+522429006+521546062
3493+521444938+521561226+522072982+523283890+524493819+525378986+525620545
3480+524492262+523401868+523437354+523070258+522330728+522391251+522618624
3466+522910078+523246491+522817359+522099842+521758760+521711756+521798516
3453+522190426+523261432+523879827+523083554+522382402+522528040+522810777
3439+523076306+522907143+521397044+519237555+518613869+519768033+520846644
3426+521078553+520723241+519832337+519045002+519330853+520269784+520754058
3412+520597925+520093640+519650056+519626442+519679317+519364605+519263926
3399+520350630+521683384+521243046+519649700+518667589+518113053+517740886
3385+517787001+517559450+516934786+516615983+516651203+516801911+516572670
3372+515648147+515215724+515797787+515986827+515783690+516125394+516258892
3358+515817398+515440696+515264996+515250144+514998846+514384409+514549703
3345+515595939+515977355+515637518+515582332+515388800+514604045+514055245
3331+513852686+513257105+512558843+512025163+511556053+511539955+511480855
3318+510676355+509824229+510159307+511129367+510671597+509198719+508660370
3304+509090080+509489817+509221666+508626573+508398844+508246403+507756792
3291+507355721+507336377+507748121+508216608+507569086+505831125+504543063
3277+504569477+505191518+505349697+505001500+504685588+504622619+504431844
3264+504039355+503551657+502714472+501914864+501644934+501612160+501628435
3250+502045471+502395581+501868082+501214512+500999502+500340462+499385789
3237+499242330+499567136+499582744+499071255+497907930+496637122+496104332
3223+496739580+497964140+498743559+498330658+496932400+496319075+496983185
3210+497177205+495892701+494223845+493734235+494667919+495488650+494867810
3196+494509073+495923340+497290425+496310893+493903086+493224969+494568885
3183+495166690+493961741+493421080+494861451+495730609+494243723+492924799
3169+495385080+499269723+498835299+494859094+493906021+497464079+498902448
3156+495281155+492558325+496008944+501337738+499896211+493206781+491838318
3142+499193947+503639885+497338497+490656805+493704440+501438550+501494182
3129+494104356+491184303+498325678+505411687+500225064+490526864+491406029
3115+502753161+507535600+497842693+488787703+492501582+502613037+502745601
3102+492107848+486796087+494241277+503888159+500444432+489665355+488097090
3088+498767305+506816971+498957013+487053077+485599187+492693068+496346157
3075+490520950+484069477+485636275+493643028+496346024+488724867+481633121
3061+482765495+489267530+491012250+484990798+479797415+480066012+483258351
3047+484079972+481466226+478896906+478326049+479475366+479985388+478311285
3034+476282715+476309575+478130783+479010437+478143946+478008447+484893099
3020+514650426+573323139+620534743+611090777+572476437+540685737+520541983
3007+507012238+497312438+490942878+487181505+484189100+480608363+477858674
2993+477735226+481228002+485429046+484071478+478690922+476485941+480543526
2980+486924204+487039069+480720249+476097188+477283059+483188089+486521620
2966+482151325+476301704+476290809+484857256+493601049+489286207+478531054
2953+474453236+479649465+488884202+490088572+481840749+475649424+477604130
2939+485676787+489458215+482823439+475053353+474074621+481020908+489710758
2926+487720699+477582918+472294147+476044803+484095403+485511182+477921776
2912+471573428+471729472+476609923+480340033+477725487+472597252+470695687
2899+473733940+479326749+480324380+475000434+470127010+470256194+474391734
2885+477274654+475095732+471263075+470174859+472230867+474842700+474507533
2872+471458785+469064230+469098250+470913677+472119470+470971310+468793499
2858+467800315+468545715+469475752+468569951+466385426+464935005+465209827
2845+466737314+467480757+466570864+465579903+465599915+466346115+467166623
2831+467411829+467011780+466659181+466885664+467438066+467615322+466962330
2818+465953759+465534366+465783485+466023754+466010058+466011881+465987556
2804+465661549+465414209+465485450+465212317+464773892+464983744+465422125
2791+465524450+465563316+465649498+465680360+465656302+465560337+465537879
2777+465552688+465521337+465726875+465905243+465481136+464681350+464208950
2764+464484750+465211873+465801984+466048746+466010102+465860418+465871757
2750+466049058+466090592+466136262+466579669+466984431+466734201+466343713
2737+466520836+466824874+466646596+466510563+467140208+467875691+467755179
2723+467317242+467364869+467691276+467793823+467674733+467836825+468203254
2710+468179552+467959561+468015815+468161497+468278275+468630474+469060184
2696+469305567+469634820+470046609+470128922+469996313+470027175+470205098
2683+470454128+470627248+470467780+470252281+470400987+470736777+470985051
2669+471181740+471378429+471542077+471691273+471964316+472455127+472971730
2656+473247531+473293957+473357060+473692805+474290877+474814640+475156478
2642+475622875+476222681+476602541+476635804+476584353+476825956+477322148
2629+477745899+478061411+478455856+479046768+479728220+480255986+480577279
2615+480828087+481066311+481436921+482107167+482686561+482907575+483256662
2602+483737111+483900092+484050755+484565847+485240762+485821624+486267654
2588+486644045+486818010+486746636+486813786+487290722+488027317+488531558
2575+488600485+488756218+489279581+489847235+490332443+490925223+491667599
2561+492367462+492857294+493161377+493390974+493564050+493738237+494086790
2548+494558168+494867721+495004065+495285646+495785529+496299998+496786006
2534+497218206+497549994+497896857+498297217+498702513+499051644+499231079
2521+499314148+499425989+499479753+499445289+499515506+499803358+500214124
2507+500796898+501473370+501799154+501936788+502428310+503001479+503155700
2494+503020557+502974130+503090641+503197501+503295379+503501495+503699474
2480+503606221+503269497+503193321+503496426+503623475+503394279+503360838
2467+503876107+504533635+504775461+504568366+504181791+503971584+504156755
2453+504411344+504379815+504178367+504015342+503859565+503507632+503001968
2440+502717496+502661375+502528589+502463886+502504887+502341328+502027595
2426+501596640+501041392+500630537+500420863+500314581+500169521+499740923
2413+499158994+498807862+498663602+498521655+498293170+497866662+497304211
2399+496767285+496499222+497140296+499491315+504276734+512594507+525704059
2386+543460818+564068702+585504432+606213884+625363076+643137845+660532977
2372+678340654+696363386+714212731+730773258+742951127+749843605+752955766
2359+751048020+742619606+728820152+711868338+694798590+684435525+686947969
2345+697762000+700776595+692231092+682042838+674330474+670616239+673245816
2332+679216794+680451226+676579880+675831412+680196104+682138581+676339700
2318+665428503+655415148+652367157+655859533+657308664+650847986+638049277
2305+623383644+611475662+603370053+596298140+588353288+579310482+569088165
2291+558477672+548879351+540594974+533256955+527079015+522131504+517929437
2278+514325709+511469204+509122987+506895949+504811570+503041235+501527578
2264+500251612+499294048+498558031+497875334+497182631+496494730+496009523
2251+495873623+495880739+495817458+495660703+495451207+495253539+495119419
2237+495166468+495444091+495802828+496229113+496757190+497157817+497316262
2224+497461678+497853188+498486435+499150055+499758889+500404232+501101293
2210+501743834+502450056+503328064+504082580+504653481+505240924+505942076
2197+506806343+507519858+507962509+508638980+509760281+510874023+511644815
2183+512364822+513218683+513996056+514637441+515211811+515794541+516425386
2170+517182748+518131374+519051495+519769679+520322125+520697715+520948791
2156+521180032+521440446+521839383+522244324+522237253+521790867+521297566
2143+521062455+521069703+521004733+520534601+519731257+518981188+518224449
2129+517120268+515790227+514503410+513223752+511775466+510130758+508516111
2116+507194830+505965957+504360070+502478027+500673317+498941537+497378253
2102+496061863+494598324+492962776+491557359+490339381+489269620+488300271
2089+486999935+485315427+483706650+482447537+481305113+479954838+478463772
2075+477140756+476069750+475089462+474307464+473930940+473617474+472792918
2062+471607937+470629739+469928275+469278174+468626338+468132236+467891122
2048+467823884+467876225+468185911+468803060+469256606+469490561+469984885
2035+470662290+471378251+472195380+472985827+473653094+474268064+474899221
2021+475698251+476657550+476985024+476314644+475434057+474702221+473953575
2008+473043104+471817255+470335750+468777891+467268059+465828310+464735025
1994+464239278+463436468+461540195+459193000+456955067+455153159+453789231
1981+452443314+451119454+449830725+448523674+447393256+446624777+446164339
1967+445412980+444053722+442730040+441787017+441020939+440349270+439635044
1954+438740315+437857994+437230216+436903320+436989102+437439135+437417167
1940+436605908+435853971+435496035+435371965+435241091+434937808+434622252
1927+434687933+435344927+435996051+436101578+435992983+435921743+435923566
1913+435922632+435891459+435916362+435901687+435961632+436324059+436808111
1900+437279044+437820639+438092616+437866799+437652100+437472487+437134384
1886+437035217+437084267+437339123+438095951+438523704+438082877+437819039
1873+438726085+440215150+440564726+439865263+440237340+441651207+442755921
1859+442905561+442595297+442528281+442936379+444167342+446283206+448061501
1846+448452522+447849648+447180558+446689881+446357693+446549312+447118301
1832+446675828+444481386+442796344+442780602+442277250+440729486+439533920
1819+439006199+437843541+435806522+434002568+432188475+430206197+428483222
1805+427580534+427947453+427217128+423965066+421399525+420132897+418277670
1792+415806271+414052879+413576876+413727628+413091891+411644894+410310005
1778+408985789+407466263+405472157+403182950+403170810+404827525+405098923
1765+404411467+403746958+403237292+403353269+403325030+403335392+404542386
1751+405681831+404774206+403573393+403720854+403677630+402369156+401077892
1738+401386022+402461208+402851651+403124161+403400629+403095434+403202205
1724+403891573+404463364+404879555+405114087+405325185+405776596+406115098
1711+406503140+406958197+407122602+407613546+408938607+409164602+407511355
1697+407068349+408157454+410149203+412627984+414854710+416046718+415781146
1684+416042716+419200058+421616626+422172807+422049448+422610966+424087802
1670+425649886+427434807+429709338+431631093+433192687+435529654+438496222
1657+440999549+441690029+440185177+441705416+444574150+446238336+448217100
1643+451219288+453776424+455298352+455320587+454837691+457522010+461408120
1630+464003189+465559803+467322445+469602535+472467890+475021068+475996020
1616+476785711+480021853+483900626+486581610+488267052+490328574+493160533
1603+496095038+498734620+501329199+504060834+506962965+510294050+513950297
1589+517560740+521095184+524776379+528551137+532277512+535779316+538474486
1576+541317872+545857241+550232428+554104486+559062803+564627863+569706737
1562+574022023+577065434+581038349+589266072+598116057+606925442+615210130
1549+622479978+629413323+636275784+640259816+641641621+650292916+661830289
1535+670195467+677210504+684360639+691195929+697855697+703746008+707975602
1522+712971273+720751587+730009892+739284252+747332139+755403551+763540689
1508+767111332+765035668+770690157+780185485+787637880+792343565+797323984
1495+804420888+811599884+818014714+823326342+828561393+834557764+840658372
1481+846442267+851317204+854592390+856067536+856914949+860169146+866692215
1468+873538311+878857855+883559893+888537199+891745236+890726526+891324287
1454+899653178+908651158+915211226+919635863+924751647+931293393+937663487
1441+943833378+948644189+950742176+954045023+959754209+964240393+968703896
1427+974606525+978957876+981408952+983535400+985393785+988660789+993828513
1414+998534287+1001562134+1003028030+1003910841+1004427578+1004842479
1402+1006411100+1007514658+1006391622+1004201583+1003065918+1005916954
1391+1009571288+1007449732+1000369014+997398267+1000407614+1005340361
1379+1010259678+1013292327+1012498990+1009823698+1009192763+1010758449
1368+1013288236+1015172236+1013369171+1010008336+1010674846+1013224200
1356+1013791276+1011954059+1009663341+1009146426+1010518313+1011551876
1344+1011476278+1010153218+1005901656+1001334628+1000984385+1003542188
1333+1005325953+1004928750+1004607324+1005625856+1007085437+1008325695
1321+1008638850+1009117076+1011484460+1014233571+1015771864+1017847527
1310+1022938675+1031273969+1039309983+1042912644+1043040806+1043461310
1298+1045529058+1047802256+1049724410+1051857350+1053530208+1054591075
1287+1055940728+1058041650+1060042160+1060801612+1060739710+1060579886
1275+1060686168+1061246930+1061578940+1060732328+1059073967+1057781858
1263+1057002484+1056698223+1057289847+1058577864+1059822213+1060562098
1252+1061117702+1061736541+1062005671+1061876442+1062179636+1063251353
1240+1064448031+1065554257+1066262035+1065269651+1062819376+1061391545
1229+1061831350+1062587689+1062498572+1062045249+1062465131+1063912261
1217+1065251596+1065322926+1064712625+1064849146+1065601750+1066753513
1205+1068402268+1069910855+1071086898+1072530204+1073741823+1073015723
1194+1071469159+1071752608+1072912465+1072839357+1072037748+1071909319
1182+1072628927+1073340262+1073433115+1073343375+1072927584+1071013346
1171+1068657435+1068155106+1069138596+1069800748+1068439445+1065001232
1159+1062824178+1063155744+1063379248+1062517516+1061296914+1060439451
1148+1059837777+1058209211+1055848587+1053967789+1052095618+1049378347
1136+1045781201+1041336019+1036837384+1033944014+1032459885+1029961493
1124+1025870556+1021686233+1017256793+1012687985+1008772970+1004662022
1113+1000408859+996013750+991150198+987805727+986023830+982781195+977687824
1099+973227789+970408683+968828322+968384604+967653435+964635549+960292914
1086+957355519+956227503+955194207+953348985+950768769+947842491+945366068
1072+943680847+942367749+940896338+939005846+936802644+934702078+933014901
1059+931871854+931632607+931701002+930645649+929039940+927973292+926432776
1045+923979743+921883001+920940690+921195946+922058478+922473380+921925781
1032+920983203+921055600+922030285+922336769+921902835+921295825+921072232
1018+921525999+921592971+920971908+920673962+921577584+923103336+923425207
1005+922910694+922872806+923054687+923768513+925052261+925761552+925793748
991+925576113+924935751+923692114+922203360+921074455+920177147+918992032
978+917667727+916756990+916261776+915216829+912916505+910309074+908477638
964+906791795+904677354+902787751+901069713+899425138+898502927+897488041
951+896492545+897972138+901144599+903171969+904749751+907086451+909590445
937+912193252+914721971+917176605+920650749+924341993+926160533+927078030
924+929439544+932749150+934777231+935163494+935524410+936711392+937894640
910+938036320+937441672+937521006+938491600+938667966+937034153+934861012
897+934200016+934966583+934862969+933244453+931928063+932040127+932951220
883+933667981+933797566+933591049+933883481+935104083+936381695+936770359
870+937065726+938744810+941856348+946206810+951547788+956441579+960330358
856+963754073+966480416+968456378+970884330+974766082+979144293+981927824
843+982890235+983903697+985329571+986048200+986260320+986758290+988411137
829+991143172+992749414+993025392+994409375+997391863+1000262821+1002532817
816+1005911884+1009687265+1011652288+1013787274+1017995700+1022012551
804+1023051361+1021725277+1021382150+1023195087+1025315487+1026327437
793+1027911622+1031463321+1034341038+1035688734+1038545462+1043308335
781+1046490669+1046434459+1046016979+1048013042+1051677337+1054844285
770+1055548684+1052087436+1048277636+1050929981+1056654465+1057332093
758+1054905920+1054627718+1056092636+1056880193+1056616221+1057578988
746+1060691327+1062050496+1059561176+1056260998+1054096395+1052794236
735+1051821241+1050187161+1047280538+1044793798+1044073034+1044119816
723+1044411715+1043994590+1042432995+1041013614+1040449206+1041186957
712+1042065498+1041988655+1042565515+1043735510+1042608116+1039460291
700+1036873494+1034630980+1033577495+1034760209+1035496270+1034765812
689+1033864413+1032633227+1030705114+1029195816+1031239639+1037624852
677+1041904696+1040486027+1038242713+1036438047+1033275369+1032381974
665+1034372167+1033269321+1030083785+1030914032+1034950806+1035739341
654+1034082403+1035838597+1038145680+1035629412+1031698565+1027857103
642+1026101798+1026606973+1020769447+1008810147+999270348+998183244+1008402005
629+1021942378+1024149138+1011942586+1002372548+1012946354+1034483252
617+1034338103+1009879641+992737407+992614048+1000636099+1013562436+1028471850
604+1040835202+1044826705+1030898468
##END=
